[Header]
Application Name	LabSolutions
Version	5.110
Data File Name	C:\Users\User\Desktop\GC Analyses\Jack\UIC Prairie Sampling\8.12.22\220812_053.gcd
Output Date	10/14/2022
Output Time	2:33:53 PM

[File Information]
Type	Data File
Generated	10/11/2022 11:02:16 AM
Generated by	System Administrator
Modified	10/11/2022 11:06:46 AM
Modified by	System Administrator

[Sample Information]
Operator Name	System Administrator
Acquired	10/11/2022 11:02:45 AM
Sample Type	1:Standard
Level	1
Sample Name	220812_UICPrairie
Sample ID	220812_UICPrairie
ISTD Amount1	1
ISTD Amount2	1
ISTD Amount3	1
ISTD Amount4	1
ISTD Amount5	1
ISTD Amount6	1
ISTD Amount7	1
ISTD Amount8	1
ISTD Amount9	1
ISTD Amount10	1
ISTD Amount11	1
ISTD Amount12	1
ISTD Amount13	1
ISTD Amount14	1
ISTD Amount15	1
ISTD Amount16	1
ISTD Amount17	1
ISTD Amount18	1
ISTD Amount19	1
ISTD Amount20	1
ISTD Amount21	1
ISTD Amount22	1
ISTD Amount23	1
ISTD Amount24	1
ISTD Amount25	1
ISTD Amount26	1
ISTD Amount27	1
ISTD Amount28	1
ISTD Amount29	1
ISTD Amount30	1
ISTD Amount31	1
ISTD Amount32	1
Sample Amount	1
Dilution Factor	1
Vial#	1
Injection Volume	1
Injection Count	1
Bar Code	

[Original Files]
Data File	C:\Users\User\Desktop\GC Analyses\Jack\UIC Prairie Sampling\8.12.22\220812_053.gcd
Method File	C:\LabSolutions\Data\GHG_4min_2022\ghg3_togas_w_acet_4 min_new_int.gcm
Batch File	
Report Format File	c:\LabSolutions\System\DEFAULT.lsr

[File Description]


[Configuration]
Instrument Name	C0B7VH3-Instrument1
Instrument #	1
Line #	1
# of Detectors	3
Detector ID	DET#1	DET#2	DET#3
Detector Name	FID	PTCD	ECD
# of Channels	1	1	1

[Peak Table(Ch1)]
# of Peaks	3
Peak#	R.Time	I.Time	F.Time	Area	Height	A/H	Conc.	Mark	ID#	Name	k'	Plate #	Plate Ht.	Tailing	Resolution	Sep.Factor	Area Ratio	Height Ratio	Conc. %	Norm Conc.
1	1.476	1.439	1.538	11774	5180	2.273	100.000	   	1	CO	0.000	8188	18.320	1.250	0.000	0.000	0	0	16.667	16.667
2	1.571	1.538	1.630	4476	2268	1.973	100.000	 V 	2	CH4	0.065	11526	13.014	1.121	1.541	0.000	0	0	16.667	16.667
3	2.000	1.952	2.264	1207259	589012	2.050	400.000	   	3	CO2	0.355	17907	8.377	1.167	7.252	5.500	0	0	66.667	66.667

[Peak Table(Ch2)]
# of Peaks	0

[Peak Table(Ch3)]
# of Peaks	3
Peak#	R.Time	I.Time	F.Time	Area	Height	A/H	Conc.	Mark	ID#	Name	k'	Plate #	Plate Ht.	Tailing	Resolution	Sep.Factor	Area Ratio	Height Ratio	Conc. %	Norm Conc.
1	2.275	2.092	2.396	104	12	8.768	0.000	   			0.000	20602	7.281	0.874	0.000	0.000	0	0	0.000	0.000
2	2.722	2.576	2.810	9386	814	11.530	0.178	   	1	N2O	0.197	152	985.037	0.000	0.946	0.000	0	0	17.774	17.774
3	2.880	2.810	3.932	43422	5745	7.558	0.822	 V 	1	N2O	0.266	10614	14.132	0.000	0.317	1.352	0	0	82.226	82.226

[Compound Results(Ch1)]
# of IDs	6
ID#	Name	R.Time	Area	Height	Conc.	Curve	3rd	2nd	1st	Constant	Area Ratio	Height Ratio	Conc. %	Norm Conc.
1	CO	1.476	11774	5180	100.000	Linear	0.000000e+00	0.000000e+00	1.177405e+002	0.000000e+00	0	0	16.667	16.667
2	CH4	1.571	4476	2268	100.000	Linear	0.000000e+00	0.000000e+00	4.475813e+001	0.000000e+00	0	0	16.667	16.667
3	CO2	2.000	1207259	589012	400.000	Linear	0.000000e+00	0.000000e+00	3.018147e+003	0.000000e+00	0	0	66.667	66.667
4	Ethylene	0.000	0	0	0.000	Linear	0.000000e+00	0.000000e+00	0.000000e+00	0.000000e+00	0	0	0.000	0.000
5	Acetylene	0.000	0	0	0.000	Linear	0.000000e+00	0.000000e+00	0.000000e+00	0.000000e+00	0	0	0.000	0.000
6	Ethane	0.000	0	0	0.000	Linear	0.000000e+00	0.000000e+00	0.000000e+00	0.000000e+00	0	0	0.000	0.000

[Compound Results(Ch2)]
# of IDs	5
ID#	Name	R.Time	Area	Height	Conc.	Curve	3rd	2nd	1st	Constant	Area Ratio	Height Ratio	Conc. %	Norm Conc.
1	Hydrogen	0.000	0	0	0.000	Linear	0.000000e+00	0.000000e+00	0.000000e+00	0.000000e+00	0	0	0.000	0.000
2	Oxygen	0.000	0	0	0.000	Linear	0.000000e+00	0.000000e+00	0.000000e+00	0.000000e+00	0	0	0.000	0.000
3	Nitrogen	0.000	0	0	0.000	Linear	0.000000e+00	0.000000e+00	0.000000e+00	0.000000e+00	0	0	0.000	0.000
4	Methane	0.000	0	0	0.000	Linear	0.000000e+00	0.000000e+00	0.000000e+00	0.000000e+00	0	0	0.000	0.000
5	Carbon Monoxide	0.000	0	0	0.000	Linear	0.000000e+00	0.000000e+00	0.000000e+00	0.000000e+00	0	0	0.000	0.000

[Compound Results(Ch3)]
# of IDs	2
ID#	Name	R.Time	Area	Height	Conc.	Curve	3rd	2nd	1st	Constant	Area Ratio	Height Ratio	Conc. %	Norm Conc.
1	N2O	2.880	52808	6559	1.000	Linear	0.000000e+00	0.000000e+00	5.280790e+004	0.000000e+00	0	0	100.000	100.000
2	SF6	0.000	0	0	0.000	Linear	0.000000e+00	0.000000e+00	0.000000e+00	0.000000e+00	0	0	0.000	0.000

[Group Results(Ch1)]
# of Groups	0

[Group Results(Ch2)]
# of Groups	0

[Group Results(Ch3)]
# of Groups	0

[Chromatogram (Ch1)]
Interval(msec)	220
# of Points	1091
Start Time(min)	0.002
End Time(min)	3.998
R.Time (min)	Intensity
0.00167	-34
0.00533	-36
0.00900	-37
0.01267	-36
0.01633	-33
0.02000	-30
0.02367	-24
0.02733	-20
0.03100	-17
0.03467	-18
0.03833	-20
0.04200	-25
0.04567	-27
0.04933	-23
0.05300	-17
0.05667	-13
0.06033	-14
0.06400	-16
0.06767	-14
0.07133	-10
0.07500	-6
0.07867	-8
0.08233	-14
0.08600	-19
0.08967	-23
0.09333	-25
0.09700	-27
0.10067	-27
0.10433	-26
0.10800	-27
0.11167	-28
0.11533	-24
0.11900	-18
0.12267	-15
0.12633	-11
0.13000	-8
0.13367	-10
0.13733	-18
0.14100	-24
0.14467	-25
0.14833	-22
0.15200	-20
0.15567	-22
0.15933	-26
0.16300	-30
0.16667	-35
0.17033	-39
0.17400	-39
0.17767	-35
0.18133	-29
0.18500	-26
0.18867	-27
0.19233	-31
0.19600	-34
0.19967	-34
0.20333	-32
0.20700	-30
0.21067	-29
0.21433	-28
0.21800	-27
0.22167	-29
0.22533	-34
0.22900	-38
0.23267	-42
0.23633	-38
0.24000	-26
0.24367	-12
0.24733	-7
0.25100	-15
0.25467	-32
0.25833	-49
0.26200	-60
0.26567	-65
0.26933	-63
0.27300	-54
0.27667	-42
0.28033	-36
0.28400	-33
0.28767	-30
0.29133	-26
0.29500	-22
0.29867	-15
0.30233	-9
0.30600	-7
0.30967	-11
0.31333	-19
0.31700	-26
0.32067	-33
0.32433	-39
0.32800	-41
0.33167	-41
0.33533	-41
0.33900	-39
0.34267	-33
0.34633	-27
0.35000	-26
0.35367	-29
0.35733	-32
0.36100	-35
0.36467	-38
0.36833	-39
0.37200	-35
0.37567	-24
0.37933	-9
0.38300	3
0.38667	6
0.39033	0
0.39400	-8
0.39767	-14
0.40133	-21
0.40500	-30
0.40867	-38
0.41233	-44
0.41600	-48
0.41967	-47
0.42333	-42
0.42700	-36
0.43067	-32
0.43433	-33
0.43800	-34
0.44167	-33
0.44533	-31
0.44900	-31
0.45267	-31
0.45633	-34
0.46000	-37
0.46367	-36
0.46733	-34
0.47100	-32
0.47467	-32
0.47833	-34
0.48200	-36
0.48567	-41
0.48933	-47
0.49300	-51
0.49667	-51
0.50033	-48
0.50400	-45
0.50767	-40
0.51133	-35
0.51500	-30
0.51867	-28
0.52233	-27
0.52600	-28
0.52967	-31
0.53333	-29
0.53700	-23
0.54067	-21
0.54433	-23
0.54800	-28
0.55167	-32
0.55533	-36
0.55900	-40
0.56267	-40
0.56633	-37
0.57000	-34
0.57367	-32
0.57733	-32
0.58100	-33
0.58467	-36
0.58833	-39
0.59200	-42
0.59567	-43
0.59933	-42
0.60300	-39
0.60667	-32
0.61033	-28
0.61400	-25
0.61767	-27
0.62133	-33
0.62500	-41
0.62867	-47
0.63233	-51
0.63600	-52
0.63967	-51
0.64333	-49
0.64700	-44
0.65067	-36
0.65433	-27
0.65800	-21
0.66167	-23
0.66533	-30
0.66900	-35
0.67267	-37
0.67633	-39
0.68000	-42
0.68367	-46
0.68733	-49
0.69100	-50
0.69467	-49
0.69833	-48
0.70200	-47
0.70567	-48
0.70933	-48
0.71300	-51
0.71667	-51
0.72033	-49
0.72400	-48
0.72767	-46
0.73133	-40
0.73500	-33
0.73867	-33
0.74233	-35
0.74600	-40
0.74967	-46
0.75333	-53
0.75700	-59
0.76067	-60
0.76433	-56
0.76800	-49
0.77167	-43
0.77533	-43
0.77900	-48
0.78267	-52
0.78633	-54
0.79000	-53
0.79367	-52
0.79733	-52
0.80100	-54
0.80467	-56
0.80833	-58
0.81200	-59
0.81567	-57
0.81933	-55
0.82300	-55
0.82667	-55
0.83033	-52
0.83400	-47
0.83767	-45
0.84133	-46
0.84500	-49
0.84867	-50
0.85233	-50
0.85600	-48
0.85967	-45
0.86333	-44
0.86700	-40
0.87067	-34
0.87433	-31
0.87800	-31
0.88167	-36
0.88533	-42
0.88900	-47
0.89267	-51
0.89633	-54
0.90000	-57
0.90367	-60
0.90733	-60
0.91100	-60
0.91467	-61
0.91833	-62
0.92200	-62
0.92567	-60
0.92933	-59
0.93300	-60
0.93667	-65
0.94033	-67
0.94400	-64
0.94767	-58
0.95133	-52
0.95500	-50
0.95867	-52
0.96233	-54
0.96600	-54
0.96967	-56
0.97333	-60
0.97700	-64
0.98067	-67
0.98433	-64
0.98800	-60
0.99167	-55
0.99533	-52
0.99900	-48
1.00267	-43
1.00633	-36
1.01000	-32
1.01367	-33
1.01733	-39
1.02100	-46
1.02467	-53
1.02833	-55
1.03200	-53
1.03567	-49
1.03933	-47
1.04300	-48
1.04667	-51
1.05033	-57
1.05400	-62
1.05767	-64
1.06133	-60
1.06500	-56
1.06867	-54
1.07233	-52
1.07600	-50
1.07967	-45
1.08333	-36
1.08700	-34
1.09067	-35
1.09433	-36
1.09800	-38
1.10167	-38
1.10533	-41
1.10900	-48
1.11267	-55
1.11633	-59
1.12000	-62
1.12367	-63
1.12733	-61
1.13100	-54
1.13467	-48
1.13833	-43
1.14200	-38
1.14567	-35
1.14933	-34
1.15300	-35
1.15667	-38
1.16033	-44
1.16400	-52
1.16767	-58
1.17133	-64
1.17500	-65
1.17867	-61
1.18233	-57
1.18600	-56
1.18967	-57
1.19333	-56
1.19700	-53
1.20067	-47
1.20433	-42
1.20800	-42
1.21167	-46
1.21533	-50
1.21900	-56
1.22267	-65
1.22633	-73
1.23000	-78
1.23367	-79
1.23733	-77
1.24100	-74
1.24467	-75
1.24833	-77
1.25200	-75
1.25567	-67
1.25933	-57
1.26300	-47
1.26667	-39
1.27033	-37
1.27400	-42
1.27767	-50
1.28133	-62
1.28500	-72
1.28867	-77
1.29233	-74
1.29600	-65
1.29967	-58
1.30333	-55
1.30700	-54
1.31067	-51
1.31433	-52
1.31800	-55
1.32167	-58
1.32533	-59
1.32900	-58
1.33267	-54
1.33633	-51
1.34000	-50
1.34367	-53
1.34733	-56
1.35100	-58
1.35467	-57
1.35833	-55
1.36200	-57
1.36567	-62
1.36933	-65
1.37300	-64
1.37667	-60
1.38033	-58
1.38400	-58
1.38767	-57
1.39133	-52
1.39500	-44
1.39867	-37
1.40233	-35
1.40600	-40
1.40967	-48
1.41333	-54
1.41700	-58
1.42067	-57
1.42433	-56
1.42800	-58
1.43167	-64
1.43533	-69
1.43900	-58
1.44267	21
1.44633	249
1.45000	659
1.45367	1272
1.45733	2098
1.46100	3020
1.46467	3865
1.46833	4523
1.47200	4949
1.47567	5125
1.47933	5028
1.48300	4654
1.48667	4051
1.49033	3328
1.49400	2605
1.49767	1968
1.50133	1447
1.50500	1039
1.50867	732
1.51233	506
1.51600	344
1.51967	230
1.52333	151
1.52700	98
1.53067	59
1.53433	31
1.53800	17
1.54167	46
1.54533	176
1.54900	455
1.55267	858
1.55633	1298
1.56000	1694
1.56367	1999
1.56733	2183
1.57100	2218
1.57467	2083
1.57833	1799
1.58200	1433
1.58567	1065
1.58933	747
1.59300	497
1.59667	315
1.60033	191
1.60400	108
1.60767	53
1.61133	17
1.61500	-7
1.61867	-23
1.62233	-36
1.62600	-44
1.62967	-47
1.63333	-48
1.63700	-51
1.64067	-56
1.64433	-63
1.64800	-68
1.65167	-71
1.65533	-70
1.65900	-64
1.66267	-56
1.66633	-48
1.67000	-42
1.67367	-41
1.67733	-45
1.68100	-50
1.68467	-54
1.68833	-54
1.69200	-56
1.69567	-59
1.69933	-65
1.70300	-69
1.70667	-72
1.71033	-75
1.71400	-76
1.71767	-81
1.72133	-92
1.72500	-101
1.72867	-106
1.73233	-103
1.73600	-99
1.73967	-95
1.74333	-94
1.74700	-92
1.75067	-90
1.75433	-89
1.75800	-89
1.76167	-94
1.76533	-99
1.76900	-103
1.77267	-103
1.77633	-99
1.78000	-93
1.78367	-83
1.78733	-76
1.79100	-71
1.79467	-69
1.79833	-65
1.80200	-59
1.80567	-57
1.80933	-57
1.81300	-58
1.81667	-61
1.82033	-64
1.82400	-69
1.82767	-73
1.83133	-78
1.83500	-82
1.83867	-83
1.84233	-84
1.84600	-84
1.84967	-86
1.85333	-87
1.85700	-85
1.86067	-84
1.86433	-81
1.86800	-75
1.87167	-71
1.87533	-70
1.87900	-72
1.88267	-77
1.88633	-81
1.89000	-80
1.89367	-76
1.89733	-71
1.90100	-66
1.90467	-64
1.90833	-63
1.91200	-61
1.91567	-57
1.91933	-50
1.92300	-47
1.92667	-48
1.93033	-50
1.93400	-51
1.93767	-50
1.94133	-47
1.94500	-45
1.94867	-43
1.95233	-35
1.95600	18
1.95967	347
1.96333	1983
1.96700	8174
1.97067	26014
1.97433	65777
1.97800	135388
1.98167	233015
1.98533	344967
1.98900	451835
1.99267	535657
1.99633	583593
2.00000	589008
2.00367	552730
2.00733	483597
2.01100	396389
2.01467	306797
2.01833	226533
2.02200	161379
2.02567	112144
2.02933	76780
2.03300	52251
2.03667	35621
2.04033	24497
2.04400	17105
2.04767	12191
2.05133	8904
2.05500	6678
2.05867	5146
2.06233	4067
2.06600	3290
2.06967	2721
2.07333	2295
2.07700	1967
2.08067	1711
2.08433	1505
2.08800	1338
2.09167	1205
2.09533	1098
2.09900	1006
2.10267	924
2.10633	851
2.11000	786
2.11367	729
2.11733	682
2.12100	641
2.12467	607
2.12833	576
2.13200	545
2.13567	512
2.13933	478
2.14300	448
2.14667	422
2.15033	401
2.15400	384
2.15767	370
2.16133	357
2.16500	345
2.16867	335
2.17233	326
2.17600	316
2.17967	307
2.18333	298
2.18700	290
2.19067	285
2.19433	281
2.19800	273
2.20167	261
2.20533	251
2.20900	243
2.21267	238
2.21633	234
2.22000	229
2.22367	222
2.22733	214
2.23100	205
2.23467	197
2.23833	191
2.24200	190
2.24567	191
2.24933	187
2.25300	178
2.25667	170
2.26033	166
2.26400	166
2.26767	166
2.27133	169
2.27500	172
2.27867	171
2.28233	166
2.28600	159
2.28967	152
2.29333	148
2.29700	147
2.30067	148
2.30433	151
2.30800	152
2.31167	151
2.31533	147
2.31900	139
2.32267	131
2.32633	126
2.33000	130
2.33367	137
2.33733	141
2.34100	140
2.34467	137
2.34833	133
2.35200	128
2.35567	124
2.35933	119
2.36300	113
2.36667	107
2.37033	105
2.37400	111
2.37767	119
2.38133	123
2.38500	119
2.38867	113
2.39233	112
2.39600	115
2.39967	114
2.40333	111
2.40700	107
2.41067	102
2.41433	101
2.41800	105
2.42167	109
2.42533	112
2.42900	114
2.43267	111
2.43633	109
2.44000	108
2.44367	108
2.44733	108
2.45100	109
2.45467	110
2.45833	108
2.46200	103
2.46567	96
2.46933	90
2.47300	87
2.47667	86
2.48033	88
2.48400	93
2.48767	97
2.49133	98
2.49500	98
2.49867	100
2.50233	102
2.50600	104
2.50967	107
2.51333	109
2.51700	108
2.52067	106
2.52433	105
2.52800	106
2.53167	107
2.53533	106
2.53900	104
2.54267	102
2.54633	101
2.55000	103
2.55367	105
2.55733	107
2.56100	112
2.56467	114
2.56833	114
2.57200	111
2.57567	101
2.57933	90
2.58300	83
2.58667	81
2.59033	79
2.59400	78
2.59767	77
2.60133	75
2.60500	76
2.60867	81
2.61233	90
2.61600	98
2.61967	100
2.62333	96
2.62700	89
2.63067	81
2.63433	78
2.63800	81
2.64167	83
2.64533	83
2.64900	81
2.65267	80
2.65633	79
2.66000	78
2.66367	80
2.66733	82
2.67100	84
2.67467	86
2.67833	87
2.68200	86
2.68567	83
2.68933	80
2.69300	76
2.69667	73
2.70033	72
2.70400	75
2.70767	77
2.71133	77
2.71500	75
2.71867	76
2.72233	80
2.72600	84
2.72967	83
2.73333	75
2.73700	67
2.74067	63
2.74433	62
2.74800	63
2.75167	68
2.75533	80
2.75900	96
2.76267	110
2.76633	116
2.77000	113
2.77367	104
2.77733	94
2.78100	83
2.78467	76
2.78833	72
2.79200	69
2.79567	67
2.79933	68
2.80300	68
2.80667	65
2.81033	64
2.81400	66
2.81767	66
2.82133	69
2.82500	72
2.82867	71
2.83233	68
2.83600	66
2.83967	62
2.84333	59
2.84700	59
2.85067	64
2.85433	67
2.85800	69
2.86167	73
2.86533	78
2.86900	81
2.87267	80
2.87633	79
2.88000	80
2.88367	80
2.88733	77
2.89100	73
2.89467	70
2.89833	69
2.90200	72
2.90567	78
2.90933	83
2.91300	84
2.91667	83
2.92033	84
2.92400	86
2.92767	88
2.93133	88
2.93500	86
2.93867	81
2.94233	76
2.94600	72
2.94967	69
2.95333	68
2.95700	68
2.96067	66
2.96433	60
2.96800	52
2.97167	47
2.97533	43
2.97900	41
2.98267	41
2.98633	43
2.99000	47
2.99367	53
2.99733	58
3.00100	61
3.00467	67
3.00833	70
3.01200	70
3.01567	67
3.01933	62
3.02300	59
3.02667	62
3.03033	67
3.03400	75
3.03767	83
3.04133	83
3.04500	76
3.04867	69
3.05233	64
3.05600	59
3.05967	54
3.06333	53
3.06700	55
3.07067	57
3.07433	57
3.07800	58
3.08167	58
3.08533	61
3.08900	64
3.09267	62
3.09633	60
3.10000	56
3.10367	53
3.10733	53
3.11100	56
3.11467	62
3.11833	68
3.12200	70
3.12567	72
3.12933	74
3.13300	74
3.13667	72
3.14033	66
3.14400	61
3.14767	58
3.15133	59
3.15500	59
3.15867	56
3.16233	49
3.16600	42
3.16967	39
3.17333	38
3.17700	38
3.18067	42
3.18433	50
3.18800	58
3.19167	60
3.19533	58
3.19900	52
3.20267	46
3.20633	45
3.21000	47
3.21367	51
3.21733	55
3.22100	57
3.22467	58
3.22833	60
3.23200	59
3.23567	58
3.23933	57
3.24300	58
3.24667	58
3.25033	59
3.25400	61
3.25767	60
3.26133	61
3.26500	67
3.26867	77
3.27233	82
3.27600	79
3.27967	73
3.28333	66
3.28700	60
3.29067	55
3.29433	54
3.29800	55
3.30167	57
3.30533	57
3.30900	52
3.31267	42
3.31633	36
3.32000	37
3.32367	39
3.32733	42
3.33100	47
3.33467	52
3.33833	58
3.34200	64
3.34567	67
3.34933	63
3.35300	55
3.35667	51
3.36033	53
3.36400	56
3.36767	56
3.37133	55
3.37500	56
3.37867	58
3.38233	59
3.38600	57
3.38967	52
3.39333	46
3.39700	41
3.40067	35
3.40433	31
3.40800	29
3.41167	29
3.41533	33
3.41900	36
3.42267	39
3.42633	42
3.43000	45
3.43367	50
3.43733	58
3.44100	66
3.44467	68
3.44833	65
3.45200	61
3.45567	62
3.45933	63
3.46300	61
3.46667	58
3.47033	55
3.47400	55
3.47767	57
3.48133	56
3.48500	53
3.48867	53
3.49233	56
3.49600	59
3.49967	60
3.50333	61
3.50700	59
3.51067	57
3.51433	53
3.51800	48
3.52167	45
3.52533	42
3.52900	40
3.53267	39
3.53633	40
3.54000	41
3.54367	41
3.54733	43
3.55100	48
3.55467	52
3.55833	54
3.56200	54
3.56567	54
3.56933	55
3.57300	56
3.57667	56
3.58033	55
3.58400	52
3.58767	48
3.59133	43
3.59500	39
3.59867	36
3.60233	36
3.60600	38
3.60967	43
3.61333	50
3.61700	58
3.62067	64
3.62433	68
3.62800	70
3.63167	70
3.63533	65
3.63900	62
3.64267	61
3.64633	64
3.65000	67
3.65367	69
3.65733	70
3.66100	68
3.66467	62
3.66833	53
3.67200	45
3.67567	40
3.67933	36
3.68300	30
3.68667	27
3.69033	29
3.69400	36
3.69767	44
3.70133	49
3.70500	50
3.70867	48
3.71233	45
3.71600	41
3.71967	39
3.72333	40
3.72700	42
3.73067	45
3.73433	46
3.73800	44
3.74167	45
3.74533	48
3.74900	47
3.75267	44
3.75633	42
3.76000	43
3.76367	49
3.76733	55
3.77100	59
3.77467	63
3.77833	66
3.78200	68
3.78567	69
3.78933	69
3.79300	66
3.79667	61
3.80033	56
3.80400	50
3.80767	46
3.81133	43
3.81500	40
3.81867	36
3.82233	36
3.82600	42
3.82967	49
3.83333	56
3.83700	61
3.84067	63
3.84433	62
3.84800	60
3.85167	56
3.85533	53
3.85900	52
3.86267	52
3.86633	54
3.87000	60
3.87367	64
3.87733	61
3.88100	54
3.88467	49
3.88833	50
3.89200	57
3.89567	63
3.89933	60
3.90300	53
3.90667	49
3.91033	48
3.91400	48
3.91767	48
3.92133	48
3.92500	48
3.92867	45
3.93233	43
3.93600	41
3.93967	42
3.94333	47
3.94700	54
3.95067	59
3.95433	58
3.95800	51
3.96167	45
3.96533	38
3.96900	36
3.97267	39
3.97633	42
3.98000	44
3.98367	43
3.98733	43
3.99100	43
3.99467	43
3.99833	43

[Chromatogram (Ch2)]
Interval(msec)	220
# of Points	1091
Start Time(min)	0.002
End Time(min)	3.998
R.Time (min)	Intensity
0.00167	0
0.00533	0
0.00900	-0
0.01267	-0
0.01633	-1
0.02000	-1
0.02367	-1
0.02733	-2
0.03100	-2
0.03467	-2
0.03833	-2
0.04200	-2
0.04567	-2
0.04933	-2
0.05300	-2
0.05667	-2
0.06033	-2
0.06400	-2
0.06767	-2
0.07133	-2
0.07500	-2
0.07867	-2
0.08233	-2
0.08600	-3
0.08967	-3
0.09333	-4
0.09700	-4
0.10067	-4
0.10433	-4
0.10800	-4
0.11167	-4
0.11533	-4
0.11900	-3
0.12267	-3
0.12633	-2
0.13000	-2
0.13367	-2
0.13733	-1
0.14100	-1
0.14467	-1
0.14833	-1
0.15200	-1
0.15567	-2
0.15933	-2
0.16300	-2
0.16667	-2
0.17033	-2
0.17400	-2
0.17767	-1
0.18133	-1
0.18500	-1
0.18867	-0
0.19233	-0
0.19600	-0
0.19967	-0
0.20333	-0
0.20700	-1
0.21067	-1
0.21433	-1
0.21800	-1
0.22167	-1
0.22533	-1
0.22900	-1
0.23267	-1
0.23633	-1
0.24000	-1
0.24367	-1
0.24733	-1
0.25100	-1
0.25467	-1
0.25833	-1
0.26200	-2
0.26567	-2
0.26933	-2
0.27300	-2
0.27667	-2
0.28033	-2
0.28400	-2
0.28767	-3
0.29133	-3
0.29500	-2
0.29867	-2
0.30233	-2
0.30600	-2
0.30967	-2
0.31333	-2
0.31700	-2
0.32067	-1
0.32433	-1
0.32800	-1
0.33167	-1
0.33533	-1
0.33900	-1
0.34267	-0
0.34633	-0
0.35000	-0
0.35367	-0
0.35733	-0
0.36100	-0
0.36467	-0
0.36833	-1
0.37200	-1
0.37567	-1
0.37933	-1
0.38300	-1
0.38667	-1
0.39033	-1
0.39400	-2
0.39767	-2
0.40133	-2
0.40500	-2
0.40867	-2
0.41233	-2
0.41600	-2
0.41967	-2
0.42333	-2
0.42700	-2
0.43067	-1
0.43433	-1
0.43800	-1
0.44167	-1
0.44533	-1
0.44900	-0
0.45267	-0
0.45633	-0
0.46000	-0
0.46367	-0
0.46733	-1
0.47100	-1
0.47467	-1
0.47833	-1
0.48200	-1
0.48567	-1
0.48933	-1
0.49300	-1
0.49667	-1
0.50033	-1
0.50400	-1
0.50767	-1
0.51133	-1
0.51500	-1
0.51867	-1
0.52233	-1
0.52600	-2
0.52967	-2
0.53333	-2
0.53700	-2
0.54067	-2
0.54433	-2
0.54800	-2
0.55167	-2
0.55533	-2
0.55900	-2
0.56267	-2
0.56633	-3
0.57000	-3
0.57367	-3
0.57733	-4
0.58100	-4
0.58467	-4
0.58833	-4
0.59200	-4
0.59567	-4
0.59933	-4
0.60300	-4
0.60667	-4
0.61033	-4
0.61400	-4
0.61767	-3
0.62133	-3
0.62500	-3
0.62867	-3
0.63233	-2
0.63600	-2
0.63967	-2
0.64333	-2
0.64700	-2
0.65067	-1
0.65433	-1
0.65800	-1
0.66167	-2
0.66533	-2
0.66900	-2
0.67267	-2
0.67633	-2
0.68000	-2
0.68367	-2
0.68733	-2
0.69100	-2
0.69467	-2
0.69833	-2
0.70200	-2
0.70567	-2
0.70933	-2
0.71300	-2
0.71667	-2
0.72033	-2
0.72400	-2
0.72767	-2
0.73133	-2
0.73500	-2
0.73867	-2
0.74233	-2
0.74600	-2
0.74967	-2
0.75333	-1
0.75700	-1
0.76067	-1
0.76433	-1
0.76800	-1
0.77167	-1
0.77533	-1
0.77900	-2
0.78267	-2
0.78633	-3
0.79000	-3
0.79367	-3
0.79733	-3
0.80100	-4
0.80467	-4
0.80833	-4
0.81200	-4
0.81567	-4
0.81933	-4
0.82300	-4
0.82667	-3
0.83033	-3
0.83400	-3
0.83767	-3
0.84133	-3
0.84500	-3
0.84867	-4
0.85233	-4
0.85600	-4
0.85967	-4
0.86333	-4
0.86700	-4
0.87067	-4
0.87433	-4
0.87800	-4
0.88167	-4
0.88533	-4
0.88900	-4
0.89267	-4
0.89633	-4
0.90000	-4
0.90367	-3
0.90733	-3
0.91100	-3
0.91467	-3
0.91833	-2
0.92200	-2
0.92567	-2
0.92933	-2
0.93300	-2
0.93667	-2
0.94033	-2
0.94400	-2
0.94767	-2
0.95133	-2
0.95500	-2
0.95867	-2
0.96233	-2
0.96600	-2
0.96967	-2
0.97333	-2
0.97700	-2
0.98067	-2
0.98433	-2
0.98800	-2
0.99167	-3
0.99533	-3
0.99900	-4
1.00267	-4
1.00633	-4
1.01000	-5
1.01367	-5
1.01733	-5
1.02100	-5
1.02467	-5
1.02833	-5
1.03200	-5
1.03567	-4
1.03933	-4
1.04300	-3
1.04667	-3
1.05033	-3
1.05400	-3
1.05767	-2
1.06133	-2
1.06500	-2
1.06867	-2
1.07233	-2
1.07600	-2
1.07967	-3
1.08333	-3
1.08700	-3
1.09067	-3
1.09433	-3
1.09800	-3
1.10167	-3
1.10533	-3
1.10900	-3
1.11267	-3
1.11633	-4
1.12000	-4
1.12367	-4
1.12733	-4
1.13100	-5
1.13467	-5
1.13833	-5
1.14200	-5
1.14567	-4
1.14933	-4
1.15300	-4
1.15667	-3
1.16033	-3
1.16400	-3
1.16767	-3
1.17133	-2
1.17500	-2
1.17867	-2
1.18233	-2
1.18600	-2
1.18967	-2
1.19333	-2
1.19700	-2
1.20067	-2
1.20433	-2
1.20800	-2
1.21167	-3
1.21533	-3
1.21900	-3
1.22267	-3
1.22633	-3
1.23000	-3
1.23367	-3
1.23733	-3
1.24100	-3
1.24467	-3
1.24833	-3
1.25200	-3
1.25567	-3
1.25933	-2
1.26300	-2
1.26667	-2
1.27033	-2
1.27400	-2
1.27767	-2
1.28133	-2
1.28500	-2
1.28867	-2
1.29233	-3
1.29600	-3
1.29967	-4
1.30333	-4
1.30700	-4
1.31067	-4
1.31433	-4
1.31800	-4
1.32167	-4
1.32533	-4
1.32900	-4
1.33267	-4
1.33633	-3
1.34000	-3
1.34367	-4
1.34733	-4
1.35100	-4
1.35467	-4
1.35833	-4
1.36200	-4
1.36567	-4
1.36933	-4
1.37300	-4
1.37667	-4
1.38033	-4
1.38400	-4
1.38767	-4
1.39133	-4
1.39500	-4
1.39867	-4
1.40233	-4
1.40600	-4
1.40967	-3
1.41333	-3
1.41700	-3
1.42067	-4
1.42433	-4
1.42800	-4
1.43167	-4
1.43533	-4
1.43900	-4
1.44267	-4
1.44633	-4
1.45000	-4
1.45367	-4
1.45733	-4
1.46100	-4
1.46467	-3
1.46833	-3
1.47200	-4
1.47567	-4
1.47933	-4
1.48300	-4
1.48667	-4
1.49033	-4
1.49400	-4
1.49767	-4
1.50133	-5
1.50500	-5
1.50867	-5
1.51233	-5
1.51600	-5
1.51967	-4
1.52333	-4
1.52700	-4
1.53067	-4
1.53433	-4
1.53800	-4
1.54167	-3
1.54533	-3
1.54900	-3
1.55267	-3
1.55633	-3
1.56000	-3
1.56367	-3
1.56733	-3
1.57100	-3
1.57467	-3
1.57833	-3
1.58200	-3
1.58567	-3
1.58933	-3
1.59300	-3
1.59667	-4
1.60033	-5
1.60400	-6
1.60767	-7
1.61133	-9
1.61500	-10
1.61867	-13
1.62233	-15
1.62600	-18
1.62967	-21
1.63333	-24
1.63700	-28
1.64067	-31
1.64433	-35
1.64800	-38
1.65167	-42
1.65533	-45
1.65900	-49
1.66267	-54
1.66633	-58
1.67000	-63
1.67367	-69
1.67733	-74
1.68100	-79
1.68467	-84
1.68833	-89
1.69200	-93
1.69567	-97
1.69933	-100
1.70300	-102
1.70667	-105
1.71033	-107
1.71400	-108
1.71767	-109
1.72133	-111
1.72500	-112
1.72867	-113
1.73233	-114
1.73600	-115
1.73967	-116
1.74333	-116
1.74700	-117
1.75067	-118
1.75433	-118
1.75800	-119
1.76167	-119
1.76533	-120
1.76900	-120
1.77267	-120
1.77633	-121
1.78000	-121
1.78367	-122
1.78733	-122
1.79100	-122
1.79467	-122
1.79833	-122
1.80200	-121
1.80567	-121
1.80933	-120
1.81300	-120
1.81667	-120
1.82033	-121
1.82400	-121
1.82767	-122
1.83133	-122
1.83500	-122
1.83867	-122
1.84233	-123
1.84600	-123
1.84967	-123
1.85333	-124
1.85700	-124
1.86067	-124
1.86433	-124
1.86800	-124
1.87167	-123
1.87533	-123
1.87900	-123
1.88267	-123
1.88633	-123
1.89000	-123
1.89367	-122
1.89733	-122
1.90100	-121
1.90467	-121
1.90833	-121
1.91200	-121
1.91567	-122
1.91933	-122
1.92300	-122
1.92667	-122
1.93033	-122
1.93400	-121
1.93767	-120
1.94133	-119
1.94500	-119
1.94867	-118
1.95233	-118
1.95600	-118
1.95967	-118
1.96333	-118
1.96700	-118
1.97067	-118
1.97433	-119
1.97800	-119
1.98167	-119
1.98533	-120
1.98900	-120
1.99267	-120
1.99633	-119
2.00000	-119
2.00367	-119
2.00733	-119
2.01100	-118
2.01467	-117
2.01833	-117
2.02200	-116
2.02567	-116
2.02933	-116
2.03300	-115
2.03667	-115
2.04033	-114
2.04400	-114
2.04767	-113
2.05133	-113
2.05500	-113
2.05867	-112
2.06233	-112
2.06600	-112
2.06967	-113
2.07333	-113
2.07700	-112
2.08067	-112
2.08433	-112
2.08800	-112
2.09167	-111
2.09533	-111
2.09900	-111
2.10267	-110
2.10633	-110
2.11000	-110
2.11367	-110
2.11733	-110
2.12100	-109
2.12467	-109
2.12833	-109
2.13200	-109
2.13567	-109
2.13933	-108
2.14300	-107
2.14667	-107
2.15033	-106
2.15400	-105
2.15767	-104
2.16133	-104
2.16500	-103
2.16867	-102
2.17233	-102
2.17600	-101
2.17967	-102
2.18333	-102
2.18700	-102
2.19067	-102
2.19433	-102
2.19800	-101
2.20167	-101
2.20533	-100
2.20900	-100
2.21267	-99
2.21633	-98
2.22000	-97
2.22367	-97
2.22733	-96
2.23100	-96
2.23467	-96
2.23833	-96
2.24200	-97
2.24567	-97
2.24933	-96
2.25300	-96
2.25667	-95
2.26033	-95
2.26400	-94
2.26767	-94
2.27133	-93
2.27500	-93
2.27867	-93
2.28233	-93
2.28600	-93
2.28967	-93
2.29333	-93
2.29700	-93
2.30067	-94
2.30433	-94
2.30800	-94
2.31167	-94
2.31533	-94
2.31900	-93
2.32267	-92
2.32633	-92
2.33000	-91
2.33367	-91
2.33733	-90
2.34100	-90
2.34467	-89
2.34833	-89
2.35200	-89
2.35567	-88
2.35933	-88
2.36300	-88
2.36667	-87
2.37033	-86
2.37400	-84
2.37767	-82
2.38133	-79
2.38500	-75
2.38867	-71
2.39233	-66
2.39600	-62
2.39967	-57
2.40333	-52
2.40700	-47
2.41067	-42
2.41433	-38
2.41800	-34
2.42167	-31
2.42533	-28
2.42900	-25
2.43267	-23
2.43633	-21
2.44000	-18
2.44367	-16
2.44733	-14
2.45100	-12
2.45467	-10
2.45833	-9
2.46200	-8
2.46567	-6
2.46933	-5
2.47300	-4
2.47667	-3
2.48033	-2
2.48400	-1
2.48767	-1
2.49133	-1
2.49500	-0
2.49867	0
2.50233	1
2.50600	2
2.50967	3
2.51333	3
2.51700	4
2.52067	5
2.52433	6
2.52800	7
2.53167	7
2.53533	8
2.53900	9
2.54267	10
2.54633	11
2.55000	11
2.55367	11
2.55733	11
2.56100	11
2.56467	12
2.56833	12
2.57200	12
2.57567	12
2.57933	12
2.58300	12
2.58667	12
2.59033	12
2.59400	12
2.59767	13
2.60133	13
2.60500	13
2.60867	13
2.61233	13
2.61600	14
2.61967	14
2.62333	15
2.62700	15
2.63067	16
2.63433	16
2.63800	16
2.64167	17
2.64533	18
2.64900	18
2.65267	18
2.65633	18
2.66000	19
2.66367	19
2.66733	19
2.67100	19
2.67467	19
2.67833	19
2.68200	19
2.68567	19
2.68933	20
2.69300	20
2.69667	21
2.70033	21
2.70400	22
2.70767	22
2.71133	23
2.71500	23
2.71867	23
2.72233	23
2.72600	23
2.72967	22
2.73333	22
2.73700	22
2.74067	21
2.74433	21
2.74800	21
2.75167	21
2.75533	21
2.75900	21
2.76267	21
2.76633	22
2.77000	22
2.77367	22
2.77733	22
2.78100	22
2.78467	22
2.78833	22
2.79200	22
2.79567	22
2.79933	22
2.80300	22
2.80667	22
2.81033	22
2.81400	22
2.81767	22
2.82133	22
2.82500	22
2.82867	22
2.83233	22
2.83600	22
2.83967	22
2.84333	21
2.84700	19
2.85067	16
2.85433	11
2.85800	3
2.86167	-7
2.86533	-22
2.86900	-40
2.87267	-62
2.87633	-88
2.88000	-118
2.88367	-152
2.88733	-190
2.89100	-230
2.89467	-273
2.89833	-319
2.90200	-366
2.90567	-415
2.90933	-465
2.91300	-516
2.91667	-566
2.92033	-616
2.92400	-666
2.92767	-715
2.93133	-763
2.93500	-812
2.93867	-863
2.94233	-920
2.94600	-982
2.94967	-1039
2.95333	-1082
2.95700	-1101
2.96067	-1093
2.96433	-1060
2.96800	-1007
2.97167	-940
2.97533	-864
2.97900	-784
2.98267	-703
2.98633	-625
2.99000	-552
2.99367	-483
2.99733	-421
3.00100	-365
3.00467	-315
3.00833	-271
3.01200	-232
3.01567	-198
3.01933	-168
3.02300	-143
3.02667	-121
3.03033	-102
3.03400	-86
3.03767	-72
3.04133	-60
3.04500	-50
3.04867	-41
3.05233	-34
3.05600	-27
3.05967	-22
3.06333	-17
3.06700	-13
3.07067	-10
3.07433	-7
3.07800	-5
3.08167	-3
3.08533	-1
3.08900	1
3.09267	2
3.09633	3
3.10000	4
3.10367	5
3.10733	6
3.11100	6
3.11467	7
3.11833	8
3.12200	8
3.12567	9
3.12933	10
3.13300	10
3.13667	11
3.14033	12
3.14400	13
3.14767	13
3.15133	14
3.15500	15
3.15867	16
3.16233	16
3.16600	17
3.16967	18
3.17333	18
3.17700	19
3.18067	19
3.18433	20
3.18800	20
3.19167	20
3.19533	20
3.19900	20
3.20267	20
3.20633	20
3.21000	19
3.21367	19
3.21733	19
3.22100	19
3.22467	19
3.22833	19
3.23200	19
3.23567	20
3.23933	20
3.24300	20
3.24667	20
3.25033	20
3.25400	20
3.25767	20
3.26133	20
3.26500	21
3.26867	21
3.27233	21
3.27600	21
3.27967	21
3.28333	21
3.28700	22
3.29067	22
3.29433	22
3.29800	22
3.30167	23
3.30533	23
3.30900	23
3.31267	23
3.31633	23
3.32000	23
3.32367	23
3.32733	23
3.33100	23
3.33467	23
3.33833	23
3.34200	23
3.34567	23
3.34933	23
3.35300	23
3.35667	23
3.36033	23
3.36400	23
3.36767	23
3.37133	23
3.37500	22
3.37867	22
3.38233	23
3.38600	23
3.38967	23
3.39333	23
3.39700	23
3.40067	23
3.40433	23
3.40800	23
3.41167	23
3.41533	23
3.41900	24
3.42267	23
3.42633	23
3.43000	22
3.43367	22
3.43733	22
3.44100	22
3.44467	22
3.44833	22
3.45200	22
3.45567	22
3.45933	22
3.46300	22
3.46667	22
3.47033	21
3.47400	21
3.47767	21
3.48133	21
3.48500	21
3.48867	21
3.49233	21
3.49600	21
3.49967	21
3.50333	21
3.50700	22
3.51067	22
3.51433	22
3.51800	22
3.52167	22
3.52533	22
3.52900	22
3.53267	22
3.53633	22
3.54000	23
3.54367	23
3.54733	23
3.55100	24
3.55467	24
3.55833	24
3.56200	24
3.56567	25
3.56933	25
3.57300	25
3.57667	25
3.58033	25
3.58400	25
3.58767	25
3.59133	25
3.59500	25
3.59867	25
3.60233	25
3.60600	25
3.60967	25
3.61333	25
3.61700	25
3.62067	25
3.62433	25
3.62800	25
3.63167	25
3.63533	25
3.63900	25
3.64267	25
3.64633	25
3.65000	24
3.65367	24
3.65733	24
3.66100	24
3.66467	24
3.66833	24
3.67200	24
3.67567	24
3.67933	23
3.68300	23
3.68667	23
3.69033	24
3.69400	24
3.69767	24
3.70133	24
3.70500	24
3.70867	24
3.71233	24
3.71600	24
3.71967	24
3.72333	24
3.72700	24
3.73067	24
3.73433	24
3.73800	24
3.74167	23
3.74533	23
3.74900	23
3.75267	23
3.75633	23
3.76000	23
3.76367	24
3.76733	24
3.77100	24
3.77467	24
3.77833	24
3.78200	24
3.78567	23
3.78933	23
3.79300	23
3.79667	23
3.80033	23
3.80400	23
3.80767	23
3.81133	23
3.81500	23
3.81867	23
3.82233	23
3.82600	23
3.82967	23
3.83333	23
3.83700	23
3.84067	23
3.84433	23
3.84800	22
3.85167	22
3.85533	22
3.85900	22
3.86267	22
3.86633	22
3.87000	22
3.87367	22
3.87733	23
3.88100	23
3.88467	23
3.88833	23
3.89200	23
3.89567	23
3.89933	23
3.90300	23
3.90667	23
3.91033	23
3.91400	23
3.91767	24
3.92133	24
3.92500	24
3.92867	24
3.93233	23
3.93600	23
3.93967	23
3.94333	23
3.94700	23
3.95067	23
3.95433	23
3.95800	23
3.96167	23
3.96533	23
3.96900	22
3.97267	22
3.97633	22
3.98000	23
3.98367	23
3.98733	23
3.99100	23
3.99467	23
3.99833	23

[Chromatogram (Ch3)]
Interval(msec)	220
# of Points	1091
Start Time(min)	0.002
End Time(min)	3.998
R.Time (min)	Intensity
0.00167	-1
0.00533	-2
0.00900	-4
0.01267	-4
0.01633	-1
0.02000	1
0.02367	1
0.02733	1
0.03100	-1
0.03467	-3
0.03833	-2
0.04200	-0
0.04567	-1
0.04933	-2
0.05300	-2
0.05667	-1
0.06033	-2
0.06400	-2
0.06767	-1
0.07133	2
0.07500	3
0.07867	3
0.08233	3
0.08600	3
0.08967	4
0.09333	6
0.09700	6
0.10067	7
0.10433	8
0.10800	6
0.11167	6
0.11533	8
0.11900	7
0.12267	7
0.12633	5
0.13000	5
0.13367	4
0.13733	3
0.14100	5
0.14467	9
0.14833	11
0.15200	12
0.15567	12
0.15933	11
0.16300	12
0.16667	12
0.17033	11
0.17400	8
0.17767	9
0.18133	11
0.18500	13
0.18867	15
0.19233	16
0.19600	15
0.19967	16
0.20333	16
0.20700	15
0.21067	14
0.21433	10
0.21800	9
0.22167	9
0.22533	7
0.22900	8
0.23267	9
0.23633	9
0.24000	10
0.24367	9
0.24733	11
0.25100	12
0.25467	13
0.25833	11
0.26200	12
0.26567	16
0.26933	16
0.27300	16
0.27667	16
0.28033	14
0.28400	14
0.28767	14
0.29133	12
0.29500	10
0.29867	11
0.30233	12
0.30600	13
0.30967	12
0.31333	13
0.31700	15
0.32067	17
0.32433	19
0.32800	21
0.33167	23
0.33533	22
0.33900	19
0.34267	18
0.34633	18
0.35000	18
0.35367	18
0.35733	18
0.36100	16
0.36467	17
0.36833	18
0.37200	18
0.37567	18
0.37933	17
0.38300	17
0.38667	19
0.39033	22
0.39400	23
0.39767	23
0.40133	22
0.40500	22
0.40867	23
0.41233	24
0.41600	24
0.41967	25
0.42333	24
0.42700	26
0.43067	26
0.43433	26
0.43800	24
0.44167	24
0.44533	24
0.44900	24
0.45267	23
0.45633	21
0.46000	20
0.46367	21
0.46733	20
0.47100	20
0.47467	20
0.47833	19
0.48200	20
0.48567	20
0.48933	21
0.49300	22
0.49667	23
0.50033	25
0.50400	26
0.50767	27
0.51133	28
0.51500	26
0.51867	26
0.52233	27
0.52600	26
0.52967	25
0.53333	25
0.53700	25
0.54067	28
0.54433	31
0.54800	31
0.55167	28
0.55533	26
0.55900	27
0.56267	25
0.56633	26
0.57000	28
0.57367	29
0.57733	30
0.58100	31
0.58467	31
0.58833	30
0.59200	30
0.59567	31
0.59933	30
0.60300	29
0.60667	29
0.61033	29
0.61400	30
0.61767	29
0.62133	28
0.62500	30
0.62867	31
0.63233	32
0.63600	33
0.63967	34
0.64333	34
0.64700	35
0.65067	35
0.65433	34
0.65800	33
0.66167	31
0.66533	30
0.66900	31
0.67267	32
0.67633	34
0.68000	36
0.68367	39
0.68733	41
0.69100	42
0.69467	41
0.69833	39
0.70200	37
0.70567	35
0.70933	36
0.71300	36
0.71667	35
0.72033	36
0.72400	37
0.72767	38
0.73133	40
0.73500	41
0.73867	41
0.74233	41
0.74600	41
0.74967	42
0.75333	41
0.75700	42
0.76067	42
0.76433	42
0.76800	41
0.77167	41
0.77533	43
0.77900	42
0.78267	40
0.78633	42
0.79000	45
0.79367	48
0.79733	47
0.80100	44
0.80467	42
0.80833	40
0.81200	40
0.81567	44
0.81933	46
0.82300	46
0.82667	45
0.83033	45
0.83400	46
0.83767	45
0.84133	45
0.84500	43
0.84867	42
0.85233	43
0.85600	44
0.85967	46
0.86333	47
0.86700	49
0.87067	49
0.87433	47
0.87800	45
0.88167	44
0.88533	42
0.88900	41
0.89267	41
0.89633	39
0.90000	38
0.90367	38
0.90733	39
0.91100	44
0.91467	47
0.91833	48
0.92200	48
0.92567	47
0.92933	45
0.93300	42
0.93667	42
0.94033	45
0.94400	47
0.94767	48
0.95133	47
0.95500	48
0.95867	50
0.96233	50
0.96600	47
0.96967	46
0.97333	43
0.97700	42
0.98067	44
0.98433	43
0.98800	43
0.99167	45
0.99533	47
0.99900	48
1.00267	49
1.00633	50
1.01000	51
1.01367	50
1.01733	48
1.02100	47
1.02467	48
1.02833	48
1.03200	47
1.03567	47
1.03933	48
1.04300	48
1.04667	48
1.05033	49
1.05400	49
1.05767	48
1.06133	45
1.06500	44
1.06867	45
1.07233	47
1.07600	48
1.07967	49
1.08333	49
1.08700	50
1.09067	48
1.09433	47
1.09800	47
1.10167	46
1.10533	44
1.10900	47
1.11267	50
1.11633	51
1.12000	50
1.12367	49
1.12733	49
1.13100	49
1.13467	47
1.13833	48
1.14200	50
1.14567	51
1.14933	52
1.15300	53
1.15667	53
1.16033	53
1.16400	52
1.16767	51
1.17133	49
1.17500	48
1.17867	49
1.18233	52
1.18600	55
1.18967	57
1.19333	59
1.19700	60
1.20067	56
1.20433	53
1.20800	53
1.21167	51
1.21533	52
1.21900	52
1.22267	51
1.22633	51
1.23000	52
1.23367	54
1.23733	56
1.24100	56
1.24467	56
1.24833	54
1.25200	55
1.25567	56
1.25933	59
1.26300	60
1.26667	61
1.27033	63
1.27400	63
1.27767	61
1.28133	59
1.28500	60
1.28867	61
1.29233	59
1.29600	59
1.29967	59
1.30333	59
1.30700	58
1.31067	58
1.31433	59
1.31800	61
1.32167	60
1.32533	58
1.32900	57
1.33267	58
1.33633	59
1.34000	60
1.34367	62
1.34733	62
1.35100	61
1.35467	61
1.35833	60
1.36200	59
1.36567	60
1.36933	61
1.37300	60
1.37667	61
1.38033	64
1.38400	65
1.38767	65
1.39133	62
1.39500	60
1.39867	58
1.40233	57
1.40600	58
1.40967	61
1.41333	64
1.41700	65
1.42067	64
1.42433	64
1.42800	64
1.43167	64
1.43533	64
1.43900	64
1.44267	65
1.44633	65
1.45000	64
1.45367	63
1.45733	63
1.46100	62
1.46467	62
1.46833	62
1.47200	60
1.47567	60
1.47933	61
1.48300	61
1.48667	62
1.49033	64
1.49400	65
1.49767	65
1.50133	64
1.50500	65
1.50867	65
1.51233	67
1.51600	68
1.51967	67
1.52333	67
1.52700	65
1.53067	64
1.53433	65
1.53800	68
1.54167	69
1.54533	69
1.54900	68
1.55267	67
1.55633	67
1.56000	67
1.56367	67
1.56733	68
1.57100	69
1.57467	70
1.57833	69
1.58200	67
1.58567	65
1.58933	65
1.59300	65
1.59667	65
1.60033	65
1.60400	64
1.60767	64
1.61133	65
1.61500	65
1.61867	66
1.62233	65
1.62600	64
1.62967	67
1.63333	69
1.63700	72
1.64067	76
1.64433	78
1.64800	79
1.65167	77
1.65533	75
1.65900	75
1.66267	78
1.66633	79
1.67000	77
1.67367	76
1.67733	76
1.68100	76
1.68467	76
1.68833	76
1.69200	78
1.69567	78
1.69933	79
1.70300	80
1.70667	79
1.71033	79
1.71400	81
1.71767	85
1.72133	87
1.72500	89
1.72867	88
1.73233	87
1.73600	86
1.73967	86
1.74333	86
1.74700	88
1.75067	91
1.75433	93
1.75800	92
1.76167	93
1.76533	92
1.76900	93
1.77267	94
1.77633	94
1.78000	94
1.78367	93
1.78733	93
1.79100	94
1.79467	96
1.79833	96
1.80200	96
1.80567	96
1.80933	97
1.81300	96
1.81667	98
1.82033	101
1.82400	102
1.82767	103
1.83133	104
1.83500	104
1.83867	102
1.84233	101
1.84600	102
1.84967	104
1.85333	106
1.85700	106
1.86067	106
1.86433	106
1.86800	106
1.87167	103
1.87533	103
1.87900	105
1.88267	109
1.88633	112
1.89000	112
1.89367	109
1.89733	107
1.90100	107
1.90467	108
1.90833	109
1.91200	111
1.91567	112
1.91933	112
1.92300	110
1.92667	110
1.93033	112
1.93400	114
1.93767	117
1.94133	118
1.94500	119
1.94867	120
1.95233	120
1.95600	118
1.95967	117
1.96333	120
1.96700	123
1.97067	124
1.97433	122
1.97800	122
1.98167	123
1.98533	125
1.98900	127
1.99267	129
1.99633	132
2.00000	134
2.00367	133
2.00733	130
2.01100	127
2.01467	125
2.01833	125
2.02200	127
2.02567	128
2.02933	130
2.03300	130
2.03667	132
2.04033	135
2.04400	137
2.04767	138
2.05133	137
2.05500	135
2.05867	135
2.06233	137
2.06600	139
2.06967	141
2.07333	143
2.07700	144
2.08067	143
2.08433	143
2.08800	143
2.09167	145
2.09533	147
2.09900	149
2.10267	149
2.10633	149
2.11000	149
2.11367	150
2.11733	153
2.12100	155
2.12467	157
2.12833	159
2.13200	159
2.13567	158
2.13933	158
2.14300	160
2.14667	162
2.15033	162
2.15400	163
2.15767	164
2.16133	165
2.16500	166
2.16867	169
2.17233	170
2.17600	171
2.17967	171
2.18333	172
2.18700	175
2.19067	175
2.19433	174
2.19800	175
2.20167	176
2.20533	177
2.20900	177
2.21267	177
2.21633	177
2.22000	176
2.22367	176
2.22733	178
2.23100	181
2.23467	185
2.23833	189
2.24200	189
2.24567	188
2.24933	186
2.25300	185
2.25667	186
2.26033	189
2.26400	190
2.26767	192
2.27133	195
2.27500	198
2.27867	198
2.28233	198
2.28600	197
2.28967	196
2.29333	196
2.29700	198
2.30067	200
2.30433	200
2.30800	200
2.31167	199
2.31533	199
2.31900	200
2.32267	201
2.32633	201
2.33000	202
2.33367	205
2.33733	208
2.34100	209
2.34467	208
2.34833	207
2.35200	208
2.35567	209
2.35933	210
2.36300	213
2.36667	215
2.37033	216
2.37400	217
2.37767	216
2.38133	216
2.38500	214
2.38867	214
2.39233	214
2.39600	213
2.39967	208
2.40333	205
2.40700	206
2.41067	208
2.41433	210
2.41800	214
2.42167	220
2.42533	224
2.42900	227
2.43267	231
2.43633	232
2.44000	231
2.44367	234
2.44733	239
2.45100	244
2.45467	241
2.45833	234
2.46200	223
2.46567	211
2.46933	202
2.47300	193
2.47667	188
2.48033	183
2.48400	177
2.48767	170
2.49133	163
2.49500	155
2.49867	147
2.50233	142
2.50600	138
2.50967	134
2.51333	128
2.51700	123
2.52067	120
2.52433	116
2.52800	113
2.53167	110
2.53533	105
2.53900	99
2.54267	95
2.54633	93
2.55000	87
2.55367	81
2.55733	77
2.56100	75
2.56467	71
2.56833	59
2.57200	42
2.57567	37
2.57933	56
2.58300	97
2.58667	155
2.59033	222
2.59400	291
2.59767	358
2.60133	421
2.60500	475
2.60867	518
2.61233	550
2.61600	577
2.61967	599
2.62333	615
2.62700	628
2.63067	637
2.63433	645
2.63800	655
2.64167	665
2.64533	677
2.64900	692
2.65267	707
2.65633	722
2.66000	737
2.66367	752
2.66733	768
2.67100	781
2.67467	795
2.67833	807
2.68200	818
2.68567	827
2.68933	837
2.69300	845
2.69667	852
2.70033	859
2.70400	865
2.70767	870
2.71133	875
2.71500	880
2.71867	883
2.72233	884
2.72600	884
2.72967	884
2.73333	885
2.73700	886
2.74067	886
2.74433	886
2.74800	888
2.75167	886
2.75533	885
2.75900	885
2.76267	885
2.76633	886
2.77000	885
2.77367	884
2.77733	883
2.78100	887
2.78467	890
2.78833	890
2.79200	890
2.79567	889
2.79933	887
2.80300	883
2.80667	879
2.81033	876
2.81400	878
2.81767	882
2.82133	887
2.82500	893
2.82867	911
2.83233	952
2.83600	1032
2.83967	1173
2.84333	1401
2.84700	1731
2.85067	2171
2.85433	2704
2.85800	3303
2.86167	3926
2.86533	4523
2.86900	5050
2.87267	5464
2.87633	5734
2.88000	5851
2.88367	5825
2.88733	5676
2.89100	5428
2.89467	5114
2.89833	4763
2.90200	4400
2.90567	4035
2.90933	3680
2.91300	3348
2.91667	3043
2.92033	2767
2.92400	2517
2.92767	2295
2.93133	2099
2.93500	1926
2.93867	1773
2.94233	1640
2.94600	1525
2.94967	1424
2.95333	1335
2.95700	1257
2.96067	1190
2.96433	1134
2.96800	1085
2.97167	1041
2.97533	1001
2.97900	966
2.98267	936
2.98633	908
2.99000	885
2.99367	868
2.99733	854
3.00100	839
3.00467	824
3.00833	812
3.01200	802
3.01567	795
3.01933	789
3.02300	780
3.02667	774
3.03033	769
3.03400	765
3.03767	763
3.04133	759
3.04500	756
3.04867	751
3.05233	747
3.05600	744
3.05967	742
3.06333	740
3.06700	739
3.07067	736
3.07433	732
3.07800	728
3.08167	725
3.08533	722
3.08900	719
3.09267	717
3.09633	718
3.10000	720
3.10367	721
3.10733	718
3.11100	714
3.11467	712
3.11833	711
3.12200	710
3.12567	708
3.12933	707
3.13300	706
3.13667	704
3.14033	700
3.14400	698
3.14767	695
3.15133	695
3.15500	694
3.15867	693
3.16233	691
3.16600	688
3.16967	684
3.17333	681
3.17700	682
3.18067	682
3.18433	682
3.18800	681
3.19167	680
3.19533	679
3.19900	678
3.20267	676
3.20633	675
3.21000	672
3.21367	669
3.21733	667
3.22100	665
3.22467	664
3.22833	662
3.23200	659
3.23567	656
3.23933	655
3.24300	653
3.24667	652
3.25033	652
3.25400	653
3.25767	653
3.26133	650
3.26500	646
3.26867	642
3.27233	638
3.27600	638
3.27967	637
3.28333	637
3.28700	636
3.29067	634
3.29433	631
3.29800	627
3.30167	625
3.30533	622
3.30900	620
3.31267	617
3.31633	616
3.32000	614
3.32367	611
3.32733	609
3.33100	607
3.33467	604
3.33833	601
3.34200	599
3.34567	598
3.34933	597
3.35300	594
3.35667	590
3.36033	585
3.36400	583
3.36767	579
3.37133	576
3.37500	575
3.37867	574
3.38233	573
3.38600	571
3.38967	568
3.39333	565
3.39700	562
3.40067	560
3.40433	558
3.40800	558
3.41167	557
3.41533	556
3.41900	553
3.42267	551
3.42633	548
3.43000	543
3.43367	541
3.43733	539
3.44100	536
3.44467	533
3.44833	530
3.45200	528
3.45567	524
3.45933	520
3.46300	520
3.46667	521
3.47033	520
3.47400	518
3.47767	516
3.48133	513
3.48500	510
3.48867	508
3.49233	509
3.49600	507
3.49967	505
3.50333	503
3.50700	503
3.51067	504
3.51433	504
3.51800	499
3.52167	493
3.52533	488
3.52900	485
3.53267	484
3.53633	484
3.54000	482
3.54367	481
3.54733	479
3.55100	478
3.55467	476
3.55833	473
3.56200	470
3.56567	469
3.56933	469
3.57300	471
3.57667	472
3.58033	471
3.58400	468
3.58767	464
3.59133	462
3.59500	459
3.59867	456
3.60233	455
3.60600	455
3.60967	455
3.61333	453
3.61700	450
3.62067	448
3.62433	446
3.62800	442
3.63167	438
3.63533	434
3.63900	432
3.64267	431
3.64633	431
3.65000	430
3.65367	427
3.65733	424
3.66100	424
3.66467	423
3.66833	424
3.67200	425
3.67567	424
3.67933	423
3.68300	421
3.68667	418
3.69033	416
3.69400	413
3.69767	411
3.70133	412
3.70500	412
3.70867	409
3.71233	405
3.71600	402
3.71967	401
3.72333	399
3.72700	397
3.73067	396
3.73433	397
3.73800	399
3.74167	400
3.74533	400
3.74900	401
3.75267	400
3.75633	396
3.76000	391
3.76367	390
3.76733	387
3.77100	387
3.77467	388
3.77833	388
3.78200	387
3.78567	385
3.78933	384
3.79300	385
3.79667	385
3.80033	383
3.80400	381
3.80767	378
3.81133	378
3.81500	377
3.81867	377
3.82233	378
3.82600	377
3.82967	373
3.83333	370
3.83700	369
3.84067	370
3.84433	370
3.84800	369
3.85167	367
3.85533	366
3.85900	363
3.86267	361
3.86633	360
3.87000	359
3.87367	361
3.87733	363
3.88100	365
3.88467	365
3.88833	363
3.89200	361
3.89567	361
3.89933	360
3.90300	358
3.90667	357
3.91033	357
3.91400	354
3.91767	353
3.92133	350
3.92500	349
3.92867	347
3.93233	344
3.93600	341
3.93967	341
3.94333	342
3.94700	342
3.95067	343
3.95433	342
3.95800	339
3.96167	336
3.96533	335
3.96900	332
3.97267	331
3.97633	333
3.98000	334
3.98367	333
3.98733	331
3.99100	327
3.99467	325
3.99833	324

[Status Trace (Column Oven Temperature)]
Interval(msec)	1000
# of Points	240
Start Time(min)	0.014
End Time(min)	3.997
Intensity Units	
Intensity Multiplier	1
R.Time (min)	Intensity
0.01357	35.01
0.03023	35.01
0.04690	35.01
0.06357	35.01
0.08023	35.02
0.09690	35.03
0.11357	35.03
0.13023	35.03
0.14690	35.02
0.16357	35.02
0.18023	35.02
0.19690	35.00
0.21357	35.00
0.23023	35.00
0.24690	35.00
0.26357	35.00
0.28023	35.01
0.29690	35.01
0.31357	34.99
0.33023	34.99
0.34690	34.99
0.36357	34.99
0.38023	34.99
0.39690	34.99
0.41357	34.99
0.43023	34.98
0.44690	34.97
0.46357	34.97
0.48023	34.97
0.49690	34.96
0.51357	34.96
0.53023	34.96
0.54690	34.96
0.56357	34.98
0.58023	34.99
0.59690	34.99
0.61357	34.99
0.63023	34.99
0.64690	34.99
0.66357	34.99
0.68023	34.99
0.69690	34.98
0.71357	34.98
0.73023	34.97
0.74690	34.97
0.76357	34.98
0.78023	34.97
0.79690	34.98
0.81357	34.99
0.83023	34.99
0.84690	34.99
0.86357	35.00
0.88023	34.99
0.89690	34.99
0.91357	34.98
0.93023	34.98
0.94690	34.98
0.96357	34.98
0.98023	34.98
0.99690	34.99
1.01357	34.99
1.03023	35.00
1.04690	34.99
1.06357	34.99
1.08023	35.00
1.09690	35.00
1.11357	35.00
1.13023	35.00
1.14690	35.00
1.16357	35.00
1.18023	35.00
1.19690	35.00
1.21357	34.99
1.23023	34.98
1.24690	34.98
1.26357	34.97
1.28023	34.96
1.29690	34.97
1.31357	34.98
1.33023	34.98
1.34690	34.98
1.36357	34.99
1.38023	34.99
1.39690	34.98
1.41357	34.98
1.43023	34.98
1.44690	34.99
1.46357	34.99
1.48023	34.99
1.49690	35.00
1.51357	35.01
1.53023	35.01
1.54690	35.00
1.56357	35.00
1.58023	34.99
1.59690	35.01
1.61357	35.09
1.63023	35.23
1.64690	35.44
1.66357	35.72
1.68023	36.09
1.69690	36.45
1.71357	36.79
1.73023	37.13
1.74690	37.47
1.76357	37.80
1.78023	38.14
1.79690	38.45
1.81357	38.77
1.83023	39.11
1.84690	39.44
1.86357	39.77
1.88023	40.09
1.89690	40.42
1.91357	40.77
1.93023	41.08
1.94690	41.40
1.96357	41.72
1.98023	42.06
1.99690	42.38
2.01357	42.71
2.03023	43.04
2.04690	43.36
2.06357	43.69
2.08023	44.02
2.09690	44.34
2.11357	44.68
2.13023	45.01
2.14690	45.33
2.16357	45.65
2.18023	45.98
2.19690	46.32
2.21357	46.63
2.23023	46.98
2.24690	47.30
2.26357	47.62
2.28023	47.95
2.29690	48.30
2.31357	48.61
2.33023	48.95
2.34690	49.27
2.36357	49.55
2.38023	49.69
2.39690	49.72
2.41357	49.71
2.43023	49.73
2.44690	49.73
2.46357	49.74
2.48023	49.76
2.49690	49.79
2.51357	49.79
2.53023	49.79
2.54690	49.82
2.56357	49.83
2.58023	49.84
2.59690	49.84
2.61357	49.85
2.63023	49.85
2.64690	49.85
2.66357	49.86
2.68023	49.86
2.69690	49.85
2.71357	49.84
2.73023	49.86
2.74690	49.88
2.76357	49.88
2.78023	49.90
2.79690	49.91
2.81357	49.91
2.83023	49.92
2.84690	49.94
2.86357	49.95
2.88023	49.96
2.89690	49.98
2.91357	49.98
2.93023	49.98
2.94690	50.00
2.96357	50.00
2.98023	50.01
2.99690	50.02
3.01357	50.02
3.03023	50.04
3.04690	50.04
3.06357	50.05
3.08023	50.08
3.09690	50.09
3.11357	50.10
3.13023	50.11
3.14690	50.10
3.16357	50.09
3.18023	50.07
3.19690	50.07
3.21357	50.07
3.23023	50.07
3.24690	50.07
3.26357	50.06
3.28023	50.06
3.29690	50.05
3.31357	50.06
3.33023	50.05
3.34690	50.04
3.36357	50.05
3.38023	50.06
3.39690	50.05
3.41357	50.06
3.43023	50.06
3.44690	50.07
3.46357	50.07
3.48023	50.08
3.49690	50.09
3.51357	50.10
3.53023	50.10
3.54690	50.08
3.56357	50.07
3.58023	50.05
3.59690	50.05
3.61357	50.05
3.63023	50.05
3.64690	50.05
3.66357	50.06
3.68023	50.05
3.69690	50.06
3.71357	50.06
3.73023	50.06
3.74690	50.06
3.76357	50.05
3.78023	50.05
3.79690	50.05
3.81357	50.05
3.83023	50.05
3.84690	50.06
3.86357	50.07
3.88023	50.07
3.89690	50.06
3.91357	50.06
3.93023	50.07
3.94690	50.07
3.96357	50.07
3.98023	50.06
3.99690	50.06

[Status Trace (Injection Unit Temperature)]
Interval(msec)	1000
# of Points	240
Start Time(min)	0.014
End Time(min)	3.997
Intensity Units	
Intensity Multiplier	1
R.Time (min)	Intensity
0.01357	99.98
0.03023	99.98
0.04690	99.98
0.06357	99.98
0.08023	99.98
0.09690	99.99
0.11357	99.99
0.13023	99.98
0.14690	99.98
0.16357	99.98
0.18023	99.99
0.19690	99.98
0.21357	99.98
0.23023	99.99
0.24690	99.98
0.26357	99.98
0.28023	99.98
0.29690	99.99
0.31357	99.98
0.33023	99.98
0.34690	99.98
0.36357	99.99
0.38023	99.98
0.39690	99.98
0.41357	99.98
0.43023	99.99
0.44690	99.98
0.46357	99.98
0.48023	99.98
0.49690	99.98
0.51357	99.99
0.53023	99.98
0.54690	99.98
0.56357	99.99
0.58023	99.98
0.59690	99.98
0.61357	99.98
0.63023	99.98
0.64690	99.98
0.66357	99.98
0.68023	99.98
0.69690	99.98
0.71357	99.98
0.73023	99.98
0.74690	99.98
0.76357	99.98
0.78023	99.99
0.79690	99.99
0.81357	99.99
0.83023	99.98
0.84690	99.98
0.86357	99.98
0.88023	99.98
0.89690	99.98
0.91357	99.98
0.93023	99.99
0.94690	99.99
0.96357	99.98
0.98023	99.99
0.99690	99.98
1.01357	99.98
1.03023	99.99
1.04690	99.99
1.06357	99.99
1.08023	99.99
1.09690	99.99
1.11357	99.99
1.13023	99.99
1.14690	99.98
1.16357	99.99
1.18023	99.99
1.19690	99.98
1.21357	99.99
1.23023	99.99
1.24690	99.99
1.26357	99.99
1.28023	99.99
1.29690	99.99
1.31357	99.98
1.33023	99.99
1.34690	99.99
1.36357	99.99
1.38023	99.98
1.39690	99.99
1.41357	99.99
1.43023	99.99
1.44690	99.99
1.46357	99.99
1.48023	99.99
1.49690	99.99
1.51357	99.99
1.53023	99.99
1.54690	99.99
1.56357	99.99
1.58023	99.99
1.59690	99.99
1.61357	99.98
1.63023	99.99
1.64690	99.99
1.66357	99.98
1.68023	99.99
1.69690	99.99
1.71357	99.99
1.73023	99.99
1.74690	99.99
1.76357	99.98
1.78023	99.99
1.79690	99.98
1.81357	99.99
1.83023	99.98
1.84690	99.98
1.86357	99.98
1.88023	99.99
1.89690	99.99
1.91357	99.98
1.93023	99.98
1.94690	99.98
1.96357	99.98
1.98023	99.98
1.99690	99.98
2.01357	99.98
2.03023	99.98
2.04690	99.98
2.06357	99.98
2.08023	99.98
2.09690	99.98
2.11357	99.98
2.13023	99.98
2.14690	99.98
2.16357	99.98
2.18023	99.98
2.19690	99.98
2.21357	99.97
2.23023	99.97
2.24690	99.97
2.26357	99.97
2.28023	99.97
2.29690	99.97
2.31357	99.97
2.33023	99.97
2.34690	99.97
2.36357	99.97
2.38023	99.97
2.39690	99.97
2.41357	99.97
2.43023	99.97
2.44690	99.97
2.46357	99.97
2.48023	99.97
2.49690	99.98
2.51357	99.97
2.53023	99.97
2.54690	99.98
2.56357	99.97
2.58023	99.98
2.59690	99.98
2.61357	99.98
2.63023	99.98
2.64690	99.98
2.66357	99.98
2.68023	99.98
2.69690	99.99
2.71357	99.99
2.73023	99.99
2.74690	99.99
2.76357	99.99
2.78023	99.99
2.79690	99.99
2.81357	100.00
2.83023	100.00
2.84690	100.00
2.86357	99.99
2.88023	100.01
2.89690	100.01
2.91357	100.01
2.93023	100.01
2.94690	100.01
2.96357	100.01
2.98023	100.01
2.99690	100.01
3.01357	100.01
3.03023	100.02
3.04690	100.02
3.06357	100.02
3.08023	100.02
3.09690	100.02
3.11357	100.03
3.13023	100.02
3.14690	100.03
3.16357	100.03
3.18023	100.03
3.19690	100.03
3.21357	100.03
3.23023	100.04
3.24690	100.03
3.26357	100.04
3.28023	100.03
3.29690	100.03
3.31357	100.04
3.33023	100.04
3.34690	100.04
3.36357	100.04
3.38023	100.04
3.39690	100.04
3.41357	100.04
3.43023	100.04
3.44690	100.04
3.46357	100.05
3.48023	100.04
3.49690	100.05
3.51357	100.05
3.53023	100.04
3.54690	100.05
3.56357	100.05
3.58023	100.05
3.59690	100.05
3.61357	100.05
3.63023	100.05
3.64690	100.05
3.66357	100.05
3.68023	100.05
3.69690	100.05
3.71357	100.05
3.73023	100.05
3.74690	100.05
3.76357	100.05
3.78023	100.05
3.79690	100.05
3.81357	100.05
3.83023	100.05
3.84690	100.05
3.86357	100.05
3.88023	100.05
3.89690	100.05
3.91357	100.05
3.93023	100.05
3.94690	100.05
3.96357	100.05
3.98023	100.05
3.99690	100.05

[Status Trace (Carrier Gas Pressure)]
Interval(msec)	1000
# of Points	240
Start Time(min)	0.014
End Time(min)	3.997
Intensity Units	
Intensity Multiplier	1
R.Time (min)	Intensity
0.01357	57.82
0.03023	55.34
0.04690	57.76
0.06357	59.76
0.08023	58.81
0.09690	57.99
0.11357	57.99
0.13023	58.01
0.14690	58.01
0.16357	58.00
0.18023	58.00
0.19690	58.00
0.21357	58.00
0.23023	58.00
0.24690	58.00
0.26357	58.00
0.28023	58.00
0.29690	58.00
0.31357	58.00
0.33023	58.00
0.34690	58.00
0.36357	58.00
0.38023	58.00
0.39690	58.00
0.41357	58.00
0.43023	58.00
0.44690	58.00
0.46357	58.00
0.48023	58.00
0.49690	58.00
0.51357	58.00
0.53023	58.00
0.54690	58.00
0.56357	58.00
0.58023	58.00
0.59690	58.00
0.61357	58.00
0.63023	58.00
0.64690	58.00
0.66357	58.00
0.68023	58.00
0.69690	58.00
0.71357	58.00
0.73023	58.00
0.74690	58.00
0.76357	58.00
0.78023	58.00
0.79690	58.00
0.81357	58.00
0.83023	58.00
0.84690	58.00
0.86357	58.00
0.88023	58.00
0.89690	58.00
0.91357	58.00
0.93023	58.00
0.94690	58.00
0.96357	58.00
0.98023	58.00
0.99690	58.00
1.01357	58.00
1.03023	58.00
1.04690	58.00
1.06357	58.00
1.08023	58.00
1.09690	58.00
1.11357	58.00
1.13023	58.00
1.14690	58.00
1.16357	58.00
1.18023	58.00
1.19690	58.00
1.21357	58.00
1.23023	58.00
1.24690	58.00
1.26357	58.00
1.28023	58.00
1.29690	58.00
1.31357	58.00
1.33023	58.00
1.34690	58.00
1.36357	58.00
1.38023	58.00
1.39690	58.00
1.41357	58.00
1.43023	58.00
1.44690	58.00
1.46357	58.00
1.48023	58.00
1.49690	58.00
1.51357	58.00
1.53023	58.00
1.54690	58.00
1.56357	58.00
1.58023	58.00
1.59690	58.00
1.61357	58.00
1.63023	58.01
1.64690	58.00
1.66357	58.00
1.68023	58.01
1.69690	58.00
1.71357	58.00
1.73023	58.00
1.74690	58.00
1.76357	58.00
1.78023	58.00
1.79690	58.00
1.81357	58.00
1.83023	58.00
1.84690	58.00
1.86357	58.00
1.88023	58.00
1.89690	58.00
1.91357	58.00
1.93023	58.00
1.94690	58.00
1.96357	58.00
1.98023	58.00
1.99690	58.00
2.01357	58.00
2.03023	58.00
2.04690	58.00
2.06357	58.00
2.08023	58.00
2.09690	58.00
2.11357	58.00
2.13023	58.00
2.14690	58.00
2.16357	58.00
2.18023	58.00
2.19690	58.00
2.21357	58.00
2.23023	58.00
2.24690	58.00
2.26357	58.00
2.28023	58.00
2.29690	58.00
2.31357	58.00
2.33023	58.00
2.34690	58.00
2.36357	58.00
2.38023	57.99
2.39690	57.99
2.41357	58.00
2.43023	58.00
2.44690	58.00
2.46357	58.00
2.48023	58.00
2.49690	58.00
2.51357	57.99
2.53023	57.99
2.54690	58.00
2.56357	58.00
2.58023	58.00
2.59690	58.00
2.61357	58.00
2.63023	58.00
2.64690	58.00
2.66357	58.00
2.68023	58.00
2.69690	58.00
2.71357	58.00
2.73023	58.00
2.74690	58.00
2.76357	58.00
2.78023	58.00
2.79690	58.00
2.81357	58.00
2.83023	58.00
2.84690	58.00
2.86357	58.00
2.88023	58.00
2.89690	58.00
2.91357	58.00
2.93023	58.00
2.94690	58.00
2.96357	58.00
2.98023	58.00
2.99690	58.00
3.01357	58.00
3.03023	58.00
3.04690	58.00
3.06357	58.00
3.08023	58.00
3.09690	58.00
3.11357	58.00
3.13023	58.00
3.14690	58.00
3.16357	58.00
3.18023	58.00
3.19690	58.00
3.21357	58.00
3.23023	58.00
3.24690	58.00
3.26357	58.00
3.28023	58.00
3.29690	58.00
3.31357	58.00
3.33023	58.00
3.34690	58.00
3.36357	58.00
3.38023	58.00
3.39690	58.00
3.41357	58.00
3.43023	58.00
3.44690	58.00
3.46357	58.00
3.48023	58.00
3.49690	58.00
3.51357	58.00
3.53023	58.00
3.54690	58.00
3.56357	58.00
3.58023	58.00
3.59690	58.00
3.61357	58.00
3.63023	58.00
3.64690	58.00
3.66357	58.00
3.68023	58.00
3.69690	58.00
3.71357	58.00
3.73023	58.00
3.74690	58.00
3.76357	58.00
3.78023	58.00
3.79690	58.00
3.81357	58.00
3.83023	58.00
3.84690	58.00
3.86357	58.00
3.88023	58.00
3.89690	58.00
3.91357	58.00
3.93023	58.00
3.94690	58.00
3.96357	58.00
3.98023	58.00
3.99690	58.00

[Status Trace (Carrier Gas Flow)]
Interval(msec)	1000
# of Points	240
Start Time(min)	0.014
End Time(min)	3.997
Intensity Units	
Intensity Multiplier	1
R.Time (min)	Intensity
0.01357	34.56
0.03023	34.54
0.04690	34.54
0.06357	34.53
0.08023	34.50
0.09690	34.52
0.11357	34.52
0.13023	34.52
0.14690	34.52
0.16357	34.52
0.18023	34.52
0.19690	34.52
0.21357	34.52
0.23023	34.52
0.24690	34.52
0.26357	34.52
0.28023	34.52
0.29690	34.52
0.31357	34.52
0.33023	34.52
0.34690	34.52
0.36357	34.52
0.38023	34.52
0.39690	34.52
0.41357	34.52
0.43023	34.52
0.44690	34.52
0.46357	34.52
0.48023	34.52
0.49690	34.52
0.51357	34.52
0.53023	34.52
0.54690	34.52
0.56357	34.52
0.58023	34.52
0.59690	34.52
0.61357	34.52
0.63023	34.52
0.64690	34.52
0.66357	34.52
0.68023	34.52
0.69690	34.52
0.71357	34.52
0.73023	34.52
0.74690	34.52
0.76357	34.52
0.78023	34.52
0.79690	34.52
0.81357	34.52
0.83023	34.52
0.84690	34.52
0.86357	34.52
0.88023	34.52
0.89690	34.52
0.91357	34.52
0.93023	34.52
0.94690	34.52
0.96357	34.52
0.98023	34.52
0.99690	34.52
1.01357	34.52
1.03023	34.52
1.04690	34.52
1.06357	34.52
1.08023	34.52
1.09690	34.52
1.11357	34.52
1.13023	34.52
1.14690	34.52
1.16357	34.52
1.18023	34.52
1.19690	34.52
1.21357	34.52
1.23023	34.52
1.24690	34.52
1.26357	34.52
1.28023	34.52
1.29690	34.52
1.31357	34.52
1.33023	34.52
1.34690	34.52
1.36357	34.52
1.38023	34.52
1.39690	34.52
1.41357	34.52
1.43023	34.52
1.44690	34.52
1.46357	34.52
1.48023	34.52
1.49690	34.52
1.51357	34.52
1.53023	34.52
1.54690	34.52
1.56357	34.52
1.58023	34.52
1.59690	34.52
1.61357	34.52
1.63023	34.52
1.64690	34.52
1.66357	34.52
1.68023	34.52
1.69690	34.52
1.71357	34.52
1.73023	34.52
1.74690	34.52
1.76357	34.52
1.78023	34.52
1.79690	34.52
1.81357	34.52
1.83023	34.52
1.84690	34.52
1.86357	34.52
1.88023	34.52
1.89690	34.52
1.91357	34.52
1.93023	34.52
1.94690	34.52
1.96357	34.52
1.98023	34.52
1.99690	34.52
2.01357	34.52
2.03023	34.52
2.04690	34.52
2.06357	34.52
2.08023	34.52
2.09690	34.52
2.11357	34.52
2.13023	34.52
2.14690	34.52
2.16357	34.52
2.18023	34.52
2.19690	34.52
2.21357	34.52
2.23023	34.52
2.24690	34.52
2.26357	34.52
2.28023	34.52
2.29690	34.52
2.31357	34.52
2.33023	34.52
2.34690	34.52
2.36357	34.52
2.38023	34.52
2.39690	34.52
2.41357	34.52
2.43023	34.52
2.44690	34.52
2.46357	34.52
2.48023	34.52
2.49690	34.52
2.51357	34.52
2.53023	34.52
2.54690	34.52
2.56357	34.52
2.58023	34.52
2.59690	34.52
2.61357	34.52
2.63023	34.52
2.64690	34.52
2.66357	34.52
2.68023	34.52
2.69690	34.52
2.71357	34.52
2.73023	34.52
2.74690	34.52
2.76357	34.52
2.78023	34.52
2.79690	34.52
2.81357	34.52
2.83023	34.52
2.84690	34.52
2.86357	34.52
2.88023	34.52
2.89690	34.52
2.91357	34.52
2.93023	34.52
2.94690	34.52
2.96357	34.52
2.98023	34.52
2.99690	34.52
3.01357	34.52
3.03023	34.52
3.04690	34.52
3.06357	34.52
3.08023	34.52
3.09690	34.52
3.11357	34.52
3.13023	34.52
3.14690	34.52
3.16357	34.52
3.18023	34.52
3.19690	34.52
3.21357	34.52
3.23023	34.52
3.24690	34.52
3.26357	34.52
3.28023	34.52
3.29690	34.52
3.31357	34.52
3.33023	34.52
3.34690	34.52
3.36357	34.52
3.38023	34.52
3.39690	34.52
3.41357	34.52
3.43023	34.52
3.44690	34.52
3.46357	34.52
3.48023	34.52
3.49690	34.52
3.51357	34.52
3.53023	34.52
3.54690	34.52
3.56357	34.52
3.58023	34.52
3.59690	34.52
3.61357	34.52
3.63023	34.52
3.64690	34.52
3.66357	34.52
3.68023	34.52
3.69690	34.52
3.71357	34.52
3.73023	34.52
3.74690	34.52
3.76357	34.52
3.78023	34.52
3.79690	34.53
3.81357	34.51
3.83023	34.52
3.84690	34.52
3.86357	34.52
3.88023	34.51
3.89690	34.52
3.91357	34.53
3.93023	34.51
3.94690	34.53
3.96357	34.50
3.98023	34.53
3.99690	34.52

[Status Trace (Column Flow)]
Interval(msec)	1000
# of Points	240
Start Time(min)	0.014
End Time(min)	3.997
Intensity Units	
Intensity Multiplier	1
R.Time (min)	Intensity
0.01357	5.50
0.03023	5.21
0.04690	5.49
0.06357	5.73
0.08023	5.61
0.09690	5.52
0.11357	5.52
0.13023	5.52
0.14690	5.52
0.16357	5.52
0.18023	5.52
0.19690	5.52
0.21357	5.52
0.23023	5.52
0.24690	5.52
0.26357	5.52
0.28023	5.52
0.29690	5.52
0.31357	5.52
0.33023	5.52
0.34690	5.52
0.36357	5.52
0.38023	5.52
0.39690	5.52
0.41357	5.52
0.43023	5.52
0.44690	5.52
0.46357	5.52
0.48023	5.52
0.49690	5.52
0.51357	5.52
0.53023	5.52
0.54690	5.52
0.56357	5.52
0.58023	5.52
0.59690	5.52
0.61357	5.52
0.63023	5.52
0.64690	5.52
0.66357	5.52
0.68023	5.52
0.69690	5.52
0.71357	5.52
0.73023	5.52
0.74690	5.52
0.76357	5.52
0.78023	5.52
0.79690	5.52
0.81357	5.52
0.83023	5.52
0.84690	5.52
0.86357	5.52
0.88023	5.52
0.89690	5.52
0.91357	5.52
0.93023	5.52
0.94690	5.52
0.96357	5.52
0.98023	5.52
0.99690	5.52
1.01357	5.52
1.03023	5.52
1.04690	5.52
1.06357	5.52
1.08023	5.52
1.09690	5.52
1.11357	5.52
1.13023	5.52
1.14690	5.52
1.16357	5.52
1.18023	5.52
1.19690	5.52
1.21357	5.52
1.23023	5.52
1.24690	5.52
1.26357	5.52
1.28023	5.52
1.29690	5.52
1.31357	5.52
1.33023	5.52
1.34690	5.52
1.36357	5.52
1.38023	5.52
1.39690	5.52
1.41357	5.52
1.43023	5.52
1.44690	5.52
1.46357	5.52
1.48023	5.52
1.49690	5.52
1.51357	5.52
1.53023	5.52
1.54690	5.52
1.56357	5.52
1.58023	5.52
1.59690	5.52
1.61357	5.52
1.63023	5.51
1.64690	5.51
1.66357	5.50
1.68023	5.49
1.69690	5.48
1.71357	5.47
1.73023	5.45
1.74690	5.44
1.76357	5.43
1.78023	5.42
1.79690	5.41
1.81357	5.40
1.83023	5.39
1.84690	5.38
1.86357	5.37
1.88023	5.36
1.89690	5.35
1.91357	5.34
1.93023	5.33
1.94690	5.32
1.96357	5.31
1.98023	5.30
1.99690	5.30
2.01357	5.29
2.03023	5.28
2.04690	5.27
2.06357	5.26
2.08023	5.25
2.09690	5.24
2.11357	5.23
2.13023	5.22
2.14690	5.21
2.16357	5.20
2.18023	5.19
2.19690	5.18
2.21357	5.17
2.23023	5.16
2.24690	5.15
2.26357	5.14
2.28023	5.13
2.29690	5.13
2.31357	5.12
2.33023	5.11
2.34690	5.10
2.36357	5.09
2.38023	5.08
2.39690	5.08
2.41357	5.08
2.43023	5.08
2.44690	5.08
2.46357	5.08
2.48023	5.08
2.49690	5.08
2.51357	5.08
2.53023	5.08
2.54690	5.08
2.56357	5.08
2.58023	5.08
2.59690	5.08
2.61357	5.08
2.63023	5.08
2.64690	5.08
2.66357	5.08
2.68023	5.08
2.69690	5.08
2.71357	5.08
2.73023	5.08
2.74690	5.08
2.76357	5.08
2.78023	5.08
2.79690	5.08
2.81357	5.08
2.83023	5.08
2.84690	5.08
2.86357	5.08
2.88023	5.08
2.89690	5.08
2.91357	5.08
2.93023	5.08
2.94690	5.08
2.96357	5.08
2.98023	5.08
2.99690	5.08
3.01357	5.08
3.03023	5.08
3.04690	5.08
3.06357	5.08
3.08023	5.07
3.09690	5.07
3.11357	5.07
3.13023	5.07
3.14690	5.07
3.16357	5.07
3.18023	5.07
3.19690	5.07
3.21357	5.07
3.23023	5.07
3.24690	5.07
3.26357	5.08
3.28023	5.08
3.29690	5.08
3.31357	5.08
3.33023	5.08
3.34690	5.08
3.36357	5.08
3.38023	5.08
3.39690	5.08
3.41357	5.08
3.43023	5.07
3.44690	5.07
3.46357	5.07
3.48023	5.07
3.49690	5.07
3.51357	5.07
3.53023	5.07
3.54690	5.07
3.56357	5.07
3.58023	5.08
3.59690	5.07
3.61357	5.07
3.63023	5.08
3.64690	5.07
3.66357	5.07
3.68023	5.07
3.69690	5.07
3.71357	5.07
3.73023	5.07
3.74690	5.07
3.76357	5.08
3.78023	5.08
3.79690	5.08
3.81357	5.08
3.83023	5.08
3.84690	5.08
3.86357	5.07
3.88023	5.07
3.89690	5.07
3.91357	5.08
3.93023	5.07
3.94690	5.07
3.96357	5.07
3.98023	5.08
3.99690	5.07

[Status Trace (Linear Velocity)]
Interval(msec)	1000
# of Points	240
Start Time(min)	0.014
End Time(min)	3.997
Intensity Units	
Intensity Multiplier	1
R.Time (min)	Intensity
0.01357	38.90
0.03023	37.27
0.04690	38.86
0.06357	40.17
0.08023	39.54
0.09690	39.01
0.11357	39.01
0.13023	39.02
0.14690	39.02
0.16357	39.02
0.18023	39.02
0.19690	39.02
0.21357	39.02
0.23023	39.02
0.24690	39.02
0.26357	39.02
0.28023	39.02
0.29690	39.02
0.31357	39.02
0.33023	39.02
0.34690	39.02
0.36357	39.02
0.38023	39.02
0.39690	39.02
0.41357	39.02
0.43023	39.02
0.44690	39.02
0.46357	39.02
0.48023	39.02
0.49690	39.02
0.51357	39.02
0.53023	39.02
0.54690	39.02
0.56357	39.02
0.58023	39.02
0.59690	39.02
0.61357	39.02
0.63023	39.02
0.64690	39.02
0.66357	39.02
0.68023	39.02
0.69690	39.02
0.71357	39.02
0.73023	39.02
0.74690	39.02
0.76357	39.02
0.78023	39.02
0.79690	39.02
0.81357	39.02
0.83023	39.02
0.84690	39.02
0.86357	39.02
0.88023	39.02
0.89690	39.02
0.91357	39.02
0.93023	39.02
0.94690	39.02
0.96357	39.02
0.98023	39.02
0.99690	39.02
1.01357	39.02
1.03023	39.02
1.04690	39.02
1.06357	39.02
1.08023	39.02
1.09690	39.02
1.11357	39.02
1.13023	39.02
1.14690	39.02
1.16357	39.02
1.18023	39.02
1.19690	39.02
1.21357	39.02
1.23023	39.02
1.24690	39.02
1.26357	39.02
1.28023	39.02
1.29690	39.02
1.31357	39.02
1.33023	39.02
1.34690	39.02
1.36357	39.02
1.38023	39.02
1.39690	39.02
1.41357	39.02
1.43023	39.02
1.44690	39.02
1.46357	39.02
1.48023	39.02
1.49690	39.02
1.51357	39.02
1.53023	39.02
1.54690	39.02
1.56357	39.02
1.58023	39.02
1.59690	39.02
1.61357	39.01
1.63023	39.00
1.64690	38.98
1.66357	38.95
1.68023	38.92
1.69690	38.88
1.71357	38.85
1.73023	38.81
1.74690	38.78
1.76357	38.75
1.78023	38.72
1.79690	38.69
1.81357	38.66
1.83023	38.63
1.84690	38.60
1.86357	38.57
1.88023	38.53
1.89690	38.50
1.91357	38.47
1.93023	38.44
1.94690	38.41
1.96357	38.38
1.98023	38.35
1.99690	38.32
2.01357	38.29
2.03023	38.26
2.04690	38.23
2.06357	38.20
2.08023	38.17
2.09690	38.14
2.11357	38.11
2.13023	38.08
2.14690	38.05
2.16357	38.02
2.18023	37.99
2.19690	37.96
2.21357	37.94
2.23023	37.90
2.24690	37.88
2.26357	37.85
2.28023	37.81
2.29690	37.79
2.31357	37.76
2.33023	37.73
2.34690	37.70
2.36357	37.67
2.38023	37.66
2.39690	37.65
2.41357	37.65
2.43023	37.66
2.44690	37.65
2.46357	37.65
2.48023	37.65
2.49690	37.65
2.51357	37.64
2.53023	37.64
2.54690	37.65
2.56357	37.65
2.58023	37.65
2.59690	37.65
2.61357	37.65
2.63023	37.64
2.64690	37.65
2.66357	37.65
2.68023	37.64
2.69690	37.64
2.71357	37.65
2.73023	37.65
2.74690	37.64
2.76357	37.64
2.78023	37.64
2.79690	37.64
2.81357	37.64
2.83023	37.64
2.84690	37.64
2.86357	37.64
2.88023	37.64
2.89690	37.63
2.91357	37.63
2.93023	37.63
2.94690	37.63
2.96357	37.63
2.98023	37.63
2.99690	37.63
3.01357	37.63
3.03023	37.63
3.04690	37.63
3.06357	37.63
3.08023	37.63
3.09690	37.62
3.11357	37.62
3.13023	37.62
3.14690	37.62
3.16357	37.62
3.18023	37.63
3.19690	37.63
3.21357	37.63
3.23023	37.63
3.24690	37.63
3.26357	37.63
3.28023	37.63
3.29690	37.63
3.31357	37.63
3.33023	37.63
3.34690	37.63
3.36357	37.63
3.38023	37.63
3.39690	37.63
3.41357	37.63
3.43023	37.63
3.44690	37.63
3.46357	37.63
3.48023	37.63
3.49690	37.62
3.51357	37.62
3.53023	37.62
3.54690	37.62
3.56357	37.63
3.58023	37.63
3.59690	37.63
3.61357	37.63
3.63023	37.63
3.64690	37.63
3.66357	37.63
3.68023	37.63
3.69690	37.63
3.71357	37.63
3.73023	37.63
3.74690	37.63
3.76357	37.63
3.78023	37.63
3.79690	37.63
3.81357	37.63
3.83023	37.63
3.84690	37.63
3.86357	37.63
3.88023	37.63
3.89690	37.63
3.91357	37.63
3.93023	37.63
3.94690	37.63
3.96357	37.63
3.98023	37.63
3.99690	37.63

