[Header]
Application Name	LabSolutions
Version	5.110
Data File Name	C:\Users\User\Desktop\GC Analyses\Jack\UIC Prairie Sampling\7.9.22\220909_084.gcd
Output Date	9/28/2022
Output Time	11:29:54 AM

[File Information]
Type	Data File
Generated	9/15/2022 2:41:00 PM
Generated by	System Administrator
Modified	9/15/2022 2:46:25 PM
Modified by	System Administrator

[Sample Information]
Operator Name	System Administrator
Acquired	9/15/2022 2:42:24 PM
Sample Type	1:Standard
Level	1
Sample Name	220909_Run
Sample ID	220909_Run
ISTD Amount1	1
ISTD Amount2	1
ISTD Amount3	1
ISTD Amount4	1
ISTD Amount5	1
ISTD Amount6	1
ISTD Amount7	1
ISTD Amount8	1
ISTD Amount9	1
ISTD Amount10	1
ISTD Amount11	1
ISTD Amount12	1
ISTD Amount13	1
ISTD Amount14	1
ISTD Amount15	1
ISTD Amount16	1
ISTD Amount17	1
ISTD Amount18	1
ISTD Amount19	1
ISTD Amount20	1
ISTD Amount21	1
ISTD Amount22	1
ISTD Amount23	1
ISTD Amount24	1
ISTD Amount25	1
ISTD Amount26	1
ISTD Amount27	1
ISTD Amount28	1
ISTD Amount29	1
ISTD Amount30	1
ISTD Amount31	1
ISTD Amount32	1
Sample Amount	1
Dilution Factor	1
Vial#	1
Injection Volume	1
Injection Count	1
Bar Code	

[Original Files]
Data File	C:\Users\User\Desktop\GC Analyses\Jack\220909\220909_084.gcd
Method File	C:\LabSolutions\Data\GHG_4min_2022\ghg3_togas_w_acet_4 min_new_int.gcm
Batch File	
Report Format File	c:\LabSolutions\System\DEFAULT.lsr

[File Description]


[Configuration]
Instrument Name	C0B7VH3-Instrument1
Instrument #	1
Line #	1
# of Detectors	3
Detector ID	DET#1	DET#2	DET#3
Detector Name	FID	PTCD	ECD
# of Channels	1	1	1

[Peak Table(Ch1)]
# of Peaks	3
Peak#	R.Time	I.Time	F.Time	Area	Height	A/H	Conc.	Mark	ID#	Name	k'	Plate #	Plate Ht.	Tailing	Resolution	Sep.Factor	Area Ratio	Height Ratio	Conc. %	Norm Conc.
1	1.476	1.435	1.538	16376	7305	2.242	100.000	   	1	CO	0.000	8225	18.236	1.171	0.000	0.000	0	0	16.667	16.667
2	1.567	1.538	1.633	4469	2250	1.986	100.000	 V 	2	CH4	0.062	11452	13.098	1.225	1.482	0.000	0	0	16.667	16.667
3	1.996	1.949	2.293	2941190	1449493	2.029	400.000	   	3	CO2	0.353	17693	8.478	1.240	7.233	5.680	0	0	66.667	66.667

[Peak Table(Ch2)]
# of Peaks	0

[Peak Table(Ch3)]
# of Peaks	2
Peak#	R.Time	I.Time	F.Time	Area	Height	A/H	Conc.	Mark	ID#	Name	k'	Plate #	Plate Ht.	Tailing	Resolution	Sep.Factor	Area Ratio	Height Ratio	Conc. %	Norm Conc.
1	2.583	1.655	2.656	10407	821	12.669	0.000	   			0.000	2225	67.423	0.000	0.000	0.000	0	0	0.000	0.000
2	2.880	2.656	3.760	42535	5876	7.238	1.000	 V 	1	N2O	0.115	10988	13.652	0.000	1.806	0.000	0	0	100.000	100.000

[Compound Results(Ch1)]
# of IDs	6
ID#	Name	R.Time	Area	Height	Conc.	Curve	3rd	2nd	1st	Constant	Area Ratio	Height Ratio	Conc. %	Norm Conc.
1	CO	1.476	16376	7305	100.000	Linear	0.000000e+00	0.000000e+00	1.637572e+002	0.000000e+00	0	0	16.667	16.667
2	CH4	1.567	4469	2250	100.000	Linear	0.000000e+00	0.000000e+00	4.468890e+001	0.000000e+00	0	0	16.667	16.667
3	CO2	1.996	2941190	1449493	400.000	Linear	0.000000e+00	0.000000e+00	7.352975e+003	0.000000e+00	0	0	66.667	66.667
4	Ethylene	0.000	0	0	0.000	Linear	0.000000e+00	0.000000e+00	0.000000e+00	0.000000e+00	0	0	0.000	0.000
5	Acetylene	0.000	0	0	0.000	Linear	0.000000e+00	0.000000e+00	0.000000e+00	0.000000e+00	0	0	0.000	0.000
6	Ethane	0.000	0	0	0.000	Linear	0.000000e+00	0.000000e+00	0.000000e+00	0.000000e+00	0	0	0.000	0.000

[Compound Results(Ch2)]
# of IDs	5
ID#	Name	R.Time	Area	Height	Conc.	Curve	3rd	2nd	1st	Constant	Area Ratio	Height Ratio	Conc. %	Norm Conc.
1	Hydrogen	0.000	0	0	0.000	Linear	0.000000e+00	0.000000e+00	0.000000e+00	0.000000e+00	0	0	0.000	0.000
2	Oxygen	0.000	0	0	0.000	Linear	0.000000e+00	0.000000e+00	0.000000e+00	0.000000e+00	0	0	0.000	0.000
3	Nitrogen	0.000	0	0	0.000	Linear	0.000000e+00	0.000000e+00	0.000000e+00	0.000000e+00	0	0	0.000	0.000
4	Methane	0.000	0	0	0.000	Linear	0.000000e+00	0.000000e+00	0.000000e+00	0.000000e+00	0	0	0.000	0.000
5	Carbon Monoxide	0.000	0	0	0.000	Linear	0.000000e+00	0.000000e+00	0.000000e+00	0.000000e+00	0	0	0.000	0.000

[Compound Results(Ch3)]
# of IDs	2
ID#	Name	R.Time	Area	Height	Conc.	Curve	3rd	2nd	1st	Constant	Area Ratio	Height Ratio	Conc. %	Norm Conc.
1	N2O	2.880	42535	5876	1.000	Linear	0.000000e+00	0.000000e+00	4.253465e+004	0.000000e+00	0	0	100.000	100.000
2	SF6	0.000	0	0	0.000	Linear	0.000000e+00	0.000000e+00	0.000000e+00	0.000000e+00	0	0	0.000	0.000

[Group Results(Ch1)]
# of Groups	0

[Group Results(Ch2)]
# of Groups	0

[Group Results(Ch3)]
# of Groups	0

[Chromatogram (Ch1)]
Interval(msec)	220
# of Points	1091
Start Time(min)	0.002
End Time(min)	3.998
R.Time (min)	Intensity
0.00167	3
0.00533	6
0.00900	4
0.01267	-1
0.01633	-3
0.02000	-2
0.02367	-2
0.02733	-2
0.03100	-5
0.03467	-13
0.03833	-22
0.04200	-28
0.04567	-28
0.04933	-24
0.05300	-19
0.05667	-15
0.06033	-11
0.06400	-6
0.06767	3
0.07133	10
0.07500	16
0.07867	17
0.08233	10
0.08600	-0
0.08967	-7
0.09333	-8
0.09700	-4
0.10067	-2
0.10433	-5
0.10800	-9
0.11167	-11
0.11533	-10
0.11900	-8
0.12267	-4
0.12633	-1
0.13000	-3
0.13367	-10
0.13733	-13
0.14100	-9
0.14467	-4
0.14833	-1
0.15200	-2
0.15567	-6
0.15933	-11
0.16300	-16
0.16667	-20
0.17033	-23
0.17400	-19
0.17767	-9
0.18133	-0
0.18500	4
0.18867	4
0.19233	-2
0.19600	-12
0.19967	-21
0.20333	-25
0.20700	-27
0.21067	-30
0.21433	-31
0.21800	-30
0.22167	-28
0.22533	-26
0.22900	-25
0.23267	-28
0.23633	-32
0.24000	-32
0.24367	-27
0.24733	-23
0.25100	-19
0.25467	-16
0.25833	-13
0.26200	-14
0.26567	-18
0.26933	-24
0.27300	-26
0.27667	-26
0.28033	-22
0.28400	-16
0.28767	-10
0.29133	-9
0.29500	-11
0.29867	-14
0.30233	-16
0.30600	-15
0.30967	-13
0.31333	-15
0.31700	-19
0.32067	-27
0.32433	-32
0.32800	-34
0.33167	-34
0.33533	-34
0.33900	-31
0.34267	-22
0.34633	-13
0.35000	-7
0.35367	-6
0.35733	-10
0.36100	-15
0.36467	-22
0.36833	-27
0.37200	-29
0.37567	-30
0.37933	-31
0.38300	-33
0.38667	-33
0.39033	-32
0.39400	-31
0.39767	-32
0.40133	-32
0.40500	-29
0.40867	-21
0.41233	-12
0.41600	-8
0.41967	-7
0.42333	-10
0.42700	-12
0.43067	-18
0.43433	-24
0.43800	-31
0.44167	-39
0.44533	-47
0.44900	-48
0.45267	-46
0.45633	-45
0.46000	-39
0.46367	-33
0.46733	-28
0.47100	-25
0.47467	-24
0.47833	-29
0.48200	-37
0.48567	-42
0.48933	-39
0.49300	-38
0.49667	-41
0.50033	-43
0.50400	-46
0.50767	-43
0.51133	-38
0.51500	-35
0.51867	-32
0.52233	-29
0.52600	-24
0.52967	-19
0.53333	-18
0.53700	-22
0.54067	-31
0.54433	-39
0.54800	-43
0.55167	-39
0.55533	-37
0.55900	-42
0.56267	-53
0.56633	-68
0.57000	-79
0.57367	-82
0.57733	-78
0.58100	-73
0.58467	-66
0.58833	-63
0.59200	-63
0.59567	-63
0.59933	-64
0.60300	-60
0.60667	-54
0.61033	-47
0.61400	-42
0.61767	-41
0.62133	-45
0.62500	-48
0.62867	-46
0.63233	-42
0.63600	-39
0.63967	-35
0.64333	-35
0.64700	-40
0.65067	-50
0.65433	-59
0.65800	-61
0.66167	-57
0.66533	-48
0.66900	-38
0.67267	-32
0.67633	-31
0.68000	-35
0.68367	-42
0.68733	-49
0.69100	-55
0.69467	-58
0.69833	-59
0.70200	-57
0.70567	-55
0.70933	-53
0.71300	-53
0.71667	-55
0.72033	-54
0.72400	-50
0.72767	-45
0.73133	-40
0.73500	-36
0.73867	-35
0.74233	-35
0.74600	-34
0.74967	-36
0.75333	-41
0.75700	-45
0.76067	-47
0.76433	-49
0.76800	-49
0.77167	-49
0.77533	-51
0.77900	-55
0.78267	-58
0.78633	-60
0.79000	-61
0.79367	-58
0.79733	-58
0.80100	-57
0.80467	-55
0.80833	-53
0.81200	-55
0.81567	-55
0.81933	-52
0.82300	-48
0.82667	-46
0.83033	-47
0.83400	-49
0.83767	-51
0.84133	-53
0.84500	-53
0.84867	-51
0.85233	-50
0.85600	-48
0.85967	-45
0.86333	-46
0.86700	-51
0.87067	-55
0.87433	-56
0.87800	-55
0.88167	-52
0.88533	-50
0.88900	-50
0.89267	-50
0.89633	-52
0.90000	-54
0.90367	-58
0.90733	-61
0.91100	-62
0.91467	-61
0.91833	-58
0.92200	-54
0.92567	-54
0.92933	-57
0.93300	-61
0.93667	-65
0.94033	-66
0.94400	-63
0.94767	-61
0.95133	-60
0.95500	-60
0.95867	-59
0.96233	-59
0.96600	-61
0.96967	-65
0.97333	-67
0.97700	-67
0.98067	-67
0.98433	-65
0.98800	-63
0.99167	-61
0.99533	-60
0.99900	-59
1.00267	-60
1.00633	-61
1.01000	-57
1.01367	-51
1.01733	-47
1.02100	-50
1.02467	-59
1.02833	-66
1.03200	-69
1.03567	-70
1.03933	-67
1.04300	-62
1.04667	-60
1.05033	-63
1.05400	-71
1.05767	-81
1.06133	-84
1.06500	-83
1.06867	-83
1.07233	-81
1.07600	-74
1.07967	-70
1.08333	-74
1.08700	-81
1.09067	-84
1.09433	-82
1.09800	-79
1.10167	-76
1.10533	-78
1.10900	-79
1.11267	-80
1.11633	-79
1.12000	-75
1.12367	-68
1.12733	-67
1.13100	-74
1.13467	-84
1.13833	-93
1.14200	-98
1.14567	-102
1.14933	-104
1.15300	-106
1.15667	-109
1.16033	-110
1.16400	-108
1.16767	-106
1.17133	-107
1.17500	-107
1.17867	-107
1.18233	-105
1.18600	-100
1.18967	-94
1.19333	-91
1.19700	-91
1.20067	-93
1.20433	-98
1.20800	-105
1.21167	-111
1.21533	-113
1.21900	-114
1.22267	-114
1.22633	-113
1.23000	-112
1.23367	-110
1.23733	-106
1.24100	-102
1.24467	-100
1.24833	-99
1.25200	-100
1.25567	-99
1.25933	-96
1.26300	-91
1.26667	-89
1.27033	-87
1.27400	-89
1.27767	-92
1.28133	-91
1.28500	-88
1.28867	-88
1.29233	-91
1.29600	-95
1.29967	-98
1.30333	-99
1.30700	-96
1.31067	-91
1.31433	-84
1.31800	-79
1.32167	-77
1.32533	-78
1.32900	-83
1.33267	-89
1.33633	-93
1.34000	-93
1.34367	-90
1.34733	-83
1.35100	-76
1.35467	-75
1.35833	-79
1.36200	-86
1.36567	-95
1.36933	-104
1.37300	-110
1.37667	-113
1.38033	-113
1.38400	-113
1.38767	-110
1.39133	-107
1.39500	-104
1.39867	-102
1.40233	-100
1.40600	-100
1.40967	-100
1.41333	-100
1.41700	-95
1.42067	-88
1.42433	-86
1.42800	-90
1.43167	-98
1.43533	-102
1.43900	-66
1.44267	105
1.44633	530
1.45000	1231
1.45367	2202
1.45733	3384
1.46100	4610
1.46467	5701
1.46833	6543
1.47200	7061
1.47567	7190
1.47933	6897
1.48300	6211
1.48667	5252
1.49033	4194
1.49400	3191
1.49767	2339
1.50133	1666
1.50500	1154
1.50867	775
1.51233	502
1.51600	312
1.51967	181
1.52333	86
1.52700	17
1.53067	-28
1.53433	-56
1.53800	-59
1.54167	-5
1.54533	162
1.54900	476
1.55267	891
1.55633	1318
1.56000	1685
1.56367	1958
1.56733	2104
1.57100	2096
1.57467	1918
1.57833	1599
1.58200	1219
1.58567	853
1.58933	549
1.59300	320
1.59667	159
1.60033	53
1.60400	-15
1.60767	-60
1.61133	-91
1.61500	-115
1.61867	-133
1.62233	-143
1.62600	-151
1.62967	-159
1.63333	-167
1.63700	-169
1.64067	-168
1.64433	-166
1.64800	-162
1.65167	-158
1.65533	-155
1.65900	-152
1.66267	-148
1.66633	-143
1.67000	-139
1.67367	-137
1.67733	-137
1.68100	-141
1.68467	-146
1.68833	-147
1.69200	-146
1.69567	-147
1.69933	-149
1.70300	-156
1.70667	-156
1.71033	-150
1.71400	-144
1.71767	-139
1.72133	-139
1.72500	-142
1.72867	-141
1.73233	-142
1.73600	-143
1.73967	-142
1.74333	-141
1.74700	-143
1.75067	-141
1.75433	-134
1.75800	-124
1.76167	-115
1.76533	-109
1.76900	-108
1.77267	-112
1.77633	-113
1.78000	-116
1.78367	-123
1.78733	-133
1.79100	-140
1.79467	-140
1.79833	-134
1.80200	-128
1.80567	-125
1.80933	-123
1.81300	-118
1.81667	-112
1.82033	-111
1.82400	-115
1.82767	-122
1.83133	-130
1.83500	-137
1.83867	-142
1.84233	-147
1.84600	-147
1.84967	-144
1.85333	-138
1.85700	-131
1.86067	-122
1.86433	-113
1.86800	-105
1.87167	-101
1.87533	-104
1.87900	-109
1.88267	-114
1.88633	-117
1.89000	-117
1.89367	-118
1.89733	-117
1.90100	-117
1.90467	-117
1.90833	-115
1.91200	-116
1.91567	-124
1.91933	-132
1.92300	-136
1.92667	-132
1.93033	-127
1.93400	-122
1.93767	-120
1.94133	-116
1.94500	-112
1.94867	-109
1.95233	-75
1.95600	191
1.95967	1746
1.96333	8729
1.96700	32723
1.97067	96227
1.97433	226195
1.97800	434236
1.98167	700299
1.98533	978884
1.98900	1220112
1.99267	1384853
1.99633	1449426
2.00000	1408061
2.00367	1274954
2.00733	1080220
2.01100	861225
2.01467	651406
2.01833	472078
2.02200	331238
2.02567	227272
2.02933	153862
2.03300	103598
2.03667	69867
2.04033	47496
2.04400	32735
2.04767	22991
2.05133	16521
2.05500	12180
2.05867	9224
2.06233	7178
2.06600	5729
2.06967	4676
2.07333	3888
2.07700	3289
2.08067	2827
2.08433	2466
2.08800	2180
2.09167	1945
2.09533	1751
2.09900	1590
2.10267	1454
2.10633	1337
2.11000	1232
2.11367	1139
2.11733	1059
2.12100	992
2.12467	933
2.12833	882
2.13200	835
2.13567	790
2.13933	751
2.14300	716
2.14667	682
2.15033	649
2.15400	616
2.15767	584
2.16133	554
2.16500	531
2.16867	510
2.17233	488
2.17600	470
2.17967	457
2.18333	447
2.18700	438
2.19067	428
2.19433	417
2.19800	405
2.20167	392
2.20533	383
2.20900	377
2.21267	372
2.21633	364
2.22000	356
2.22367	347
2.22733	334
2.23100	320
2.23467	310
2.23833	301
2.24200	292
2.24567	286
2.24933	281
2.25300	274
2.25667	263
2.26033	245
2.26400	224
2.26767	209
2.27133	201
2.27500	198
2.27867	198
2.28233	199
2.28600	199
2.28967	195
2.29333	192
2.29700	191
2.30067	192
2.30433	193
2.30800	197
2.31167	197
2.31533	194
2.31900	192
2.32267	192
2.32633	191
2.33000	188
2.33367	184
2.33733	181
2.34100	179
2.34467	182
2.34833	186
2.35200	185
2.35567	182
2.35933	179
2.36300	177
2.36667	174
2.37033	168
2.37400	162
2.37767	155
2.38133	149
2.38500	146
2.38867	145
2.39233	145
2.39600	141
2.39967	137
2.40333	133
2.40700	125
2.41067	116
2.41433	109
2.41800	103
2.42167	99
2.42533	101
2.42900	106
2.43267	115
2.43633	124
2.44000	129
2.44367	127
2.44733	120
2.45100	113
2.45467	107
2.45833	106
2.46200	109
2.46567	110
2.46933	108
2.47300	104
2.47667	103
2.48033	110
2.48400	118
2.48767	119
2.49133	117
2.49500	110
2.49867	102
2.50233	92
2.50600	82
2.50967	74
2.51333	70
2.51700	75
2.52067	85
2.52433	93
2.52800	96
2.53167	97
2.53533	98
2.53900	99
2.54267	99
2.54633	95
2.55000	90
2.55367	86
2.55733	79
2.56100	75
2.56467	75
2.56833	76
2.57200	76
2.57567	76
2.57933	78
2.58300	82
2.58667	82
2.59033	78
2.59400	76
2.59767	75
2.60133	73
2.60500	70
2.60867	69
2.61233	76
2.61600	82
2.61967	78
2.62333	68
2.62700	57
2.63067	46
2.63433	36
2.63800	28
2.64167	23
2.64533	23
2.64900	27
2.65267	28
2.65633	26
2.66000	25
2.66367	25
2.66733	29
2.67100	39
2.67467	49
2.67833	56
2.68200	58
2.68567	55
2.68933	50
2.69300	43
2.69667	31
2.70033	18
2.70400	9
2.70767	6
2.71133	11
2.71500	20
2.71867	27
2.72233	30
2.72600	32
2.72967	35
2.73333	39
2.73700	42
2.74067	47
2.74433	52
2.74800	57
2.75167	60
2.75533	57
2.75900	58
2.76267	58
2.76633	57
2.77000	52
2.77367	43
2.77733	35
2.78100	32
2.78467	31
2.78833	32
2.79200	35
2.79567	39
2.79933	38
2.80300	33
2.80667	30
2.81033	30
2.81400	36
2.81767	40
2.82133	40
2.82500	40
2.82867	41
2.83233	36
2.83600	32
2.83967	31
2.84333	33
2.84700	32
2.85067	33
2.85433	30
2.85800	25
2.86167	22
2.86533	24
2.86900	23
2.87267	23
2.87633	24
2.88000	21
2.88367	21
2.88733	23
2.89100	24
2.89467	24
2.89833	20
2.90200	17
2.90567	18
2.90933	21
2.91300	23
2.91667	30
2.92033	33
2.92400	30
2.92767	25
2.93133	15
2.93500	3
2.93867	-6
2.94233	-7
2.94600	-5
2.94967	-3
2.95333	1
2.95700	4
2.96067	10
2.96433	14
2.96800	16
2.97167	19
2.97533	22
2.97900	24
2.98267	30
2.98633	41
2.99000	49
2.99367	51
2.99733	45
3.00100	45
3.00467	46
3.00833	44
3.01200	43
3.01567	43
3.01933	40
3.02300	39
3.02667	35
3.03033	30
3.03400	27
3.03767	29
3.04133	31
3.04500	28
3.04867	26
3.05233	24
3.05600	31
3.05967	38
3.06333	39
3.06700	37
3.07067	35
3.07433	29
3.07800	24
3.08167	20
3.08533	19
3.08900	21
3.09267	24
3.09633	24
3.10000	23
3.10367	18
3.10733	7
3.11100	-2
3.11467	-9
3.11833	-13
3.12200	-15
3.12567	-16
3.12933	-14
3.13300	-12
3.13667	-3
3.14033	3
3.14400	3
3.14767	-1
3.15133	-3
3.15500	-2
3.15867	-0
3.16233	0
3.16600	3
3.16967	6
3.17333	3
3.17700	3
3.18067	8
3.18433	12
3.18800	14
3.19167	14
3.19533	11
3.19900	15
3.20267	18
3.20633	13
3.21000	9
3.21367	6
3.21733	6
3.22100	4
3.22467	-3
3.22833	-9
3.23200	-7
3.23567	1
3.23933	10
3.24300	13
3.24667	10
3.25033	4
3.25400	-2
3.25767	-8
3.26133	-12
3.26500	-14
3.26867	-13
3.27233	-12
3.27600	-11
3.27967	-8
3.28333	-7
3.28700	-8
3.29067	-10
3.29433	-9
3.29800	-3
3.30167	5
3.30533	11
3.30900	14
3.31267	14
3.31633	10
3.32000	6
3.32367	5
3.32733	8
3.33100	14
3.33467	23
3.33833	23
3.34200	17
3.34567	14
3.34933	12
3.35300	8
3.35667	2
3.36033	-3
3.36400	-7
3.36767	-9
3.37133	-10
3.37500	-10
3.37867	-10
3.38233	-7
3.38600	-1
3.38967	4
3.39333	7
3.39700	7
3.40067	6
3.40433	-1
3.40800	-5
3.41167	-7
3.41533	-8
3.41900	-7
3.42267	-5
3.42633	1
3.43000	5
3.43367	5
3.43733	-1
3.44100	-9
3.44467	-14
3.44833	-17
3.45200	-24
3.45567	-26
3.45933	-28
3.46300	-26
3.46667	-26
3.47033	-25
3.47400	-18
3.47767	-12
3.48133	-6
3.48500	-3
3.48867	-5
3.49233	-10
3.49600	-13
3.49967	-11
3.50333	-15
3.50700	-20
3.51067	-24
3.51433	-29
3.51800	-30
3.52167	-24
3.52533	-12
3.52900	-3
3.53267	-4
3.53633	-9
3.54000	-16
3.54367	-19
3.54733	-17
3.55100	-14
3.55467	-12
3.55833	-12
3.56200	-13
3.56567	-11
3.56933	-4
3.57300	6
3.57667	14
3.58033	16
3.58400	14
3.58767	5
3.59133	-5
3.59500	-12
3.59867	-18
3.60233	-24
3.60600	-26
3.60967	-25
3.61333	-21
3.61700	-20
3.62067	-22
3.62433	-28
3.62800	-31
3.63167	-31
3.63533	-30
3.63900	-26
3.64267	-20
3.64633	-14
3.65000	-14
3.65367	-16
3.65733	-16
3.66100	-14
3.66467	-10
3.66833	-7
3.67200	-6
3.67567	-4
3.67933	0
3.68300	4
3.68667	4
3.69033	-1
3.69400	-6
3.69767	-10
3.70133	-9
3.70500	-9
3.70867	-15
3.71233	-23
3.71600	-28
3.71967	-29
3.72333	-22
3.72700	-15
3.73067	-8
3.73433	-2
3.73800	2
3.74167	3
3.74533	1
3.74900	-2
3.75267	-7
3.75633	-12
3.76000	-12
3.76367	-6
3.76733	1
3.77100	3
3.77467	1
3.77833	-1
3.78200	-3
3.78567	-4
3.78933	-7
3.79300	-13
3.79667	-19
3.80033	-21
3.80400	-18
3.80767	-15
3.81133	-14
3.81500	-13
3.81867	-13
3.82233	-14
3.82600	-17
3.82967	-17
3.83333	-16
3.83700	-14
3.84067	-13
3.84433	-10
3.84800	-3
3.85167	3
3.85533	3
3.85900	-2
3.86267	-11
3.86633	-15
3.87000	-14
3.87367	-14
3.87733	-13
3.88100	-14
3.88467	-17
3.88833	-21
3.89200	-26
3.89567	-31
3.89933	-34
3.90300	-33
3.90667	-30
3.91033	-29
3.91400	-29
3.91767	-27
3.92133	-23
3.92500	-22
3.92867	-23
3.93233	-23
3.93600	-19
3.93967	-17
3.94333	-11
3.94700	-5
3.95067	-5
3.95433	-4
3.95800	-6
3.96167	-9
3.96533	4
3.96900	13
3.97267	12
3.97633	5
3.98000	-0
3.98367	-4
3.98733	-10
3.99100	-17
3.99467	-23
3.99833	-31

[Chromatogram (Ch2)]
Interval(msec)	220
# of Points	1091
Start Time(min)	0.002
End Time(min)	3.998
R.Time (min)	Intensity
0.00167	-1
0.00533	-1
0.00900	-1
0.01267	-1
0.01633	-1
0.02000	-1
0.02367	-1
0.02733	-1
0.03100	-2
0.03467	-1
0.03833	-1
0.04200	-1
0.04567	-1
0.04933	-0
0.05300	-0
0.05667	0
0.06033	0
0.06400	1
0.06767	1
0.07133	2
0.07500	2
0.07867	3
0.08233	3
0.08600	3
0.08967	4
0.09333	4
0.09700	5
0.10067	5
0.10433	6
0.10800	6
0.11167	6
0.11533	6
0.11900	6
0.12267	6
0.12633	7
0.13000	7
0.13367	7
0.13733	7
0.14100	7
0.14467	7
0.14833	7
0.15200	7
0.15567	6
0.15933	6
0.16300	6
0.16667	5
0.17033	5
0.17400	5
0.17767	5
0.18133	5
0.18500	5
0.18867	5
0.19233	5
0.19600	5
0.19967	4
0.20333	4
0.20700	4
0.21067	3
0.21433	3
0.21800	2
0.22167	1
0.22533	0
0.22900	-0
0.23267	-1
0.23633	-1
0.24000	-2
0.24367	-2
0.24733	-2
0.25100	-2
0.25467	-2
0.25833	-2
0.26200	-2
0.26567	-1
0.26933	-1
0.27300	-1
0.27667	-0
0.28033	-0
0.28400	0
0.28767	1
0.29133	1
0.29500	2
0.29867	2
0.30233	2
0.30600	3
0.30967	3
0.31333	3
0.31700	2
0.32067	2
0.32433	2
0.32800	2
0.33167	2
0.33533	2
0.33900	2
0.34267	2
0.34633	2
0.35000	2
0.35367	2
0.35733	1
0.36100	1
0.36467	1
0.36833	0
0.37200	0
0.37567	-0
0.37933	-0
0.38300	-0
0.38667	0
0.39033	0
0.39400	0
0.39767	0
0.40133	0
0.40500	0
0.40867	0
0.41233	1
0.41600	1
0.41967	1
0.42333	1
0.42700	1
0.43067	1
0.43433	1
0.43800	1
0.44167	1
0.44533	1
0.44900	2
0.45267	2
0.45633	2
0.46000	2
0.46367	2
0.46733	3
0.47100	3
0.47467	3
0.47833	3
0.48200	3
0.48567	3
0.48933	3
0.49300	2
0.49667	2
0.50033	2
0.50400	2
0.50767	2
0.51133	2
0.51500	2
0.51867	3
0.52233	3
0.52600	3
0.52967	3
0.53333	3
0.53700	4
0.54067	4
0.54433	4
0.54800	4
0.55167	4
0.55533	4
0.55900	4
0.56267	4
0.56633	4
0.57000	4
0.57367	4
0.57733	3
0.58100	3
0.58467	3
0.58833	2
0.59200	2
0.59567	2
0.59933	2
0.60300	2
0.60667	2
0.61033	1
0.61400	1
0.61767	1
0.62133	0
0.62500	0
0.62867	-1
0.63233	-1
0.63600	-2
0.63967	-2
0.64333	-2
0.64700	-2
0.65067	-2
0.65433	-2
0.65800	-2
0.66167	-2
0.66533	-1
0.66900	-1
0.67267	-0
0.67633	0
0.68000	1
0.68367	1
0.68733	2
0.69100	2
0.69467	3
0.69833	3
0.70200	3
0.70567	4
0.70933	4
0.71300	4
0.71667	4
0.72033	5
0.72400	5
0.72767	5
0.73133	5
0.73500	4
0.73867	4
0.74233	4
0.74600	4
0.74967	4
0.75333	4
0.75700	4
0.76067	3
0.76433	3
0.76800	3
0.77167	3
0.77533	3
0.77900	2
0.78267	2
0.78633	2
0.79000	1
0.79367	1
0.79733	1
0.80100	1
0.80467	1
0.80833	1
0.81200	1
0.81567	1
0.81933	1
0.82300	1
0.82667	2
0.83033	2
0.83400	2
0.83767	2
0.84133	2
0.84500	2
0.84867	2
0.85233	2
0.85600	1
0.85967	1
0.86333	1
0.86700	1
0.87067	1
0.87433	1
0.87800	0
0.88167	0
0.88533	0
0.88900	-0
0.89267	-0
0.89633	-1
0.90000	-1
0.90367	-1
0.90733	-1
0.91100	-1
0.91467	-1
0.91833	-1
0.92200	-1
0.92567	-1
0.92933	-1
0.93300	-1
0.93667	-1
0.94033	-1
0.94400	-1
0.94767	-1
0.95133	-1
0.95500	-0
0.95867	-0
0.96233	-0
0.96600	0
0.96967	0
0.97333	0
0.97700	0
0.98067	1
0.98433	1
0.98800	1
0.99167	2
0.99533	2
0.99900	2
1.00267	2
1.00633	2
1.01000	1
1.01367	2
1.01733	2
1.02100	2
1.02467	2
1.02833	2
1.03200	2
1.03567	2
1.03933	1
1.04300	1
1.04667	2
1.05033	2
1.05400	2
1.05767	2
1.06133	2
1.06500	2
1.06867	1
1.07233	1
1.07600	1
1.07967	2
1.08333	2
1.08700	2
1.09067	2
1.09433	2
1.09800	2
1.10167	2
1.10533	2
1.10900	2
1.11267	2
1.11633	2
1.12000	2
1.12367	2
1.12733	3
1.13100	3
1.13467	3
1.13833	3
1.14200	3
1.14567	3
1.14933	2
1.15300	2
1.15667	2
1.16033	2
1.16400	2
1.16767	2
1.17133	2
1.17500	2
1.17867	2
1.18233	2
1.18600	2
1.18967	2
1.19333	1
1.19700	1
1.20067	1
1.20433	1
1.20800	1
1.21167	1
1.21533	0
1.21900	-0
1.22267	-1
1.22633	-1
1.23000	-1
1.23367	-1
1.23733	-2
1.24100	-2
1.24467	-2
1.24833	-1
1.25200	-1
1.25567	-1
1.25933	-1
1.26300	-1
1.26667	-1
1.27033	-1
1.27400	-2
1.27767	-2
1.28133	-3
1.28500	-3
1.28867	-4
1.29233	-5
1.29600	-5
1.29967	-5
1.30333	-5
1.30700	-5
1.31067	-5
1.31433	-5
1.31800	-5
1.32167	-4
1.32533	-4
1.32900	-4
1.33267	-3
1.33633	-3
1.34000	-2
1.34367	-2
1.34733	-2
1.35100	-1
1.35467	-1
1.35833	-1
1.36200	-1
1.36567	-0
1.36933	-0
1.37300	-0
1.37667	0
1.38033	0
1.38400	1
1.38767	1
1.39133	1
1.39500	1
1.39867	1
1.40233	1
1.40600	1
1.40967	1
1.41333	2
1.41700	2
1.42067	2
1.42433	2
1.42800	2
1.43167	3
1.43533	3
1.43900	3
1.44267	3
1.44633	3
1.45000	3
1.45367	3
1.45733	2
1.46100	2
1.46467	2
1.46833	1
1.47200	1
1.47567	1
1.47933	0
1.48300	0
1.48667	-0
1.49033	-1
1.49400	-1
1.49767	-2
1.50133	-2
1.50500	-3
1.50867	-3
1.51233	-4
1.51600	-4
1.51967	-5
1.52333	-5
1.52700	-5
1.53067	-5
1.53433	-5
1.53800	-5
1.54167	-5
1.54533	-5
1.54900	-5
1.55267	-5
1.55633	-4
1.56000	-4
1.56367	-4
1.56733	-3
1.57100	-3
1.57467	-2
1.57833	-1
1.58200	-0
1.58567	-0
1.58933	0
1.59300	0
1.59667	-0
1.60033	-0
1.60400	-1
1.60767	-2
1.61133	-3
1.61500	-5
1.61867	-7
1.62233	-9
1.62600	-12
1.62967	-15
1.63333	-18
1.63700	-21
1.64067	-25
1.64433	-29
1.64800	-33
1.65167	-36
1.65533	-40
1.65900	-45
1.66267	-49
1.66633	-54
1.67000	-59
1.67367	-65
1.67733	-71
1.68100	-77
1.68467	-82
1.68833	-87
1.69200	-92
1.69567	-95
1.69933	-99
1.70300	-102
1.70667	-104
1.71033	-106
1.71400	-108
1.71767	-109
1.72133	-110
1.72500	-111
1.72867	-112
1.73233	-113
1.73600	-114
1.73967	-114
1.74333	-115
1.74700	-116
1.75067	-117
1.75433	-118
1.75800	-118
1.76167	-119
1.76533	-119
1.76900	-119
1.77267	-119
1.77633	-118
1.78000	-118
1.78367	-117
1.78733	-116
1.79100	-115
1.79467	-115
1.79833	-115
1.80200	-115
1.80567	-115
1.80933	-116
1.81300	-117
1.81667	-118
1.82033	-118
1.82400	-119
1.82767	-120
1.83133	-120
1.83500	-121
1.83867	-121
1.84233	-121
1.84600	-121
1.84967	-121
1.85333	-121
1.85700	-121
1.86067	-122
1.86433	-122
1.86800	-122
1.87167	-122
1.87533	-122
1.87900	-121
1.88267	-120
1.88633	-120
1.89000	-120
1.89367	-120
1.89733	-120
1.90100	-120
1.90467	-120
1.90833	-120
1.91200	-120
1.91567	-119
1.91933	-119
1.92300	-119
1.92667	-119
1.93033	-118
1.93400	-118
1.93767	-118
1.94133	-118
1.94500	-118
1.94867	-117
1.95233	-117
1.95600	-116
1.95967	-116
1.96333	-116
1.96700	-116
1.97067	-116
1.97433	-115
1.97800	-115
1.98167	-115
1.98533	-115
1.98900	-115
1.99267	-115
1.99633	-115
2.00000	-115
2.00367	-114
2.00733	-114
2.01100	-114
2.01467	-114
2.01833	-114
2.02200	-113
2.02567	-113
2.02933	-113
2.03300	-113
2.03667	-113
2.04033	-112
2.04400	-112
2.04767	-111
2.05133	-111
2.05500	-110
2.05867	-110
2.06233	-110
2.06600	-110
2.06967	-109
2.07333	-109
2.07700	-109
2.08067	-109
2.08433	-109
2.08800	-109
2.09167	-108
2.09533	-108
2.09900	-108
2.10267	-108
2.10633	-107
2.11000	-107
2.11367	-106
2.11733	-106
2.12100	-106
2.12467	-106
2.12833	-105
2.13200	-105
2.13567	-104
2.13933	-104
2.14300	-104
2.14667	-104
2.15033	-104
2.15400	-104
2.15767	-104
2.16133	-103
2.16500	-102
2.16867	-101
2.17233	-100
2.17600	-100
2.17967	-99
2.18333	-99
2.18700	-99
2.19067	-98
2.19433	-98
2.19800	-97
2.20167	-97
2.20533	-97
2.20900	-97
2.21267	-97
2.21633	-97
2.22000	-97
2.22367	-97
2.22733	-96
2.23100	-96
2.23467	-95
2.23833	-95
2.24200	-94
2.24567	-94
2.24933	-95
2.25300	-95
2.25667	-95
2.26033	-95
2.26400	-95
2.26767	-94
2.27133	-94
2.27500	-94
2.27867	-94
2.28233	-94
2.28600	-94
2.28967	-94
2.29333	-93
2.29700	-93
2.30067	-93
2.30433	-93
2.30800	-93
2.31167	-93
2.31533	-93
2.31900	-92
2.32267	-91
2.32633	-91
2.33000	-90
2.33367	-89
2.33733	-88
2.34100	-87
2.34467	-86
2.34833	-85
2.35200	-84
2.35567	-84
2.35933	-84
2.36300	-84
2.36667	-84
2.37033	-83
2.37400	-81
2.37767	-79
2.38133	-77
2.38500	-74
2.38867	-70
2.39233	-66
2.39600	-61
2.39967	-56
2.40333	-51
2.40700	-46
2.41067	-41
2.41433	-36
2.41800	-32
2.42167	-27
2.42533	-24
2.42900	-21
2.43267	-18
2.43633	-16
2.44000	-14
2.44367	-12
2.44733	-10
2.45100	-8
2.45467	-6
2.45833	-5
2.46200	-3
2.46567	-2
2.46933	-0
2.47300	1
2.47667	2
2.48033	3
2.48400	4
2.48767	5
2.49133	7
2.49500	8
2.49867	9
2.50233	9
2.50600	10
2.50967	10
2.51333	10
2.51700	10
2.52067	11
2.52433	11
2.52800	12
2.53167	12
2.53533	13
2.53900	13
2.54267	14
2.54633	14
2.55000	14
2.55367	15
2.55733	15
2.56100	15
2.56467	16
2.56833	16
2.57200	16
2.57567	17
2.57933	17
2.58300	17
2.58667	17
2.59033	17
2.59400	17
2.59767	17
2.60133	17
2.60500	18
2.60867	18
2.61233	18
2.61600	19
2.61967	19
2.62333	19
2.62700	20
2.63067	20
2.63433	20
2.63800	20
2.64167	20
2.64533	21
2.64900	21
2.65267	22
2.65633	22
2.66000	23
2.66367	23
2.66733	23
2.67100	23
2.67467	22
2.67833	22
2.68200	22
2.68567	21
2.68933	21
2.69300	21
2.69667	21
2.70033	22
2.70400	22
2.70767	22
2.71133	23
2.71500	23
2.71867	24
2.72233	24
2.72600	25
2.72967	26
2.73333	27
2.73700	27
2.74067	28
2.74433	28
2.74800	28
2.75167	28
2.75533	28
2.75900	28
2.76267	27
2.76633	27
2.77000	27
2.77367	26
2.77733	26
2.78100	25
2.78467	25
2.78833	25
2.79200	25
2.79567	25
2.79933	25
2.80300	25
2.80667	26
2.81033	26
2.81400	26
2.81767	26
2.82133	26
2.82500	26
2.82867	26
2.83233	27
2.83600	27
2.83967	26
2.84333	25
2.84700	23
2.85067	19
2.85433	13
2.85800	4
2.86167	-9
2.86533	-26
2.86900	-47
2.87267	-72
2.87633	-101
2.88000	-133
2.88367	-169
2.88733	-209
2.89100	-251
2.89467	-296
2.89833	-342
2.90200	-391
2.90567	-440
2.90933	-489
2.91300	-539
2.91667	-588
2.92033	-637
2.92400	-685
2.92767	-732
2.93133	-780
2.93500	-829
2.93867	-885
2.94233	-946
2.94600	-1006
2.94967	-1052
2.95333	-1075
2.95700	-1073
2.96067	-1045
2.96433	-996
2.96800	-931
2.97167	-858
2.97533	-779
2.97900	-700
2.98267	-623
2.98633	-549
2.99000	-481
2.99367	-419
2.99733	-362
3.00100	-312
3.00467	-268
3.00833	-229
3.01200	-195
3.01567	-165
3.01933	-139
3.02300	-117
3.02667	-98
3.03033	-82
3.03400	-68
3.03767	-56
3.04133	-46
3.04500	-37
3.04867	-30
3.05233	-24
3.05600	-18
3.05967	-14
3.06333	-10
3.06700	-6
3.07067	-3
3.07433	-1
3.07800	1
3.08167	3
3.08533	5
3.08900	6
3.09267	7
3.09633	8
3.10000	10
3.10367	11
3.10733	12
3.11100	13
3.11467	14
3.11833	15
3.12200	15
3.12567	16
3.12933	17
3.13300	17
3.13667	18
3.14033	18
3.14400	19
3.14767	19
3.15133	19
3.15500	19
3.15867	20
3.16233	20
3.16600	20
3.16967	20
3.17333	20
3.17700	20
3.18067	20
3.18433	20
3.18800	19
3.19167	19
3.19533	19
3.19900	19
3.20267	19
3.20633	20
3.21000	20
3.21367	20
3.21733	21
3.22100	21
3.22467	21
3.22833	22
3.23200	22
3.23567	22
3.23933	23
3.24300	23
3.24667	23
3.25033	24
3.25400	24
3.25767	25
3.26133	26
3.26500	26
3.26867	27
3.27233	27
3.27600	28
3.27967	28
3.28333	29
3.28700	29
3.29067	30
3.29433	30
3.29800	30
3.30167	30
3.30533	30
3.30900	30
3.31267	30
3.31633	31
3.32000	31
3.32367	31
3.32733	31
3.33100	31
3.33467	31
3.33833	31
3.34200	30
3.34567	30
3.34933	30
3.35300	30
3.35667	29
3.36033	29
3.36400	29
3.36767	29
3.37133	29
3.37500	28
3.37867	28
3.38233	28
3.38600	28
3.38967	28
3.39333	28
3.39700	27
3.40067	27
3.40433	27
3.40800	27
3.41167	27
3.41533	28
3.41900	28
3.42267	27
3.42633	27
3.43000	27
3.43367	27
3.43733	27
3.44100	27
3.44467	27
3.44833	27
3.45200	27
3.45567	27
3.45933	27
3.46300	27
3.46667	27
3.47033	27
3.47400	28
3.47767	28
3.48133	28
3.48500	28
3.48867	28
3.49233	28
3.49600	29
3.49967	29
3.50333	28
3.50700	28
3.51067	28
3.51433	28
3.51800	28
3.52167	28
3.52533	27
3.52900	27
3.53267	27
3.53633	27
3.54000	27
3.54367	27
3.54733	27
3.55100	27
3.55467	27
3.55833	27
3.56200	27
3.56567	27
3.56933	27
3.57300	27
3.57667	26
3.58033	26
3.58400	26
3.58767	26
3.59133	26
3.59500	26
3.59867	26
3.60233	26
3.60600	27
3.60967	27
3.61333	27
3.61700	27
3.62067	27
3.62433	27
3.62800	27
3.63167	27
3.63533	28
3.63900	28
3.64267	28
3.64633	28
3.65000	28
3.65367	28
3.65733	28
3.66100	28
3.66467	28
3.66833	29
3.67200	29
3.67567	29
3.67933	29
3.68300	29
3.68667	29
3.69033	29
3.69400	29
3.69767	29
3.70133	29
3.70500	29
3.70867	29
3.71233	29
3.71600	29
3.71967	29
3.72333	28
3.72700	28
3.73067	28
3.73433	28
3.73800	28
3.74167	28
3.74533	28
3.74900	28
3.75267	28
3.75633	28
3.76000	28
3.76367	28
3.76733	27
3.77100	27
3.77467	27
3.77833	27
3.78200	27
3.78567	27
3.78933	27
3.79300	27
3.79667	27
3.80033	27
3.80400	27
3.80767	27
3.81133	27
3.81500	27
3.81867	27
3.82233	27
3.82600	27
3.82967	27
3.83333	27
3.83700	27
3.84067	27
3.84433	27
3.84800	27
3.85167	27
3.85533	27
3.85900	27
3.86267	27
3.86633	27
3.87000	28
3.87367	28
3.87733	28
3.88100	28
3.88467	28
3.88833	29
3.89200	29
3.89567	29
3.89933	29
3.90300	29
3.90667	29
3.91033	29
3.91400	29
3.91767	30
3.92133	30
3.92500	30
3.92867	30
3.93233	30
3.93600	30
3.93967	30
3.94333	30
3.94700	30
3.95067	29
3.95433	29
3.95800	29
3.96167	29
3.96533	29
3.96900	29
3.97267	29
3.97633	29
3.98000	29
3.98367	29
3.98733	29
3.99100	29
3.99467	29
3.99833	29

[Chromatogram (Ch3)]
Interval(msec)	220
# of Points	1091
Start Time(min)	0.002
End Time(min)	3.998
R.Time (min)	Intensity
0.00167	-0
0.00533	-1
0.00900	-1
0.01267	-1
0.01633	-2
0.02000	-3
0.02367	-2
0.02733	0
0.03100	-0
0.03467	-2
0.03833	-3
0.04200	-1
0.04567	1
0.04933	1
0.05300	-0
0.05667	-1
0.06033	-2
0.06400	-1
0.06767	-0
0.07133	2
0.07500	3
0.07867	3
0.08233	4
0.08600	5
0.08967	4
0.09333	3
0.09700	3
0.10067	2
0.10433	2
0.10800	1
0.11167	1
0.11533	1
0.11900	2
0.12267	3
0.12633	5
0.13000	5
0.13367	4
0.13733	4
0.14100	5
0.14467	4
0.14833	3
0.15200	2
0.15567	1
0.15933	1
0.16300	1
0.16667	2
0.17033	4
0.17400	6
0.17767	6
0.18133	5
0.18500	4
0.18867	4
0.19233	3
0.19600	2
0.19967	1
0.20333	2
0.20700	3
0.21067	3
0.21433	5
0.21800	6
0.22167	6
0.22533	4
0.22900	3
0.23267	3
0.23633	3
0.24000	4
0.24367	3
0.24733	3
0.25100	5
0.25467	5
0.25833	3
0.26200	2
0.26567	2
0.26933	3
0.27300	5
0.27667	5
0.28033	4
0.28400	4
0.28767	3
0.29133	4
0.29500	7
0.29867	7
0.30233	6
0.30600	3
0.30967	3
0.31333	2
0.31700	1
0.32067	2
0.32433	2
0.32800	2
0.33167	2
0.33533	-0
0.33900	0
0.34267	-0
0.34633	0
0.35000	2
0.35367	3
0.35733	4
0.36100	3
0.36467	4
0.36833	3
0.37200	2
0.37567	2
0.37933	2
0.38300	2
0.38667	3
0.39033	6
0.39400	8
0.39767	11
0.40133	12
0.40500	13
0.40867	13
0.41233	13
0.41600	14
0.41967	13
0.42333	13
0.42700	13
0.43067	12
0.43433	12
0.43800	10
0.44167	10
0.44533	9
0.44900	9
0.45267	10
0.45633	10
0.46000	12
0.46367	13
0.46733	11
0.47100	9
0.47467	8
0.47833	8
0.48200	9
0.48567	8
0.48933	9
0.49300	9
0.49667	9
0.50033	11
0.50400	12
0.50767	13
0.51133	13
0.51500	10
0.51867	9
0.52233	9
0.52600	10
0.52967	10
0.53333	11
0.53700	12
0.54067	12
0.54433	13
0.54800	16
0.55167	18
0.55533	19
0.55900	19
0.56267	18
0.56633	18
0.57000	17
0.57367	15
0.57733	16
0.58100	16
0.58467	16
0.58833	16
0.59200	15
0.59567	14
0.59933	13
0.60300	13
0.60667	14
0.61033	16
0.61400	17
0.61767	16
0.62133	17
0.62500	17
0.62867	16
0.63233	17
0.63600	18
0.63967	19
0.64333	19
0.64700	19
0.65067	19
0.65433	18
0.65800	18
0.66167	17
0.66533	16
0.66900	14
0.67267	14
0.67633	16
0.68000	17
0.68367	17
0.68733	18
0.69100	19
0.69467	22
0.69833	22
0.70200	20
0.70567	17
0.70933	16
0.71300	15
0.71667	14
0.72033	16
0.72400	17
0.72767	18
0.73133	21
0.73500	23
0.73867	24
0.74233	22
0.74600	22
0.74967	24
0.75333	25
0.75700	26
0.76067	26
0.76433	26
0.76800	26
0.77167	26
0.77533	25
0.77900	24
0.78267	23
0.78633	23
0.79000	24
0.79367	24
0.79733	23
0.80100	21
0.80467	21
0.80833	21
0.81200	23
0.81567	24
0.81933	24
0.82300	24
0.82667	24
0.83033	27
0.83400	30
0.83767	31
0.84133	31
0.84500	32
0.84867	32
0.85233	29
0.85600	28
0.85967	28
0.86333	28
0.86700	28
0.87067	28
0.87433	30
0.87800	32
0.88167	33
0.88533	33
0.88900	30
0.89267	28
0.89633	27
0.90000	27
0.90367	29
0.90733	32
0.91100	34
0.91467	34
0.91833	33
0.92200	33
0.92567	33
0.92933	33
0.93300	33
0.93667	33
0.94033	33
0.94400	33
0.94767	32
0.95133	31
0.95500	30
0.95867	30
0.96233	29
0.96600	29
0.96967	30
0.97333	31
0.97700	31
0.98067	33
0.98433	35
0.98800	35
0.99167	34
0.99533	34
0.99900	34
1.00267	36
1.00633	37
1.01000	36
1.01367	34
1.01733	34
1.02100	35
1.02467	34
1.02833	32
1.03200	33
1.03567	35
1.03933	36
1.04300	36
1.04667	36
1.05033	35
1.05400	35
1.05767	34
1.06133	33
1.06500	32
1.06867	32
1.07233	32
1.07600	32
1.07967	31
1.08333	31
1.08700	32
1.09067	33
1.09433	33
1.09800	34
1.10167	36
1.10533	37
1.10900	40
1.11267	41
1.11633	42
1.12000	42
1.12367	40
1.12733	39
1.13100	39
1.13467	39
1.13833	41
1.14200	40
1.14567	40
1.14933	39
1.15300	39
1.15667	39
1.16033	39
1.16400	40
1.16767	39
1.17133	36
1.17500	37
1.17867	38
1.18233	38
1.18600	38
1.18967	40
1.19333	40
1.19700	40
1.20067	38
1.20433	37
1.20800	37
1.21167	36
1.21533	35
1.21900	35
1.22267	37
1.22633	38
1.23000	38
1.23367	37
1.23733	38
1.24100	40
1.24467	41
1.24833	42
1.25200	42
1.25567	41
1.25933	40
1.26300	38
1.26667	39
1.27033	42
1.27400	43
1.27767	44
1.28133	46
1.28500	47
1.28867	47
1.29233	45
1.29600	43
1.29967	42
1.30333	43
1.30700	44
1.31067	44
1.31433	44
1.31800	43
1.32167	44
1.32533	46
1.32900	48
1.33267	48
1.33633	47
1.34000	49
1.34367	49
1.34733	50
1.35100	49
1.35467	49
1.35833	48
1.36200	49
1.36567	50
1.36933	48
1.37300	47
1.37667	46
1.38033	47
1.38400	47
1.38767	48
1.39133	47
1.39500	47
1.39867	47
1.40233	46
1.40600	43
1.40967	41
1.41333	42
1.41700	45
1.42067	46
1.42433	46
1.42800	47
1.43167	46
1.43533	46
1.43900	45
1.44267	45
1.44633	46
1.45000	45
1.45367	44
1.45733	44
1.46100	45
1.46467	46
1.46833	49
1.47200	52
1.47567	54
1.47933	54
1.48300	55
1.48667	56
1.49033	57
1.49400	56
1.49767	56
1.50133	56
1.50500	56
1.50867	55
1.51233	55
1.51600	56
1.51967	57
1.52333	58
1.52700	56
1.53067	54
1.53433	54
1.53800	54
1.54167	54
1.54533	53
1.54900	54
1.55267	53
1.55633	53
1.56000	54
1.56367	54
1.56733	53
1.57100	53
1.57467	53
1.57833	54
1.58200	56
1.58567	57
1.58933	56
1.59300	55
1.59667	56
1.60033	57
1.60400	56
1.60767	56
1.61133	58
1.61500	59
1.61867	60
1.62233	59
1.62600	59
1.62967	58
1.63333	58
1.63700	59
1.64067	57
1.64433	55
1.64800	54
1.65167	57
1.65533	59
1.65900	61
1.66267	63
1.66633	64
1.67000	67
1.67367	68
1.67733	68
1.68100	68
1.68467	67
1.68833	66
1.69200	68
1.69567	70
1.69933	73
1.70300	77
1.70667	78
1.71033	78
1.71400	77
1.71767	77
1.72133	77
1.72500	78
1.72867	78
1.73233	79
1.73600	81
1.73967	83
1.74333	82
1.74700	79
1.75067	80
1.75433	82
1.75800	83
1.76167	84
1.76533	85
1.76900	84
1.77267	83
1.77633	83
1.78000	85
1.78367	87
1.78733	88
1.79100	86
1.79467	88
1.79833	90
1.80200	91
1.80567	91
1.80933	93
1.81300	95
1.81667	97
1.82033	97
1.82400	96
1.82767	96
1.83133	97
1.83500	97
1.83867	99
1.84233	99
1.84600	98
1.84967	100
1.85333	100
1.85700	101
1.86067	103
1.86433	105
1.86800	105
1.87167	104
1.87533	102
1.87900	100
1.88267	101
1.88633	102
1.89000	104
1.89367	106
1.89733	107
1.90100	108
1.90467	107
1.90833	105
1.91200	106
1.91567	108
1.91933	108
1.92300	108
1.92667	108
1.93033	108
1.93400	109
1.93767	110
1.94133	111
1.94500	111
1.94867	112
1.95233	113
1.95600	114
1.95967	115
1.96333	116
1.96700	117
1.97067	116
1.97433	116
1.97800	116
1.98167	117
1.98533	118
1.98900	121
1.99267	122
1.99633	123
2.00000	124
2.00367	126
2.00733	128
2.01100	129
2.01467	131
2.01833	132
2.02200	132
2.02567	133
2.02933	135
2.03300	137
2.03667	139
2.04033	141
2.04400	140
2.04767	139
2.05133	140
2.05500	140
2.05867	142
2.06233	144
2.06600	145
2.06967	148
2.07333	152
2.07700	151
2.08067	150
2.08433	153
2.08800	157
2.09167	158
2.09533	158
2.09900	159
2.10267	161
2.10633	164
2.11000	167
2.11367	171
2.11733	172
2.12100	173
2.12467	178
2.12833	180
2.13200	179
2.13567	180
2.13933	181
2.14300	183
2.14667	183
2.15033	182
2.15400	181
2.15767	184
2.16133	187
2.16500	189
2.16867	190
2.17233	190
2.17600	190
2.17967	190
2.18333	189
2.18700	191
2.19067	196
2.19433	199
2.19800	201
2.20167	203
2.20533	204
2.20900	207
2.21267	207
2.21633	207
2.22000	208
2.22367	210
2.22733	210
2.23100	210
2.23467	212
2.23833	215
2.24200	217
2.24567	218
2.24933	219
2.25300	222
2.25667	223
2.26033	224
2.26400	223
2.26767	224
2.27133	222
2.27500	221
2.27867	224
2.28233	226
2.28600	229
2.28967	231
2.29333	232
2.29700	233
2.30067	233
2.30433	233
2.30800	235
2.31167	237
2.31533	239
2.31900	239
2.32267	240
2.32633	240
2.33000	242
2.33367	243
2.33733	246
2.34100	248
2.34467	247
2.34833	249
2.35200	250
2.35567	251
2.35933	251
2.36300	252
2.36667	253
2.37033	255
2.37400	257
2.37767	256
2.38133	255
2.38500	255
2.38867	255
2.39233	256
2.39600	258
2.39967	259
2.40333	261
2.40700	263
2.41067	263
2.41433	266
2.41800	269
2.42167	274
2.42533	274
2.42900	274
2.43267	275
2.43633	275
2.44000	275
2.44367	278
2.44733	280
2.45100	278
2.45467	281
2.45833	294
2.46200	320
2.46567	355
2.46933	396
2.47300	440
2.47667	486
2.48033	530
2.48400	571
2.48767	611
2.49133	648
2.49500	682
2.49867	712
2.50233	739
2.50600	766
2.50967	790
2.51333	809
2.51700	826
2.52067	841
2.52433	853
2.52800	865
2.53167	878
2.53533	888
2.53900	899
2.54267	909
2.54633	919
2.55000	928
2.55367	935
2.55733	939
2.56100	944
2.56467	947
2.56833	949
2.57200	952
2.57567	952
2.57933	954
2.58300	958
2.58667	958
2.59033	957
2.59400	953
2.59767	942
2.60133	923
2.60500	895
2.60867	858
2.61233	810
2.61600	756
2.61967	706
2.62333	657
2.62700	611
2.63067	569
2.63433	535
2.63800	508
2.64167	486
2.64533	470
2.64900	460
2.65267	455
2.65633	455
2.66000	457
2.66367	460
2.66733	464
2.67100	471
2.67467	481
2.67833	490
2.68200	498
2.68567	505
2.68933	511
2.69300	518
2.69667	527
2.70033	536
2.70400	544
2.70767	553
2.71133	561
2.71500	569
2.71867	577
2.72233	584
2.72600	592
2.72967	598
2.73333	603
2.73700	609
2.74067	617
2.74433	626
2.74800	634
2.75167	642
2.75533	647
2.75900	653
2.76267	660
2.76633	665
2.77000	669
2.77367	672
2.77733	677
2.78100	683
2.78467	688
2.78833	694
2.79200	699
2.79567	702
2.79933	706
2.80300	708
2.80667	709
2.81033	710
2.81400	713
2.81767	718
2.82133	725
2.82500	741
2.82867	775
2.83233	838
2.83600	952
2.83967	1142
2.84333	1433
2.84700	1836
2.85067	2347
2.85433	2942
2.85800	3588
2.86167	4239
2.86533	4842
2.86900	5355
2.87267	5737
2.87633	5965
2.88000	6037
2.88367	5967
2.88733	5776
2.89100	5493
2.89467	5152
2.89833	4783
2.90200	4400
2.90567	4020
2.90933	3656
2.91300	3320
2.91667	3010
2.92033	2729
2.92400	2475
2.92767	2249
2.93133	2047
2.93500	1871
2.93867	1716
2.94233	1581
2.94600	1464
2.94967	1361
2.95333	1272
2.95700	1198
2.96067	1134
2.96433	1078
2.96800	1029
2.97167	988
2.97533	952
2.97900	920
2.98267	894
2.98633	873
2.99000	852
2.99367	834
2.99733	819
3.00100	806
3.00467	796
3.00833	786
3.01200	775
3.01567	766
3.01933	759
3.02300	753
3.02667	746
3.03033	740
3.03400	733
3.03767	726
3.04133	721
3.04500	719
3.04867	717
3.05233	714
3.05600	711
3.05967	710
3.06333	707
3.06700	702
3.07067	699
3.07433	699
3.07800	696
3.08167	692
3.08533	689
3.08900	687
3.09267	685
3.09633	683
3.10000	682
3.10367	680
3.10733	677
3.11100	674
3.11467	671
3.11833	667
3.12200	663
3.12567	659
3.12933	656
3.13300	653
3.13667	651
3.14033	650
3.14400	651
3.14767	651
3.15133	648
3.15500	644
3.15867	640
3.16233	636
3.16600	632
3.16967	628
3.17333	625
3.17700	622
3.18067	619
3.18433	619
3.18800	619
3.19167	619
3.19533	619
3.19900	618
3.20267	616
3.20633	613
3.21000	611
3.21367	608
3.21733	607
3.22100	606
3.22467	602
3.22833	600
3.23200	598
3.23567	595
3.23933	590
3.24300	586
3.24667	582
3.25033	579
3.25400	577
3.25767	575
3.26133	571
3.26500	569
3.26867	569
3.27233	567
3.27600	564
3.27967	560
3.28333	556
3.28700	550
3.29067	543
3.29433	537
3.29800	533
3.30167	531
3.30533	529
3.30900	528
3.31267	526
3.31633	523
3.32000	518
3.32367	514
3.32733	510
3.33100	506
3.33467	500
3.33833	496
3.34200	494
3.34567	491
3.34933	489
3.35300	486
3.35667	481
3.36033	477
3.36400	475
3.36767	472
3.37133	470
3.37500	467
3.37867	465
3.38233	463
3.38600	460
3.38967	457
3.39333	453
3.39700	447
3.40067	443
3.40433	439
3.40800	435
3.41167	431
3.41533	426
3.41900	423
3.42267	419
3.42633	416
3.43000	414
3.43367	412
3.43733	411
3.44100	408
3.44467	404
3.44833	402
3.45200	399
3.45567	396
3.45933	393
3.46300	391
3.46667	389
3.47033	384
3.47400	377
3.47767	371
3.48133	367
3.48500	365
3.48867	361
3.49233	356
3.49600	354
3.49967	354
3.50333	353
3.50700	351
3.51067	349
3.51433	345
3.51800	343
3.52167	340
3.52533	337
3.52900	334
3.53267	332
3.53633	332
3.54000	330
3.54367	326
3.54733	321
3.55100	318
3.55467	315
3.55833	313
3.56200	313
3.56567	311
3.56933	308
3.57300	306
3.57667	303
3.58033	303
3.58400	303
3.58767	300
3.59133	296
3.59500	293
3.59867	290
3.60233	287
3.60600	286
3.60967	284
3.61333	284
3.61700	284
3.62067	282
3.62433	280
3.62800	281
3.63167	281
3.63533	280
3.63900	278
3.64267	278
3.64633	277
3.65000	276
3.65367	274
3.65733	271
3.66100	268
3.66467	264
3.66833	264
3.67200	265
3.67567	262
3.67933	259
3.68300	258
3.68667	257
3.69033	257
3.69400	254
3.69767	252
3.70133	249
3.70500	248
3.70867	249
3.71233	249
3.71600	249
3.71967	247
3.72333	246
3.72700	245
3.73067	244
3.73433	242
3.73800	239
3.74167	238
3.74533	237
3.74900	235
3.75267	235
3.75633	236
3.76000	234
3.76367	232
3.76733	233
3.77100	234
3.77467	233
3.77833	232
3.78200	230
3.78567	230
3.78933	228
3.79300	227
3.79667	226
3.80033	224
3.80400	225
3.80767	227
3.81133	226
3.81500	225
3.81867	224
3.82233	222
3.82600	221
3.82967	222
3.83333	224
3.83700	224
3.84067	222
3.84433	223
3.84800	222
3.85167	221
3.85533	220
3.85900	219
3.86267	219
3.86633	219
3.87000	216
3.87367	216
3.87733	217
3.88100	218
3.88467	217
3.88833	213
3.89200	207
3.89567	204
3.89933	203
3.90300	202
3.90667	203
3.91033	203
3.91400	202
3.91767	203
3.92133	205
3.92500	206
3.92867	205
3.93233	205
3.93600	203
3.93967	200
3.94333	198
3.94700	198
3.95067	199
3.95433	199
3.95800	197
3.96167	197
3.96533	196
3.96900	196
3.97267	195
3.97633	194
3.98000	193
3.98367	193
3.98733	191
3.99100	192
3.99467	192
3.99833	192

[Status Trace (Column Oven Temperature)]
Interval(msec)	1000
# of Points	240
Start Time(min)	0.007
End Time(min)	3.990
Intensity Units	
Intensity Multiplier	1
R.Time (min)	Intensity
0.00653	35.06
0.02320	35.07
0.03987	35.08
0.05653	35.07
0.07320	35.07
0.08987	35.05
0.10653	35.02
0.12320	35.01
0.13987	34.99
0.15653	34.98
0.17320	34.97
0.18987	34.97
0.20653	34.97
0.22320	34.99
0.23987	35.00
0.25653	35.01
0.27320	35.01
0.28987	35.00
0.30653	35.00
0.32320	34.98
0.33987	34.98
0.35653	34.99
0.37320	35.00
0.38987	35.00
0.40653	35.00
0.42320	35.00
0.43987	35.00
0.45653	35.00
0.47320	35.00
0.48987	35.00
0.50653	35.00
0.52320	34.99
0.53987	34.98
0.55653	34.98
0.57320	34.98
0.58987	34.98
0.60653	34.99
0.62320	35.00
0.63987	35.01
0.65653	35.02
0.67320	35.02
0.68987	34.99
0.70653	34.98
0.72320	34.97
0.73987	34.97
0.75653	34.97
0.77320	34.98
0.78987	34.97
0.80653	34.98
0.82320	34.97
0.83987	34.96
0.85653	34.96
0.87320	34.97
0.88987	34.97
0.90653	34.99
0.92320	34.99
0.93987	34.99
0.95653	35.00
0.97320	35.00
0.98987	35.00
1.00653	34.99
1.02320	34.99
1.03987	34.98
1.05653	34.98
1.07320	34.97
1.08987	34.97
1.10653	34.97
1.12320	34.96
1.13987	34.96
1.15653	34.96
1.17320	34.96
1.18987	34.96
1.20653	34.97
1.22320	34.98
1.23987	34.98
1.25653	34.98
1.27320	34.99
1.28987	35.02
1.30653	35.03
1.32320	35.02
1.33987	35.01
1.35653	35.00
1.37320	34.99
1.38987	34.99
1.40653	34.99
1.42320	34.98
1.43987	34.97
1.45653	34.98
1.47320	34.98
1.48987	34.99
1.50653	35.00
1.52320	35.02
1.53987	35.03
1.55653	35.04
1.57320	35.03
1.58987	35.02
1.60653	35.06
1.62320	35.17
1.63987	35.33
1.65653	35.57
1.67320	35.93
1.68987	36.30
1.70653	36.66
1.72320	36.99
1.73987	37.33
1.75653	37.68
1.77320	37.98
1.78987	38.29
1.80653	38.61
1.82320	38.96
1.83987	39.28
1.85653	39.63
1.87320	39.95
1.88987	40.29
1.90653	40.62
1.92320	40.95
1.93987	41.28
1.95653	41.60
1.97320	41.93
1.98987	42.25
2.00653	42.58
2.02320	42.91
2.03987	43.24
2.05653	43.56
2.07320	43.90
2.08987	44.22
2.10653	44.54
2.12320	44.87
2.13987	45.19
2.15653	45.53
2.17320	45.86
2.18987	46.17
2.20653	46.52
2.22320	46.83
2.23987	47.16
2.25653	47.49
2.27320	47.81
2.28987	48.14
2.30653	48.49
2.32320	48.83
2.33987	49.12
2.35653	49.43
2.37320	49.66
2.38987	49.74
2.40653	49.72
2.42320	49.72
2.43987	49.73
2.45653	49.74
2.47320	49.75
2.48987	49.74
2.50653	49.76
2.52320	49.77
2.53987	49.79
2.55653	49.80
2.57320	49.80
2.58987	49.82
2.60653	49.82
2.62320	49.83
2.63987	49.85
2.65653	49.85
2.67320	49.86
2.68987	49.87
2.70653	49.87
2.72320	49.86
2.73987	49.84
2.75653	49.85
2.77320	49.87
2.78987	49.87
2.80653	49.87
2.82320	49.88
2.83987	49.89
2.85653	49.91
2.87320	49.93
2.88987	49.95
2.90653	49.95
2.92320	49.95
2.93987	49.96
2.95653	49.96
2.97320	49.97
2.98987	49.98
3.00653	49.99
3.02320	50.00
3.03987	50.01
3.05653	50.03
3.07320	50.04
3.08987	50.06
3.10653	50.06
3.12320	50.06
3.13987	50.06
3.15653	50.06
3.17320	50.08
3.18987	50.10
3.20653	50.10
3.22320	50.11
3.23987	50.11
3.25653	50.10
3.27320	50.08
3.28987	50.06
3.30653	50.04
3.32320	50.02
3.33987	50.01
3.35653	50.02
3.37320	50.02
3.38987	50.02
3.40653	50.02
3.42320	50.03
3.43987	50.03
3.45653	50.03
3.47320	50.02
3.48987	50.01
3.50653	50.01
3.52320	50.02
3.53987	50.03
3.55653	50.03
3.57320	50.05
3.58987	50.06
3.60653	50.05
3.62320	50.06
3.63987	50.05
3.65653	50.05
3.67320	50.04
3.68987	50.04
3.70653	50.04
3.72320	50.05
3.73987	50.05
3.75653	50.06
3.77320	50.07
3.78987	50.08
3.80653	50.08
3.82320	50.08
3.83987	50.09
3.85653	50.09
3.87320	50.09
3.88987	50.08
3.90653	50.08
3.92320	50.07
3.93987	50.07
3.95653	50.06
3.97320	50.07
3.98987	50.06

[Status Trace (Injection Unit Temperature)]
Interval(msec)	1000
# of Points	240
Start Time(min)	0.007
End Time(min)	3.990
Intensity Units	
Intensity Multiplier	1
R.Time (min)	Intensity
0.00653	99.98
0.02320	99.98
0.03987	99.98
0.05653	99.98
0.07320	99.98
0.08987	99.98
0.10653	99.98
0.12320	99.98
0.13987	99.98
0.15653	99.98
0.17320	99.98
0.18987	99.98
0.20653	99.98
0.22320	99.98
0.23987	99.98
0.25653	99.98
0.27320	99.99
0.28987	99.98
0.30653	99.98
0.32320	99.98
0.33987	99.99
0.35653	99.99
0.37320	99.99
0.38987	99.98
0.40653	99.98
0.42320	99.98
0.43987	99.98
0.45653	99.99
0.47320	99.99
0.48987	99.98
0.50653	99.98
0.52320	99.99
0.53987	99.98
0.55653	99.99
0.57320	99.99
0.58987	99.99
0.60653	99.99
0.62320	99.99
0.63987	99.99
0.65653	99.98
0.67320	99.99
0.68987	99.99
0.70653	99.99
0.72320	99.99
0.73987	99.99
0.75653	99.99
0.77320	99.99
0.78987	99.99
0.80653	99.99
0.82320	99.99
0.83987	99.99
0.85653	99.99
0.87320	99.99
0.88987	99.99
0.90653	99.99
0.92320	99.98
0.93987	99.99
0.95653	99.99
0.97320	99.99
0.98987	99.99
1.00653	99.99
1.02320	99.99
1.03987	99.99
1.05653	99.99
1.07320	99.98
1.08987	99.99
1.10653	99.99
1.12320	99.99
1.13987	99.99
1.15653	99.99
1.17320	99.99
1.18987	99.99
1.20653	99.99
1.22320	99.99
1.23987	99.99
1.25653	99.99
1.27320	99.99
1.28987	99.99
1.30653	99.99
1.32320	99.99
1.33987	99.99
1.35653	99.99
1.37320	99.99
1.38987	99.99
1.40653	99.99
1.42320	99.99
1.43987	99.99
1.45653	99.99
1.47320	99.99
1.48987	99.99
1.50653	99.99
1.52320	99.99
1.53987	99.98
1.55653	99.99
1.57320	99.99
1.58987	99.99
1.60653	99.99
1.62320	99.99
1.63987	99.99
1.65653	99.98
1.67320	99.98
1.68987	99.99
1.70653	99.98
1.72320	99.99
1.73987	99.99
1.75653	99.98
1.77320	99.99
1.78987	99.99
1.80653	99.99
1.82320	99.99
1.83987	99.98
1.85653	99.99
1.87320	99.99
1.88987	99.99
1.90653	99.99
1.92320	99.99
1.93987	99.98
1.95653	99.98
1.97320	99.99
1.98987	99.98
2.00653	99.98
2.02320	99.98
2.03987	99.98
2.05653	99.98
2.07320	99.98
2.08987	99.98
2.10653	99.98
2.12320	99.98
2.13987	99.98
2.15653	99.98
2.17320	99.98
2.18987	99.97
2.20653	99.98
2.22320	99.97
2.23987	99.98
2.25653	99.97
2.27320	99.97
2.28987	99.97
2.30653	99.97
2.32320	99.97
2.33987	99.97
2.35653	99.97
2.37320	99.97
2.38987	99.97
2.40653	99.97
2.42320	99.97
2.43987	99.97
2.45653	99.97
2.47320	99.97
2.48987	99.97
2.50653	99.97
2.52320	99.97
2.53987	99.97
2.55653	99.97
2.57320	99.98
2.58987	99.97
2.60653	99.97
2.62320	99.98
2.63987	99.98
2.65653	99.98
2.67320	99.98
2.68987	99.98
2.70653	99.98
2.72320	99.99
2.73987	99.99
2.75653	99.99
2.77320	99.99
2.78987	99.99
2.80653	99.99
2.82320	99.99
2.83987	99.99
2.85653	100.00
2.87320	100.00
2.88987	100.00
2.90653	100.00
2.92320	100.00
2.93987	100.00
2.95653	100.01
2.97320	100.01
2.98987	100.01
3.00653	100.01
3.02320	100.01
3.03987	100.01
3.05653	100.01
3.07320	100.02
3.08987	100.02
3.10653	100.02
3.12320	100.01
3.13987	100.02
3.15653	100.02
3.17320	100.02
3.18987	100.02
3.20653	100.02
3.22320	100.02
3.23987	100.03
3.25653	100.02
3.27320	100.02
3.28987	100.03
3.30653	100.03
3.32320	100.03
3.33987	100.03
3.35653	100.03
3.37320	100.03
3.38987	100.03
3.40653	100.03
3.42320	100.03
3.43987	100.03
3.45653	100.03
3.47320	100.03
3.48987	100.03
3.50653	100.03
3.52320	100.04
3.53987	100.04
3.55653	100.04
3.57320	100.04
3.58987	100.04
3.60653	100.04
3.62320	100.04
3.63987	100.04
3.65653	100.04
3.67320	100.04
3.68987	100.04
3.70653	100.04
3.72320	100.04
3.73987	100.05
3.75653	100.05
3.77320	100.04
3.78987	100.05
3.80653	100.05
3.82320	100.05
3.83987	100.05
3.85653	100.05
3.87320	100.05
3.88987	100.05
3.90653	100.05
3.92320	100.05
3.93987	100.05
3.95653	100.05
3.97320	100.05
3.98987	100.05

[Status Trace (Carrier Gas Pressure)]
Interval(msec)	1000
# of Points	240
Start Time(min)	0.007
End Time(min)	3.990
Intensity Units	
Intensity Multiplier	1
R.Time (min)	Intensity
0.00653	58.00
0.02320	55.56
0.03987	56.77
0.05653	58.95
0.07320	59.69
0.08987	58.17
0.10653	57.97
0.12320	58.01
0.13987	58.01
0.15653	58.01
0.17320	58.00
0.18987	58.00
0.20653	58.00
0.22320	58.00
0.23987	58.00
0.25653	58.00
0.27320	58.00
0.28987	58.00
0.30653	58.00
0.32320	58.00
0.33987	58.00
0.35653	58.00
0.37320	58.00
0.38987	58.00
0.40653	58.00
0.42320	58.00
0.43987	58.00
0.45653	58.00
0.47320	58.00
0.48987	58.00
0.50653	58.00
0.52320	58.00
0.53987	58.00
0.55653	58.00
0.57320	58.00
0.58987	58.00
0.60653	58.00
0.62320	58.00
0.63987	58.00
0.65653	58.00
0.67320	58.00
0.68987	58.00
0.70653	58.00
0.72320	58.00
0.73987	58.00
0.75653	58.00
0.77320	58.00
0.78987	58.00
0.80653	58.00
0.82320	58.00
0.83987	58.00
0.85653	58.00
0.87320	58.00
0.88987	58.00
0.90653	58.00
0.92320	58.00
0.93987	58.00
0.95653	58.00
0.97320	58.00
0.98987	58.00
1.00653	58.00
1.02320	58.00
1.03987	58.00
1.05653	58.00
1.07320	58.00
1.08987	58.00
1.10653	58.00
1.12320	58.00
1.13987	58.00
1.15653	58.00
1.17320	58.00
1.18987	58.00
1.20653	58.00
1.22320	58.00
1.23987	58.00
1.25653	58.00
1.27320	58.00
1.28987	58.00
1.30653	58.00
1.32320	58.00
1.33987	58.00
1.35653	58.00
1.37320	58.00
1.38987	58.00
1.40653	58.00
1.42320	58.00
1.43987	58.00
1.45653	58.00
1.47320	58.00
1.48987	58.00
1.50653	58.00
1.52320	58.00
1.53987	58.00
1.55653	58.00
1.57320	58.00
1.58987	58.00
1.60653	58.00
1.62320	58.00
1.63987	58.00
1.65653	58.01
1.67320	58.01
1.68987	58.00
1.70653	58.00
1.72320	58.00
1.73987	58.00
1.75653	58.00
1.77320	58.00
1.78987	58.00
1.80653	58.00
1.82320	58.00
1.83987	58.00
1.85653	58.00
1.87320	58.00
1.88987	58.00
1.90653	58.00
1.92320	58.00
1.93987	58.00
1.95653	58.00
1.97320	58.00
1.98987	58.00
2.00653	58.00
2.02320	58.00
2.03987	58.00
2.05653	58.00
2.07320	58.00
2.08987	58.00
2.10653	58.00
2.12320	58.00
2.13987	58.00
2.15653	58.00
2.17320	58.00
2.18987	58.00
2.20653	58.00
2.22320	58.00
2.23987	58.00
2.25653	58.00
2.27320	58.00
2.28987	58.00
2.30653	58.00
2.32320	58.00
2.33987	58.00
2.35653	58.00
2.37320	58.00
2.38987	57.99
2.40653	57.99
2.42320	58.00
2.43987	58.00
2.45653	58.00
2.47320	58.00
2.48987	58.00
2.50653	58.00
2.52320	57.99
2.53987	58.00
2.55653	58.00
2.57320	58.00
2.58987	58.00
2.60653	58.00
2.62320	58.00
2.63987	58.00
2.65653	58.00
2.67320	58.00
2.68987	58.00
2.70653	58.00
2.72320	58.00
2.73987	58.00
2.75653	58.00
2.77320	58.00
2.78987	58.00
2.80653	58.00
2.82320	58.00
2.83987	58.00
2.85653	58.00
2.87320	58.00
2.88987	58.00
2.90653	58.00
2.92320	58.00
2.93987	58.00
2.95653	58.00
2.97320	58.00
2.98987	58.00
3.00653	58.00
3.02320	58.00
3.03987	58.00
3.05653	58.00
3.07320	58.00
3.08987	58.00
3.10653	58.00
3.12320	58.00
3.13987	58.00
3.15653	58.00
3.17320	58.00
3.18987	58.00
3.20653	58.00
3.22320	58.00
3.23987	58.00
3.25653	58.00
3.27320	58.00
3.28987	58.00
3.30653	58.00
3.32320	58.00
3.33987	58.00
3.35653	58.00
3.37320	58.00
3.38987	58.00
3.40653	58.00
3.42320	58.00
3.43987	58.00
3.45653	58.00
3.47320	58.00
3.48987	58.00
3.50653	58.00
3.52320	58.00
3.53987	58.00
3.55653	58.00
3.57320	58.00
3.58987	58.00
3.60653	58.00
3.62320	58.00
3.63987	58.00
3.65653	58.00
3.67320	58.00
3.68987	58.00
3.70653	58.00
3.72320	58.00
3.73987	58.00
3.75653	58.00
3.77320	58.00
3.78987	58.00
3.80653	58.00
3.82320	58.00
3.83987	58.00
3.85653	58.00
3.87320	58.00
3.88987	58.00
3.90653	58.00
3.92320	58.00
3.93987	58.00
3.95653	58.00
3.97320	58.00
3.98987	58.00

[Status Trace (Carrier Gas Flow)]
Interval(msec)	1000
# of Points	240
Start Time(min)	0.007
End Time(min)	3.990
Intensity Units	
Intensity Multiplier	1
R.Time (min)	Intensity
0.00653	34.52
0.02320	34.54
0.03987	34.55
0.05653	34.55
0.07320	34.50
0.08987	34.52
0.10653	34.52
0.12320	34.52
0.13987	34.52
0.15653	34.52
0.17320	34.52
0.18987	34.52
0.20653	34.52
0.22320	34.52
0.23987	34.52
0.25653	34.52
0.27320	34.52
0.28987	34.52
0.30653	34.52
0.32320	34.52
0.33987	34.52
0.35653	34.52
0.37320	34.52
0.38987	34.52
0.40653	34.52
0.42320	34.52
0.43987	34.52
0.45653	34.52
0.47320	34.52
0.48987	34.52
0.50653	34.52
0.52320	34.52
0.53987	34.52
0.55653	34.52
0.57320	34.52
0.58987	34.52
0.60653	34.52
0.62320	34.52
0.63987	34.52
0.65653	34.52
0.67320	34.52
0.68987	34.52
0.70653	34.52
0.72320	34.52
0.73987	34.52
0.75653	34.52
0.77320	34.52
0.78987	34.52
0.80653	34.52
0.82320	34.52
0.83987	34.52
0.85653	34.52
0.87320	34.52
0.88987	34.52
0.90653	34.52
0.92320	34.52
0.93987	34.52
0.95653	34.52
0.97320	34.52
0.98987	34.52
1.00653	34.52
1.02320	34.52
1.03987	34.52
1.05653	34.52
1.07320	34.52
1.08987	34.52
1.10653	34.52
1.12320	34.52
1.13987	34.52
1.15653	34.52
1.17320	34.52
1.18987	34.52
1.20653	34.52
1.22320	34.52
1.23987	34.52
1.25653	34.52
1.27320	34.52
1.28987	34.52
1.30653	34.52
1.32320	34.52
1.33987	34.52
1.35653	34.52
1.37320	34.52
1.38987	34.52
1.40653	34.52
1.42320	34.52
1.43987	34.52
1.45653	34.52
1.47320	34.52
1.48987	34.52
1.50653	34.52
1.52320	34.52
1.53987	34.52
1.55653	34.52
1.57320	34.52
1.58987	34.52
1.60653	34.52
1.62320	34.52
1.63987	34.52
1.65653	34.52
1.67320	34.52
1.68987	34.52
1.70653	34.52
1.72320	34.52
1.73987	34.52
1.75653	34.52
1.77320	34.52
1.78987	34.52
1.80653	34.52
1.82320	34.52
1.83987	34.52
1.85653	34.52
1.87320	34.52
1.88987	34.52
1.90653	34.52
1.92320	34.52
1.93987	34.52
1.95653	34.52
1.97320	34.52
1.98987	34.52
2.00653	34.52
2.02320	34.52
2.03987	34.52
2.05653	34.52
2.07320	34.52
2.08987	34.52
2.10653	34.52
2.12320	34.52
2.13987	34.52
2.15653	34.52
2.17320	34.52
2.18987	34.52
2.20653	34.52
2.22320	34.52
2.23987	34.52
2.25653	34.52
2.27320	34.52
2.28987	34.52
2.30653	34.52
2.32320	34.52
2.33987	34.52
2.35653	34.52
2.37320	34.52
2.38987	34.52
2.40653	34.52
2.42320	34.52
2.43987	34.52
2.45653	34.52
2.47320	34.52
2.48987	34.52
2.50653	34.47
2.52320	34.52
2.53987	34.52
2.55653	34.52
2.57320	34.52
2.58987	34.52
2.60653	34.52
2.62320	34.52
2.63987	34.52
2.65653	34.52
2.67320	34.52
2.68987	34.52
2.70653	34.52
2.72320	34.52
2.73987	34.52
2.75653	34.52
2.77320	34.52
2.78987	34.52
2.80653	34.52
2.82320	34.52
2.83987	34.52
2.85653	34.52
2.87320	34.52
2.88987	34.52
2.90653	34.52
2.92320	34.52
2.93987	34.52
2.95653	34.52
2.97320	34.52
2.98987	34.52
3.00653	34.52
3.02320	34.52
3.03987	34.52
3.05653	34.52
3.07320	34.52
3.08987	34.52
3.10653	34.52
3.12320	34.52
3.13987	34.52
3.15653	34.52
3.17320	34.52
3.18987	34.52
3.20653	34.52
3.22320	34.52
3.23987	34.52
3.25653	34.52
3.27320	34.52
3.28987	34.52
3.30653	34.52
3.32320	34.52
3.33987	34.52
3.35653	34.52
3.37320	34.52
3.38987	34.52
3.40653	34.52
3.42320	34.52
3.43987	34.52
3.45653	34.52
3.47320	34.52
3.48987	34.52
3.50653	34.52
3.52320	34.52
3.53987	34.52
3.55653	34.52
3.57320	34.52
3.58987	34.52
3.60653	34.52
3.62320	34.52
3.63987	34.52
3.65653	34.52
3.67320	34.52
3.68987	34.52
3.70653	34.52
3.72320	34.52
3.73987	34.52
3.75653	34.52
3.77320	34.52
3.78987	34.52
3.80653	34.52
3.82320	34.52
3.83987	34.52
3.85653	34.52
3.87320	34.52
3.88987	34.52
3.90653	34.52
3.92320	34.52
3.93987	34.52
3.95653	34.52
3.97320	34.52
3.98987	34.52

[Status Trace (Column Flow)]
Interval(msec)	1000
# of Points	240
Start Time(min)	0.007
End Time(min)	3.990
Intensity Units	
Intensity Multiplier	1
R.Time (min)	Intensity
0.00653	5.53
0.02320	5.25
0.03987	5.39
0.05653	5.64
0.07320	5.73
0.08987	5.55
0.10653	5.53
0.12320	5.53
0.13987	5.53
0.15653	5.53
0.17320	5.53
0.18987	5.53
0.20653	5.53
0.22320	5.53
0.23987	5.53
0.25653	5.53
0.27320	5.53
0.28987	5.53
0.30653	5.53
0.32320	5.53
0.33987	5.53
0.35653	5.53
0.37320	5.53
0.38987	5.53
0.40653	5.53
0.42320	5.53
0.43987	5.53
0.45653	5.53
0.47320	5.53
0.48987	5.53
0.50653	5.53
0.52320	5.53
0.53987	5.53
0.55653	5.53
0.57320	5.53
0.58987	5.53
0.60653	5.53
0.62320	5.53
0.63987	5.53
0.65653	5.53
0.67320	5.53
0.68987	5.53
0.70653	5.53
0.72320	5.53
0.73987	5.53
0.75653	5.53
0.77320	5.53
0.78987	5.53
0.80653	5.53
0.82320	5.53
0.83987	5.53
0.85653	5.53
0.87320	5.53
0.88987	5.53
0.90653	5.53
0.92320	5.53
0.93987	5.53
0.95653	5.53
0.97320	5.53
0.98987	5.53
1.00653	5.53
1.02320	5.53
1.03987	5.53
1.05653	5.53
1.07320	5.53
1.08987	5.53
1.10653	5.53
1.12320	5.53
1.13987	5.53
1.15653	5.53
1.17320	5.53
1.18987	5.53
1.20653	5.53
1.22320	5.53
1.23987	5.53
1.25653	5.53
1.27320	5.53
1.28987	5.53
1.30653	5.53
1.32320	5.53
1.33987	5.53
1.35653	5.53
1.37320	5.53
1.38987	5.53
1.40653	5.53
1.42320	5.53
1.43987	5.53
1.45653	5.53
1.47320	5.53
1.48987	5.53
1.50653	5.53
1.52320	5.53
1.53987	5.53
1.55653	5.53
1.57320	5.53
1.58987	5.53
1.60653	5.53
1.62320	5.53
1.63987	5.52
1.65653	5.51
1.67320	5.50
1.68987	5.49
1.70653	5.48
1.72320	5.47
1.73987	5.46
1.75653	5.45
1.77320	5.44
1.78987	5.43
1.80653	5.42
1.82320	5.41
1.83987	5.40
1.85653	5.39
1.87320	5.38
1.88987	5.37
1.90653	5.36
1.92320	5.35
1.93987	5.34
1.95653	5.33
1.97320	5.32
1.98987	5.31
2.00653	5.30
2.02320	5.29
2.03987	5.28
2.05653	5.27
2.07320	5.26
2.08987	5.25
2.10653	5.24
2.12320	5.23
2.13987	5.22
2.15653	5.21
2.17320	5.20
2.18987	5.20
2.20653	5.19
2.22320	5.18
2.23987	5.17
2.25653	5.16
2.27320	5.15
2.28987	5.14
2.30653	5.13
2.32320	5.12
2.33987	5.11
2.35653	5.10
2.37320	5.10
2.38987	5.09
2.40653	5.09
2.42320	5.09
2.43987	5.09
2.45653	5.09
2.47320	5.09
2.48987	5.09
2.50653	5.09
2.52320	5.09
2.53987	5.09
2.55653	5.09
2.57320	5.09
2.58987	5.09
2.60653	5.09
2.62320	5.09
2.63987	5.09
2.65653	5.09
2.67320	5.09
2.68987	5.09
2.70653	5.09
2.72320	5.09
2.73987	5.09
2.75653	5.09
2.77320	5.09
2.78987	5.09
2.80653	5.09
2.82320	5.09
2.83987	5.09
2.85653	5.09
2.87320	5.09
2.88987	5.09
2.90653	5.09
2.92320	5.09
2.93987	5.09
2.95653	5.09
2.97320	5.09
2.98987	5.09
3.00653	5.09
3.02320	5.09
3.03987	5.09
3.05653	5.09
3.07320	5.09
3.08987	5.08
3.10653	5.08
3.12320	5.08
3.13987	5.08
3.15653	5.08
3.17320	5.08
3.18987	5.08
3.20653	5.08
3.22320	5.08
3.23987	5.08
3.25653	5.08
3.27320	5.08
3.28987	5.09
3.30653	5.09
3.32320	5.09
3.33987	5.09
3.35653	5.09
3.37320	5.09
3.38987	5.09
3.40653	5.09
3.42320	5.09
3.43987	5.09
3.45653	5.09
3.47320	5.09
3.48987	5.09
3.50653	5.09
3.52320	5.09
3.53987	5.09
3.55653	5.09
3.57320	5.09
3.58987	5.09
3.60653	5.09
3.62320	5.08
3.63987	5.08
3.65653	5.09
3.67320	5.09
3.68987	5.09
3.70653	5.09
3.72320	5.09
3.73987	5.09
3.75653	5.09
3.77320	5.08
3.78987	5.08
3.80653	5.08
3.82320	5.08
3.83987	5.08
3.85653	5.08
3.87320	5.08
3.88987	5.08
3.90653	5.08
3.92320	5.08
3.93987	5.08
3.95653	5.08
3.97320	5.08
3.98987	5.08

[Status Trace (Linear Velocity)]
Interval(msec)	1000
# of Points	240
Start Time(min)	0.007
End Time(min)	3.990
Intensity Units	
Intensity Multiplier	1
R.Time (min)	Intensity
0.00653	39.01
0.02320	37.41
0.03987	38.21
0.05653	39.63
0.07320	40.12
0.08987	39.13
0.10653	39.00
0.12320	39.02
0.13987	39.03
0.15653	39.03
0.17320	39.02
0.18987	39.02
0.20653	39.02
0.22320	39.02
0.23987	39.02
0.25653	39.02
0.27320	39.02
0.28987	39.02
0.30653	39.02
0.32320	39.02
0.33987	39.02
0.35653	39.02
0.37320	39.02
0.38987	39.02
0.40653	39.02
0.42320	39.02
0.43987	39.02
0.45653	39.02
0.47320	39.02
0.48987	39.02
0.50653	39.02
0.52320	39.02
0.53987	39.02
0.55653	39.02
0.57320	39.02
0.58987	39.02
0.60653	39.02
0.62320	39.02
0.63987	39.02
0.65653	39.02
0.67320	39.02
0.68987	39.02
0.70653	39.02
0.72320	39.02
0.73987	39.02
0.75653	39.02
0.77320	39.02
0.78987	39.02
0.80653	39.02
0.82320	39.02
0.83987	39.02
0.85653	39.02
0.87320	39.02
0.88987	39.02
0.90653	39.02
0.92320	39.02
0.93987	39.02
0.95653	39.02
0.97320	39.02
0.98987	39.02
1.00653	39.02
1.02320	39.02
1.03987	39.02
1.05653	39.02
1.07320	39.02
1.08987	39.02
1.10653	39.02
1.12320	39.02
1.13987	39.02
1.15653	39.02
1.17320	39.02
1.18987	39.02
1.20653	39.02
1.22320	39.02
1.23987	39.02
1.25653	39.02
1.27320	39.02
1.28987	39.02
1.30653	39.02
1.32320	39.02
1.33987	39.02
1.35653	39.02
1.37320	39.02
1.38987	39.02
1.40653	39.02
1.42320	39.02
1.43987	39.02
1.45653	39.02
1.47320	39.02
1.48987	39.02
1.50653	39.02
1.52320	39.02
1.53987	39.02
1.55653	39.02
1.57320	39.02
1.58987	39.02
1.60653	39.01
1.62320	39.01
1.63987	38.99
1.65653	38.97
1.67320	38.93
1.68987	38.90
1.70653	38.86
1.72320	38.83
1.73987	38.80
1.75653	38.77
1.77320	38.73
1.78987	38.70
1.80653	38.68
1.82320	38.64
1.83987	38.61
1.85653	38.58
1.87320	38.55
1.88987	38.52
1.90653	38.49
1.92320	38.46
1.93987	38.43
1.95653	38.40
1.97320	38.36
1.98987	38.34
2.00653	38.31
2.02320	38.27
2.03987	38.25
2.05653	38.22
2.07320	38.18
2.08987	38.16
2.10653	38.13
2.12320	38.09
2.13987	38.07
2.15653	38.04
2.17320	38.00
2.18987	37.98
2.20653	37.95
2.22320	37.92
2.23987	37.89
2.25653	37.86
2.27320	37.83
2.28987	37.80
2.30653	37.77
2.32320	37.74
2.33987	37.71
2.35653	37.69
2.37320	37.66
2.38987	37.65
2.40653	37.65
2.42320	37.66
2.43987	37.66
2.45653	37.66
2.47320	37.66
2.48987	37.66
2.50653	37.65
2.52320	37.65
2.53987	37.65
2.55653	37.65
2.57320	37.65
2.58987	37.65
2.60653	37.65
2.62320	37.65
2.63987	37.65
2.65653	37.65
2.67320	37.65
2.68987	37.65
2.70653	37.64
2.72320	37.65
2.73987	37.65
2.75653	37.65
2.77320	37.65
2.78987	37.65
2.80653	37.65
2.82320	37.65
2.83987	37.64
2.85653	37.64
2.87320	37.64
2.88987	37.64
2.90653	37.64
2.92320	37.64
2.93987	37.64
2.95653	37.64
2.97320	37.64
2.98987	37.64
3.00653	37.64
3.02320	37.63
3.03987	37.63
3.05653	37.63
3.07320	37.63
3.08987	37.63
3.10653	37.63
3.12320	37.63
3.13987	37.63
3.15653	37.63
3.17320	37.63
3.18987	37.63
3.20653	37.63
3.22320	37.63
3.23987	37.62
3.25653	37.63
3.27320	37.63
3.28987	37.63
3.30653	37.63
3.32320	37.63
3.33987	37.63
3.35653	37.63
3.37320	37.63
3.38987	37.63
3.40653	37.63
3.42320	37.63
3.43987	37.63
3.45653	37.63
3.47320	37.63
3.48987	37.63
3.50653	37.63
3.52320	37.63
3.53987	37.63
3.55653	37.63
3.57320	37.63
3.58987	37.63
3.60653	37.63
3.62320	37.63
3.63987	37.63
3.65653	37.63
3.67320	37.63
3.68987	37.63
3.70653	37.63
3.72320	37.63
3.73987	37.63
3.75653	37.63
3.77320	37.63
3.78987	37.63
3.80653	37.63
3.82320	37.63
3.83987	37.63
3.85653	37.63
3.87320	37.63
3.88987	37.63
3.90653	37.63
3.92320	37.63
3.93987	37.63
3.95653	37.63
3.97320	37.63
3.98987	37.63

