[Header]
Application Name	LabSolutions
Version	5.110
Data File Name	C:\Users\User\Desktop\GC Analyses\Jack\UIC Prairie Sampling\7.9.22\220909_017.gcd
Output Date	9/28/2022
Output Time	11:29:50 AM

[File Information]
Type	Data File
Generated	9/9/2022 3:23:08 PM
Generated by	System Administrator
Modified	9/9/2022 3:27:31 PM
Modified by	System Administrator

[Sample Information]
Operator Name	System Administrator
Acquired	9/9/2022 3:23:29 PM
Sample Type	1:Standard
Level	1
Sample Name	220909_Run
Sample ID	220909_Run
ISTD Amount1	1
ISTD Amount2	1
ISTD Amount3	1
ISTD Amount4	1
ISTD Amount5	1
ISTD Amount6	1
ISTD Amount7	1
ISTD Amount8	1
ISTD Amount9	1
ISTD Amount10	1
ISTD Amount11	1
ISTD Amount12	1
ISTD Amount13	1
ISTD Amount14	1
ISTD Amount15	1
ISTD Amount16	1
ISTD Amount17	1
ISTD Amount18	1
ISTD Amount19	1
ISTD Amount20	1
ISTD Amount21	1
ISTD Amount22	1
ISTD Amount23	1
ISTD Amount24	1
ISTD Amount25	1
ISTD Amount26	1
ISTD Amount27	1
ISTD Amount28	1
ISTD Amount29	1
ISTD Amount30	1
ISTD Amount31	1
ISTD Amount32	1
Sample Amount	1
Dilution Factor	1
Vial#	1
Injection Volume	1
Injection Count	1
Bar Code	

[Original Files]
Data File	C:\Users\User\Desktop\GC Analyses\Jack\220909\220909_017.gcd
Method File	C:\LabSolutions\Data\GHG_4min_2022\ghg3_togas_w_acet_4 min_new_int.gcm
Batch File	
Report Format File	c:\LabSolutions\System\DEFAULT.lsr

[File Description]


[Configuration]
Instrument Name	C0B7VH3-Instrument1
Instrument #	1
Line #	1
# of Detectors	3
Detector ID	DET#1	DET#2	DET#3
Detector Name	FID	PTCD	ECD
# of Channels	1	1	1

[Peak Table(Ch1)]
# of Peaks	3
Peak#	R.Time	I.Time	F.Time	Area	Height	A/H	Conc.	Mark	ID#	Name	k'	Plate #	Plate Ht.	Tailing	Resolution	Sep.Factor	Area Ratio	Height Ratio	Conc. %	Norm Conc.
1	1.472	1.417	1.534	16992	7724	2.200	100.000	   	1	CO	0.000	8580	17.483	1.299	0.000	0.000	0	0	16.667	16.667
2	1.567	1.534	1.615	4358	2286	1.906	100.000	 V 	2	CH4	0.065	11624	12.905	1.204	1.566	0.000	0	0	16.667	16.667
3	1.996	1.938	2.403	3181451	1556071	2.045	400.000	   	3	CO2	0.356	17901	8.379	1.175	7.281	5.500	0	0	66.667	66.667

[Peak Table(Ch2)]
# of Peaks	0

[Peak Table(Ch3)]
# of Peaks	3
Peak#	R.Time	I.Time	F.Time	Area	Height	A/H	Conc.	Mark	ID#	Name	k'	Plate #	Plate Ht.	Tailing	Resolution	Sep.Factor	Area Ratio	Height Ratio	Conc. %	Norm Conc.
1	2.480	0.592	2.649	25840	505	51.212	0.000	   			0.000	52	2864.698	0.546	0.000	0.000	0	0	0.000	0.000
2	2.873	2.667	3.144	39960	6369	6.274	1.000	   	1	N2O	0.158	11250	13.333	0.000	0.530	0.000	0	0	50.000	50.000
3	3.283	3.144	3.995	38274	1211	31.602	1.000	 V 	2	SF6	0.324	33	4554.990	0.000	0.343	2.047	0	0	50.000	50.000

[Compound Results(Ch1)]
# of IDs	6
ID#	Name	R.Time	Area	Height	Conc.	Curve	3rd	2nd	1st	Constant	Area Ratio	Height Ratio	Conc. %	Norm Conc.
1	CO	1.472	16992	7724	100.000	Linear	0.000000e+00	0.000000e+00	1.699184e+002	0.000000e+00	0	0	16.667	16.667
2	CH4	1.567	4358	2286	100.000	Linear	0.000000e+00	0.000000e+00	4.357897e+001	0.000000e+00	0	0	16.667	16.667
3	CO2	1.996	3181451	1556071	400.000	Linear	0.000000e+00	0.000000e+00	7.953628e+003	0.000000e+00	0	0	66.667	66.667
4	Ethylene	0.000	0	0	0.000	Linear	0.000000e+00	0.000000e+00	0.000000e+00	0.000000e+00	0	0	0.000	0.000
5	Acetylene	0.000	0	0	0.000	Linear	0.000000e+00	0.000000e+00	0.000000e+00	0.000000e+00	0	0	0.000	0.000
6	Ethane	0.000	0	0	0.000	Linear	0.000000e+00	0.000000e+00	0.000000e+00	0.000000e+00	0	0	0.000	0.000

[Compound Results(Ch2)]
# of IDs	5
ID#	Name	R.Time	Area	Height	Conc.	Curve	3rd	2nd	1st	Constant	Area Ratio	Height Ratio	Conc. %	Norm Conc.
1	Hydrogen	0.000	0	0	0.000	Linear	0.000000e+00	0.000000e+00	0.000000e+00	0.000000e+00	0	0	0.000	0.000
2	Oxygen	0.000	0	0	0.000	Linear	0.000000e+00	0.000000e+00	0.000000e+00	0.000000e+00	0	0	0.000	0.000
3	Nitrogen	0.000	0	0	0.000	Linear	0.000000e+00	0.000000e+00	0.000000e+00	0.000000e+00	0	0	0.000	0.000
4	Methane	0.000	0	0	0.000	Linear	0.000000e+00	0.000000e+00	0.000000e+00	0.000000e+00	0	0	0.000	0.000
5	Carbon Monoxide	0.000	0	0	0.000	Linear	0.000000e+00	0.000000e+00	0.000000e+00	0.000000e+00	0	0	0.000	0.000

[Compound Results(Ch3)]
# of IDs	2
ID#	Name	R.Time	Area	Height	Conc.	Curve	3rd	2nd	1st	Constant	Area Ratio	Height Ratio	Conc. %	Norm Conc.
1	N2O	2.873	39960	6369	1.000	Linear	0.000000e+00	0.000000e+00	3.996029e+004	0.000000e+00	0	0	50.000	50.000
2	SF6	3.283	38274	1211	1.000	Linear	0.000000e+00	0.000000e+00	3.827407e+004	0.000000e+00	0	0	50.000	50.000

[Group Results(Ch1)]
# of Groups	0

[Group Results(Ch2)]
# of Groups	0

[Group Results(Ch3)]
# of Groups	0

[Chromatogram (Ch1)]
Interval(msec)	220
# of Points	1091
Start Time(min)	0.002
End Time(min)	3.998
R.Time (min)	Intensity
0.00167	28
0.00533	37
0.00900	40
0.01267	38
0.01633	35
0.02000	29
0.02367	25
0.02733	29
0.03100	34
0.03467	38
0.03833	37
0.04200	33
0.04567	30
0.04933	26
0.05300	26
0.05667	26
0.06033	22
0.06400	17
0.06767	17
0.07133	16
0.07500	16
0.07867	17
0.08233	17
0.08600	18
0.08967	18
0.09333	18
0.09700	16
0.10067	12
0.10433	6
0.10800	2
0.11167	1
0.11533	4
0.11900	10
0.12267	16
0.12633	20
0.13000	19
0.13367	15
0.13733	11
0.14100	7
0.14467	2
0.14833	-4
0.15200	-6
0.15567	-5
0.15933	-5
0.16300	-7
0.16667	-9
0.17033	-6
0.17400	-2
0.17767	3
0.18133	8
0.18500	8
0.18867	6
0.19233	4
0.19600	1
0.19967	-3
0.20333	-7
0.20700	-13
0.21067	-17
0.21433	-19
0.21800	-21
0.22167	-20
0.22533	-14
0.22900	-9
0.23267	-5
0.23633	-0
0.24000	3
0.24367	6
0.24733	2
0.25100	-11
0.25467	-24
0.25833	-34
0.26200	-40
0.26567	-42
0.26933	-37
0.27300	-32
0.27667	-28
0.28033	-29
0.28400	-28
0.28767	-25
0.29133	-24
0.29500	-22
0.29867	-20
0.30233	-19
0.30600	-20
0.30967	-24
0.31333	-26
0.31700	-26
0.32067	-26
0.32433	-28
0.32800	-32
0.33167	-36
0.33533	-38
0.33900	-38
0.34267	-38
0.34633	-34
0.35000	-28
0.35367	-23
0.35733	-20
0.36100	-18
0.36467	-17
0.36833	-16
0.37200	-14
0.37567	-17
0.37933	-23
0.38300	-30
0.38667	-35
0.39033	-34
0.39400	-31
0.39767	-30
0.40133	-30
0.40500	-30
0.40867	-26
0.41233	-23
0.41600	-24
0.41967	-26
0.42333	-23
0.42700	-19
0.43067	-18
0.43433	-18
0.43800	-22
0.44167	-30
0.44533	-40
0.44900	-48
0.45267	-52
0.45633	-49
0.46000	-42
0.46367	-36
0.46733	-34
0.47100	-36
0.47467	-33
0.47833	-31
0.48200	-33
0.48567	-38
0.48933	-45
0.49300	-48
0.49667	-44
0.50033	-38
0.50400	-30
0.50767	-26
0.51133	-27
0.51500	-28
0.51867	-30
0.52233	-33
0.52600	-38
0.52967	-45
0.53333	-50
0.53700	-52
0.54067	-51
0.54433	-48
0.54800	-45
0.55167	-38
0.55533	-28
0.55900	-19
0.56267	-14
0.56633	-11
0.57000	-16
0.57367	-28
0.57733	-44
0.58100	-57
0.58467	-62
0.58833	-62
0.59200	-58
0.59567	-46
0.59933	-30
0.60300	-18
0.60667	-15
0.61033	-21
0.61400	-32
0.61767	-42
0.62133	-48
0.62500	-52
0.62867	-57
0.63233	-62
0.63600	-64
0.63967	-67
0.64333	-70
0.64700	-71
0.65067	-67
0.65433	-69
0.65800	-70
0.66167	-69
0.66533	-66
0.66900	-68
0.67267	-70
0.67633	-71
0.68000	-67
0.68367	-60
0.68733	-57
0.69100	-54
0.69467	-51
0.69833	-47
0.70200	-45
0.70567	-46
0.70933	-45
0.71300	-41
0.71667	-41
0.72033	-50
0.72400	-56
0.72767	-55
0.73133	-45
0.73500	-33
0.73867	-33
0.74233	-40
0.74600	-45
0.74967	-49
0.75333	-54
0.75700	-62
0.76067	-69
0.76433	-74
0.76800	-74
0.77167	-74
0.77533	-73
0.77900	-79
0.78267	-79
0.78633	-79
0.79000	-77
0.79367	-73
0.79733	-70
0.80100	-64
0.80467	-57
0.80833	-53
0.81200	-52
0.81567	-53
0.81933	-58
0.82300	-64
0.82667	-70
0.83033	-75
0.83400	-78
0.83767	-78
0.84133	-77
0.84500	-71
0.84867	-64
0.85233	-65
0.85600	-69
0.85967	-69
0.86333	-67
0.86700	-67
0.87067	-63
0.87433	-59
0.87800	-66
0.88167	-69
0.88533	-66
0.88900	-59
0.89267	-52
0.89633	-48
0.90000	-47
0.90367	-45
0.90733	-47
0.91100	-53
0.91467	-57
0.91833	-63
0.92200	-68
0.92567	-68
0.92933	-68
0.93300	-70
0.93667	-74
0.94033	-81
0.94400	-83
0.94767	-83
0.95133	-77
0.95500	-70
0.95867	-68
0.96233	-70
0.96600	-78
0.96967	-85
0.97333	-93
0.97700	-94
0.98067	-90
0.98433	-86
0.98800	-81
0.99167	-78
0.99533	-77
0.99900	-76
1.00267	-76
1.00633	-76
1.01000	-77
1.01367	-77
1.01733	-75
1.02100	-72
1.02467	-68
1.02833	-65
1.03200	-67
1.03567	-71
1.03933	-74
1.04300	-74
1.04667	-75
1.05033	-75
1.05400	-73
1.05767	-74
1.06133	-78
1.06500	-83
1.06867	-84
1.07233	-82
1.07600	-78
1.07967	-77
1.08333	-79
1.08700	-80
1.09067	-76
1.09433	-76
1.09800	-81
1.10167	-89
1.10533	-91
1.10900	-96
1.11267	-94
1.11633	-96
1.12000	-97
1.12367	-101
1.12733	-104
1.13100	-102
1.13467	-97
1.13833	-89
1.14200	-82
1.14567	-78
1.14933	-80
1.15300	-86
1.15667	-96
1.16033	-96
1.16400	-92
1.16767	-90
1.17133	-92
1.17500	-78
1.17867	-70
1.18233	-66
1.18600	-66
1.18967	-70
1.19333	-72
1.19700	-72
1.20067	-73
1.20433	-75
1.20800	-77
1.21167	-78
1.21533	-78
1.21900	-77
1.22267	-74
1.22633	-71
1.23000	-72
1.23367	-73
1.23733	-76
1.24100	-80
1.24467	-88
1.24833	-95
1.25200	-99
1.25567	-98
1.25933	-95
1.26300	-93
1.26667	-92
1.27033	-91
1.27400	-90
1.27767	-88
1.28133	-86
1.28500	-81
1.28867	-79
1.29233	-83
1.29600	-86
1.29967	-90
1.30333	-90
1.30700	-90
1.31067	-92
1.31433	-93
1.31800	-96
1.32167	-96
1.32533	-91
1.32900	-85
1.33267	-82
1.33633	-86
1.34000	-91
1.34367	-94
1.34733	-96
1.35100	-95
1.35467	-93
1.35833	-93
1.36200	-93
1.36567	-92
1.36933	-89
1.37300	-88
1.37667	-103
1.38033	-109
1.38400	-106
1.38767	-88
1.39133	-85
1.39500	-85
1.39867	-85
1.40233	-88
1.40600	-96
1.40967	-104
1.41333	-106
1.41700	-101
1.42067	-95
1.42433	-90
1.42800	-83
1.43167	-80
1.43533	-74
1.43900	-30
1.44267	157
1.44633	620
1.45000	1428
1.45367	2604
1.45733	4032
1.46100	5441
1.46467	6589
1.46833	7334
1.47200	7615
1.47567	7434
1.47933	6843
1.48300	5950
1.48667	4903
1.49033	3853
1.49400	2914
1.49767	2140
1.50133	1537
1.50500	1084
1.50867	746
1.51233	496
1.51600	317
1.51967	188
1.52333	88
1.52700	7
1.53067	-50
1.53433	-79
1.53800	-75
1.54167	-6
1.54533	188
1.54900	536
1.55267	975
1.55633	1413
1.56000	1782
1.56367	2045
1.56733	2163
1.57100	2103
1.57467	1872
1.57833	1519
1.58200	1131
1.58567	778
1.58933	495
1.59300	284
1.59667	136
1.60033	39
1.60400	-24
1.60767	-75
1.61133	-111
1.61500	-131
1.61867	-136
1.62233	-136
1.62600	-135
1.62967	-134
1.63333	-138
1.63700	-143
1.64067	-160
1.64433	-181
1.64800	-201
1.65167	-215
1.65533	-223
1.65900	-226
1.66267	-226
1.66633	-220
1.67000	-212
1.67367	-203
1.67733	-193
1.68100	-183
1.68467	-174
1.68833	-165
1.69200	-153
1.69567	-144
1.69933	-139
1.70300	-136
1.70667	-135
1.71033	-138
1.71400	-141
1.71767	-141
1.72133	-139
1.72500	-139
1.72867	-142
1.73233	-150
1.73600	-156
1.73967	-153
1.74333	-149
1.74700	-147
1.75067	-148
1.75433	-151
1.75800	-154
1.76167	-160
1.76533	-166
1.76900	-169
1.77267	-166
1.77633	-163
1.78000	-153
1.78367	-146
1.78733	-142
1.79100	-139
1.79467	-135
1.79833	-129
1.80200	-123
1.80567	-118
1.80933	-117
1.81300	-122
1.81667	-129
1.82033	-135
1.82400	-140
1.82767	-144
1.83133	-143
1.83500	-142
1.83867	-136
1.84233	-131
1.84600	-130
1.84967	-130
1.85333	-131
1.85700	-133
1.86067	-135
1.86433	-136
1.86800	-136
1.87167	-137
1.87533	-142
1.87900	-143
1.88267	-145
1.88633	-144
1.89000	-139
1.89367	-136
1.89733	-132
1.90100	-126
1.90467	-120
1.90833	-118
1.91200	-118
1.91567	-120
1.91933	-124
1.92300	-130
1.92667	-134
1.93033	-137
1.93400	-136
1.93767	-133
1.94133	-128
1.94500	-121
1.94867	-110
1.95233	-36
1.95600	498
1.95967	3469
1.96333	15999
1.96700	56207
1.97067	154452
1.97433	338080
1.97800	604848
1.98167	913059
1.98533	1203595
1.98900	1425884
1.99267	1547439
1.99633	1555960
2.00000	1457865
2.00367	1277475
2.00733	1051727
2.01100	818642
2.01467	607513
2.01833	434003
2.02200	301443
2.02567	205461
2.02933	138574
2.03300	93161
2.03667	62841
2.04033	42784
2.04400	29558
2.04767	20818
2.05133	14997
2.05500	11073
2.05867	8397
2.06233	6538
2.06600	5218
2.06967	4257
2.07333	3542
2.07700	3001
2.08067	2581
2.08433	2251
2.08800	1981
2.09167	1761
2.09533	1584
2.09900	1442
2.10267	1324
2.10633	1223
2.11000	1132
2.11367	1049
2.11733	972
2.12100	905
2.12467	851
2.12833	797
2.13200	757
2.13567	719
2.13933	681
2.14300	647
2.14667	617
2.15033	588
2.15400	559
2.15767	533
2.16133	510
2.16500	493
2.16867	480
2.17233	467
2.17600	450
2.17967	425
2.18333	392
2.18700	360
2.19067	341
2.19433	336
2.19800	329
2.20167	319
2.20533	309
2.20900	299
2.21267	291
2.21633	282
2.22000	271
2.22367	255
2.22733	242
2.23100	233
2.23467	227
2.23833	223
2.24200	219
2.24567	211
2.24933	202
2.25300	192
2.25667	187
2.26033	184
2.26400	183
2.26767	180
2.27133	176
2.27500	171
2.27867	165
2.28233	157
2.28600	146
2.28967	135
2.29333	127
2.29700	120
2.30067	113
2.30433	104
2.30800	94
2.31167	89
2.31533	88
2.31900	92
2.32267	97
2.32633	97
2.33000	93
2.33367	89
2.33733	87
2.34100	87
2.34467	86
2.34833	84
2.35200	82
2.35567	76
2.35933	68
2.36300	63
2.36667	62
2.37033	63
2.37400	64
2.37767	64
2.38133	61
2.38500	57
2.38867	52
2.39233	49
2.39600	45
2.39967	42
2.40333	42
2.40700	44
2.41067	46
2.41433	45
2.41800	42
2.42167	39
2.42533	35
2.42900	33
2.43267	31
2.43633	29
2.44000	25
2.44367	21
2.44733	21
2.45100	22
2.45467	21
2.45833	18
2.46200	13
2.46567	7
2.46933	2
2.47300	-2
2.47667	-7
2.48033	-12
2.48400	-14
2.48767	-15
2.49133	-13
2.49500	-9
2.49867	-8
2.50233	-6
2.50600	-7
2.50967	-13
2.51333	-20
2.51700	-25
2.52067	-24
2.52433	-19
2.52800	-15
2.53167	-15
2.53533	-18
2.53900	-21
2.54267	-25
2.54633	-27
2.55000	-27
2.55367	-33
2.55733	-41
2.56100	-49
2.56467	-56
2.56833	-61
2.57200	-62
2.57567	-62
2.57933	-62
2.58300	-63
2.58667	-61
2.59033	-58
2.59400	-53
2.59767	-45
2.60133	-41
2.60500	-44
2.60867	-52
2.61233	-60
2.61600	-67
2.61967	-72
2.62333	-76
2.62700	-80
2.63067	-81
2.63433	-83
2.63800	-83
2.64167	-78
2.64533	-72
2.64900	-68
2.65267	-68
2.65633	-71
2.66000	-74
2.66367	-74
2.66733	-70
2.67100	-68
2.67467	-69
2.67833	-69
2.68200	-69
2.68567	-70
2.68933	-70
2.69300	-71
2.69667	-72
2.70033	-74
2.70400	-78
2.70767	-79
2.71133	-81
2.71500	-81
2.71867	-76
2.72233	-71
2.72600	-71
2.72967	-76
2.73333	-81
2.73700	-85
2.74067	-89
2.74433	-91
2.74800	-93
2.75167	-92
2.75533	-93
2.75900	-91
2.76267	-89
2.76633	-90
2.77000	-95
2.77367	-101
2.77733	-103
2.78100	-105
2.78467	-109
2.78833	-108
2.79200	-105
2.79567	-100
2.79933	-95
2.80300	-91
2.80667	-89
2.81033	-87
2.81400	-84
2.81767	-81
2.82133	-81
2.82500	-84
2.82867	-85
2.83233	-83
2.83600	-79
2.83967	-77
2.84333	-82
2.84700	-87
2.85067	-88
2.85433	-92
2.85800	-94
2.86167	-94
2.86533	-90
2.86900	-90
2.87267	-97
2.87633	-110
2.88000	-119
2.88367	-120
2.88733	-116
2.89100	-105
2.89467	-93
2.89833	-89
2.90200	-91
2.90567	-99
2.90933	-111
2.91300	-121
2.91667	-122
2.92033	-118
2.92400	-114
2.92767	-114
2.93133	-114
2.93500	-113
2.93867	-111
2.94233	-108
2.94600	-106
2.94967	-104
2.95333	-102
2.95700	-101
2.96067	-100
2.96433	-101
2.96800	-105
2.97167	-104
2.97533	-100
2.97900	-99
2.98267	-97
2.98633	-97
2.99000	-94
2.99367	-91
2.99733	-90
3.00100	-92
3.00467	-95
3.00833	-95
3.01200	-92
3.01567	-91
3.01933	-93
3.02300	-95
3.02667	-97
3.03033	-98
3.03400	-96
3.03767	-99
3.04133	-105
3.04500	-112
3.04867	-118
3.05233	-124
3.05600	-130
3.05967	-125
3.06333	-117
3.06700	-113
3.07067	-106
3.07433	-102
3.07800	-101
3.08167	-104
3.08533	-109
3.08900	-116
3.09267	-122
3.09633	-127
3.10000	-130
3.10367	-132
3.10733	-130
3.11100	-126
3.11467	-124
3.11833	-122
3.12200	-120
3.12567	-120
3.12933	-121
3.13300	-121
3.13667	-121
3.14033	-119
3.14400	-116
3.14767	-115
3.15133	-115
3.15500	-114
3.15867	-112
3.16233	-110
3.16600	-109
3.16967	-110
3.17333	-114
3.17700	-120
3.18067	-126
3.18433	-129
3.18800	-129
3.19167	-127
3.19533	-126
3.19900	-128
3.20267	-130
3.20633	-132
3.21000	-130
3.21367	-123
3.21733	-120
3.22100	-122
3.22467	-123
3.22833	-121
3.23200	-118
3.23567	-119
3.23933	-119
3.24300	-120
3.24667	-123
3.25033	-124
3.25400	-122
3.25767	-118
3.26133	-116
3.26500	-117
3.26867	-118
3.27233	-120
3.27600	-124
3.27967	-127
3.28333	-128
3.28700	-127
3.29067	-131
3.29433	-137
3.29800	-143
3.30167	-147
3.30533	-148
3.30900	-145
3.31267	-139
3.31633	-128
3.32000	-117
3.32367	-112
3.32733	-113
3.33100	-117
3.33467	-124
3.33833	-134
3.34200	-139
3.34567	-138
3.34933	-135
3.35300	-135
3.35667	-140
3.36033	-149
3.36400	-159
3.36767	-162
3.37133	-157
3.37500	-147
3.37867	-139
3.38233	-136
3.38600	-139
3.38967	-147
3.39333	-150
3.39700	-147
3.40067	-145
3.40433	-143
3.40800	-144
3.41167	-147
3.41533	-147
3.41900	-139
3.42267	-134
3.42633	-128
3.43000	-129
3.43367	-129
3.43733	-124
3.44100	-119
3.44467	-116
3.44833	-117
3.45200	-114
3.45567	-116
3.45933	-123
3.46300	-132
3.46667	-137
3.47033	-141
3.47400	-144
3.47767	-145
3.48133	-139
3.48500	-127
3.48867	-124
3.49233	-131
3.49600	-140
3.49967	-144
3.50333	-145
3.50700	-148
3.51067	-151
3.51433	-149
3.51800	-142
3.52167	-130
3.52533	-120
3.52900	-117
3.53267	-119
3.53633	-124
3.54000	-129
3.54367	-132
3.54733	-138
3.55100	-147
3.55467	-155
3.55833	-160
3.56200	-160
3.56567	-157
3.56933	-151
3.57300	-147
3.57667	-145
3.58033	-144
3.58400	-143
3.58767	-142
3.59133	-139
3.59500	-131
3.59867	-125
3.60233	-125
3.60600	-128
3.60967	-131
3.61333	-136
3.61700	-142
3.62067	-148
3.62433	-149
3.62800	-146
3.63167	-140
3.63533	-135
3.63900	-129
3.64267	-127
3.64633	-133
3.65000	-142
3.65367	-152
3.65733	-159
3.66100	-162
3.66467	-157
3.66833	-151
3.67200	-141
3.67567	-136
3.67933	-134
3.68300	-137
3.68667	-143
3.69033	-147
3.69400	-151
3.69767	-155
3.70133	-158
3.70500	-158
3.70867	-155
3.71233	-148
3.71600	-144
3.71967	-143
3.72333	-145
3.72700	-147
3.73067	-148
3.73433	-150
3.73800	-151
3.74167	-152
3.74533	-150
3.74900	-148
3.75267	-145
3.75633	-144
3.76000	-140
3.76367	-137
3.76733	-134
3.77100	-133
3.77467	-137
3.77833	-145
3.78200	-156
3.78567	-163
3.78933	-167
3.79300	-165
3.79667	-160
3.80033	-157
3.80400	-153
3.80767	-151
3.81133	-152
3.81500	-153
3.81867	-158
3.82233	-162
3.82600	-159
3.82967	-149
3.83333	-140
3.83700	-141
3.84067	-147
3.84433	-151
3.84800	-156
3.85167	-160
3.85533	-163
3.85900	-165
3.86267	-165
3.86633	-161
3.87000	-152
3.87367	-145
3.87733	-138
3.88100	-137
3.88467	-139
3.88833	-146
3.89200	-153
3.89567	-157
3.89933	-159
3.90300	-159
3.90667	-161
3.91033	-160
3.91400	-156
3.91767	-150
3.92133	-147
3.92500	-149
3.92867	-152
3.93233	-153
3.93600	-153
3.93967	-153
3.94333	-153
3.94700	-155
3.95067	-156
3.95433	-158
3.95800	-161
3.96167	-162
3.96533	-159
3.96900	-156
3.97267	-153
3.97633	-152
3.98000	-150
3.98367	-149
3.98733	-153
3.99100	-156
3.99467	-157
3.99833	-154

[Chromatogram (Ch2)]
Interval(msec)	220
# of Points	1091
Start Time(min)	0.002
End Time(min)	3.998
R.Time (min)	Intensity
0.00167	0
0.00533	0
0.00900	0
0.01267	0
0.01633	0
0.02000	0
0.02367	0
0.02733	-0
0.03100	-0
0.03467	-1
0.03833	-1
0.04200	-2
0.04567	-2
0.04933	-2
0.05300	-3
0.05667	-3
0.06033	-3
0.06400	-3
0.06767	-3
0.07133	-3
0.07500	-3
0.07867	-3
0.08233	-2
0.08600	-2
0.08967	-2
0.09333	-2
0.09700	-1
0.10067	-1
0.10433	-1
0.10800	-0
0.11167	0
0.11533	1
0.11900	1
0.12267	1
0.12633	2
0.13000	2
0.13367	2
0.13733	2
0.14100	2
0.14467	2
0.14833	2
0.15200	2
0.15567	3
0.15933	3
0.16300	3
0.16667	3
0.17033	3
0.17400	3
0.17767	3
0.18133	3
0.18500	3
0.18867	3
0.19233	3
0.19600	3
0.19967	3
0.20333	3
0.20700	3
0.21067	3
0.21433	2
0.21800	2
0.22167	2
0.22533	2
0.22900	2
0.23267	1
0.23633	1
0.24000	1
0.24367	1
0.24733	1
0.25100	1
0.25467	1
0.25833	1
0.26200	1
0.26567	1
0.26933	1
0.27300	0
0.27667	-0
0.28033	-0
0.28400	-1
0.28767	-1
0.29133	-1
0.29500	-2
0.29867	-2
0.30233	-2
0.30600	-2
0.30967	-2
0.31333	-2
0.31700	-3
0.32067	-3
0.32433	-3
0.32800	-3
0.33167	-3
0.33533	-4
0.33900	-4
0.34267	-4
0.34633	-4
0.35000	-4
0.35367	-5
0.35733	-5
0.36100	-5
0.36467	-5
0.36833	-4
0.37200	-4
0.37567	-4
0.37933	-4
0.38300	-3
0.38667	-3
0.39033	-3
0.39400	-3
0.39767	-3
0.40133	-2
0.40500	-2
0.40867	-2
0.41233	-2
0.41600	-2
0.41967	-3
0.42333	-3
0.42700	-2
0.43067	-2
0.43433	-2
0.43800	-2
0.44167	-2
0.44533	-2
0.44900	-2
0.45267	-2
0.45633	-2
0.46000	-3
0.46367	-3
0.46733	-3
0.47100	-3
0.47467	-3
0.47833	-3
0.48200	-3
0.48567	-3
0.48933	-3
0.49300	-3
0.49667	-3
0.50033	-2
0.50400	-2
0.50767	-2
0.51133	-2
0.51500	-2
0.51867	-2
0.52233	-2
0.52600	-1
0.52967	-1
0.53333	-1
0.53700	-1
0.54067	-1
0.54433	-1
0.54800	-1
0.55167	-1
0.55533	-1
0.55900	-1
0.56267	-1
0.56633	-1
0.57000	-2
0.57367	-2
0.57733	-2
0.58100	-2
0.58467	-2
0.58833	-1
0.59200	-1
0.59567	-1
0.59933	-1
0.60300	-1
0.60667	-1
0.61033	-1
0.61400	-2
0.61767	-2
0.62133	-2
0.62500	-2
0.62867	-2
0.63233	-2
0.63600	-3
0.63967	-3
0.64333	-3
0.64700	-3
0.65067	-3
0.65433	-3
0.65800	-3
0.66167	-3
0.66533	-3
0.66900	-3
0.67267	-3
0.67633	-3
0.68000	-3
0.68367	-3
0.68733	-4
0.69100	-4
0.69467	-5
0.69833	-5
0.70200	-6
0.70567	-6
0.70933	-7
0.71300	-7
0.71667	-7
0.72033	-8
0.72400	-8
0.72767	-8
0.73133	-8
0.73500	-8
0.73867	-8
0.74233	-9
0.74600	-9
0.74967	-9
0.75333	-9
0.75700	-9
0.76067	-9
0.76433	-9
0.76800	-9
0.77167	-9
0.77533	-8
0.77900	-8
0.78267	-7
0.78633	-6
0.79000	-5
0.79367	-4
0.79733	-3
0.80100	-3
0.80467	-2
0.80833	-1
0.81200	-1
0.81567	-1
0.81933	-0
0.82300	-0
0.82667	0
0.83033	0
0.83400	0
0.83767	0
0.84133	0
0.84500	0
0.84867	0
0.85233	0
0.85600	0
0.85967	0
0.86333	0
0.86700	-0
0.87067	-0
0.87433	-0
0.87800	-0
0.88167	-1
0.88533	-1
0.88900	-1
0.89267	-1
0.89633	-2
0.90000	-2
0.90367	-2
0.90733	-2
0.91100	-2
0.91467	-2
0.91833	-2
0.92200	-2
0.92567	-2
0.92933	-2
0.93300	-2
0.93667	-1
0.94033	-1
0.94400	-2
0.94767	-2
0.95133	-2
0.95500	-2
0.95867	-2
0.96233	-2
0.96600	-2
0.96967	-2
0.97333	-2
0.97700	-2
0.98067	-2
0.98433	-2
0.98800	-2
0.99167	-2
0.99533	-2
0.99900	-2
1.00267	-3
1.00633	-3
1.01000	-3
1.01367	-3
1.01733	-3
1.02100	-4
1.02467	-4
1.02833	-4
1.03200	-4
1.03567	-4
1.03933	-4
1.04300	-4
1.04667	-4
1.05033	-4
1.05400	-4
1.05767	-4
1.06133	-5
1.06500	-5
1.06867	-6
1.07233	-6
1.07600	-6
1.07967	-6
1.08333	-6
1.08700	-6
1.09067	-6
1.09433	-7
1.09800	-7
1.10167	-7
1.10533	-7
1.10900	-8
1.11267	-8
1.11633	-8
1.12000	-8
1.12367	-8
1.12733	-8
1.13100	-8
1.13467	-8
1.13833	-7
1.14200	-7
1.14567	-7
1.14933	-7
1.15300	-7
1.15667	-6
1.16033	-6
1.16400	-6
1.16767	-6
1.17133	-7
1.17500	-7
1.17867	-7
1.18233	-7
1.18600	-7
1.18967	-7
1.19333	-7
1.19700	-7
1.20067	-6
1.20433	-5
1.20800	-5
1.21167	-4
1.21533	-3
1.21900	-2
1.22267	-2
1.22633	-1
1.23000	-1
1.23367	-0
1.23733	-0
1.24100	0
1.24467	0
1.24833	0
1.25200	0
1.25567	0
1.25933	1
1.26300	1
1.26667	1
1.27033	1
1.27400	1
1.27767	0
1.28133	0
1.28500	-0
1.28867	-0
1.29233	-0
1.29600	-1
1.29967	-1
1.30333	-1
1.30700	-1
1.31067	-1
1.31433	-2
1.31800	-2
1.32167	-3
1.32533	-3
1.32900	-3
1.33267	-4
1.33633	-4
1.34000	-5
1.34367	-5
1.34733	-6
1.35100	-6
1.35467	-6
1.35833	-7
1.36200	-7
1.36567	-7
1.36933	-7
1.37300	-6
1.37667	-6
1.38033	-6
1.38400	-6
1.38767	-6
1.39133	-5
1.39500	-5
1.39867	-5
1.40233	-5
1.40600	-5
1.40967	-5
1.41333	-6
1.41700	-6
1.42067	-5
1.42433	-5
1.42800	-5
1.43167	-5
1.43533	-5
1.43900	-4
1.44267	-4
1.44633	-4
1.45000	-4
1.45367	-3
1.45733	-3
1.46100	-3
1.46467	-3
1.46833	-3
1.47200	-2
1.47567	-2
1.47933	-2
1.48300	-2
1.48667	-2
1.49033	-2
1.49400	-2
1.49767	-3
1.50133	-3
1.50500	-3
1.50867	-4
1.51233	-4
1.51600	-4
1.51967	-5
1.52333	-5
1.52700	-5
1.53067	-5
1.53433	-5
1.53800	-5
1.54167	-5
1.54533	-5
1.54900	-5
1.55267	-6
1.55633	-6
1.56000	-5
1.56367	-5
1.56733	-5
1.57100	-5
1.57467	-6
1.57833	-6
1.58200	-6
1.58567	-6
1.58933	-7
1.59300	-7
1.59667	-7
1.60033	-8
1.60400	-9
1.60767	-10
1.61133	-12
1.61500	-13
1.61867	-15
1.62233	-17
1.62600	-19
1.62967	-21
1.63333	-23
1.63700	-26
1.64067	-29
1.64433	-33
1.64800	-36
1.65167	-39
1.65533	-43
1.65900	-47
1.66267	-51
1.66633	-55
1.67000	-60
1.67367	-65
1.67733	-71
1.68100	-76
1.68467	-81
1.68833	-86
1.69200	-91
1.69567	-95
1.69933	-98
1.70300	-101
1.70667	-104
1.71033	-106
1.71400	-108
1.71767	-109
1.72133	-110
1.72500	-112
1.72867	-113
1.73233	-114
1.73600	-115
1.73967	-116
1.74333	-117
1.74700	-118
1.75067	-118
1.75433	-119
1.75800	-119
1.76167	-119
1.76533	-119
1.76900	-118
1.77267	-118
1.77633	-117
1.78000	-117
1.78367	-117
1.78733	-118
1.79100	-119
1.79467	-120
1.79833	-121
1.80200	-122
1.80567	-122
1.80933	-123
1.81300	-123
1.81667	-123
1.82033	-123
1.82400	-123
1.82767	-123
1.83133	-123
1.83500	-123
1.83867	-123
1.84233	-123
1.84600	-123
1.84967	-123
1.85333	-123
1.85700	-123
1.86067	-123
1.86433	-124
1.86800	-124
1.87167	-124
1.87533	-124
1.87900	-124
1.88267	-123
1.88633	-123
1.89000	-123
1.89367	-123
1.89733	-123
1.90100	-122
1.90467	-122
1.90833	-122
1.91200	-121
1.91567	-121
1.91933	-121
1.92300	-120
1.92667	-120
1.93033	-119
1.93400	-119
1.93767	-119
1.94133	-119
1.94500	-119
1.94867	-119
1.95233	-119
1.95600	-119
1.95967	-118
1.96333	-118
1.96700	-118
1.97067	-117
1.97433	-117
1.97800	-117
1.98167	-117
1.98533	-117
1.98900	-117
1.99267	-117
1.99633	-117
2.00000	-116
2.00367	-115
2.00733	-114
2.01100	-113
2.01467	-112
2.01833	-111
2.02200	-110
2.02567	-110
2.02933	-109
2.03300	-109
2.03667	-110
2.04033	-110
2.04400	-111
2.04767	-112
2.05133	-112
2.05500	-113
2.05867	-113
2.06233	-113
2.06600	-113
2.06967	-113
2.07333	-113
2.07700	-112
2.08067	-111
2.08433	-110
2.08800	-109
2.09167	-109
2.09533	-108
2.09900	-107
2.10267	-107
2.10633	-107
2.11000	-107
2.11367	-107
2.11733	-107
2.12100	-107
2.12467	-107
2.12833	-106
2.13200	-106
2.13567	-105
2.13933	-104
2.14300	-104
2.14667	-104
2.15033	-104
2.15400	-104
2.15767	-105
2.16133	-105
2.16500	-106
2.16867	-106
2.17233	-106
2.17600	-105
2.17967	-105
2.18333	-104
2.18700	-103
2.19067	-103
2.19433	-102
2.19800	-102
2.20167	-102
2.20533	-103
2.20900	-103
2.21267	-103
2.21633	-102
2.22000	-102
2.22367	-101
2.22733	-100
2.23100	-99
2.23467	-99
2.23833	-98
2.24200	-98
2.24567	-99
2.24933	-99
2.25300	-99
2.25667	-99
2.26033	-99
2.26400	-99
2.26767	-98
2.27133	-97
2.27500	-96
2.27867	-95
2.28233	-94
2.28600	-93
2.28967	-93
2.29333	-92
2.29700	-92
2.30067	-92
2.30433	-92
2.30800	-92
2.31167	-91
2.31533	-91
2.31900	-91
2.32267	-90
2.32633	-90
2.33000	-90
2.33367	-90
2.33733	-90
2.34100	-91
2.34467	-92
2.34833	-92
2.35200	-93
2.35567	-93
2.35933	-93
2.36300	-92
2.36667	-91
2.37033	-89
2.37400	-86
2.37767	-83
2.38133	-79
2.38500	-74
2.38867	-70
2.39233	-65
2.39600	-60
2.39967	-54
2.40333	-49
2.40700	-44
2.41067	-39
2.41433	-34
2.41800	-30
2.42167	-27
2.42533	-25
2.42900	-22
2.43267	-21
2.43633	-19
2.44000	-17
2.44367	-15
2.44733	-13
2.45100	-11
2.45467	-9
2.45833	-8
2.46200	-6
2.46567	-5
2.46933	-4
2.47300	-4
2.47667	-3
2.48033	-2
2.48400	-1
2.48767	-1
2.49133	-0
2.49500	0
2.49867	1
2.50233	2
2.50600	3
2.50967	4
2.51333	5
2.51700	7
2.52067	8
2.52433	8
2.52800	8
2.53167	9
2.53533	9
2.53900	9
2.54267	9
2.54633	9
2.55000	9
2.55367	9
2.55733	10
2.56100	10
2.56467	10
2.56833	10
2.57200	10
2.57567	10
2.57933	10
2.58300	10
2.58667	10
2.59033	10
2.59400	10
2.59767	10
2.60133	11
2.60500	11
2.60867	12
2.61233	13
2.61600	13
2.61967	13
2.62333	14
2.62700	14
2.63067	15
2.63433	15
2.63800	16
2.64167	16
2.64533	16
2.64900	16
2.65267	16
2.65633	16
2.66000	16
2.66367	16
2.66733	16
2.67100	16
2.67467	17
2.67833	17
2.68200	18
2.68567	18
2.68933	19
2.69300	19
2.69667	19
2.70033	19
2.70400	20
2.70767	21
2.71133	21
2.71500	22
2.71867	22
2.72233	22
2.72600	22
2.72967	22
2.73333	22
2.73700	22
2.74067	22
2.74433	21
2.74800	21
2.75167	21
2.75533	21
2.75900	21
2.76267	21
2.76633	21
2.77000	21
2.77367	21
2.77733	21
2.78100	22
2.78467	22
2.78833	22
2.79200	22
2.79567	23
2.79933	23
2.80300	23
2.80667	23
2.81033	23
2.81400	23
2.81767	22
2.82133	22
2.82500	22
2.82867	22
2.83233	22
2.83600	21
2.83967	20
2.84333	18
2.84700	15
2.85067	9
2.85433	0
2.85800	-12
2.86167	-28
2.86533	-48
2.86900	-72
2.87267	-100
2.87633	-132
2.88000	-168
2.88367	-206
2.88733	-248
2.89100	-292
2.89467	-339
2.89833	-386
2.90200	-435
2.90567	-485
2.90933	-534
2.91300	-583
2.91667	-632
2.92033	-680
2.92400	-727
2.92767	-773
2.93133	-821
2.93500	-874
2.93867	-934
2.94233	-996
2.94600	-1048
2.94967	-1081
2.95333	-1088
2.95700	-1069
2.96067	-1027
2.96433	-968
2.96800	-896
2.97167	-819
2.97533	-739
2.97900	-660
2.98267	-584
2.98633	-513
2.99000	-449
2.99367	-390
2.99733	-337
3.00100	-290
3.00467	-249
3.00833	-213
3.01200	-181
3.01567	-154
3.01933	-130
3.02300	-110
3.02667	-93
3.03033	-78
3.03400	-65
3.03767	-54
3.04133	-45
3.04500	-37
3.04867	-31
3.05233	-25
3.05600	-20
3.05967	-16
3.06333	-12
3.06700	-9
3.07067	-6
3.07433	-4
3.07800	-2
3.08167	0
3.08533	2
3.08900	3
3.09267	5
3.09633	6
3.10000	7
3.10367	8
3.10733	9
3.11100	9
3.11467	10
3.11833	11
3.12200	12
3.12567	12
3.12933	13
3.13300	13
3.13667	14
3.14033	14
3.14400	14
3.14767	15
3.15133	15
3.15500	15
3.15867	16
3.16233	16
3.16600	16
3.16967	16
3.17333	17
3.17700	17
3.18067	17
3.18433	17
3.18800	17
3.19167	17
3.19533	17
3.19900	17
3.20267	17
3.20633	17
3.21000	18
3.21367	18
3.21733	18
3.22100	19
3.22467	19
3.22833	19
3.23200	20
3.23567	20
3.23933	20
3.24300	20
3.24667	20
3.25033	21
3.25400	21
3.25767	21
3.26133	21
3.26500	21
3.26867	22
3.27233	22
3.27600	23
3.27967	23
3.28333	23
3.28700	23
3.29067	23
3.29433	24
3.29800	24
3.30167	24
3.30533	24
3.30900	24
3.31267	24
3.31633	24
3.32000	24
3.32367	24
3.32733	24
3.33100	24
3.33467	23
3.33833	23
3.34200	23
3.34567	24
3.34933	24
3.35300	24
3.35667	24
3.36033	23
3.36400	23
3.36767	23
3.37133	23
3.37500	23
3.37867	22
3.38233	22
3.38600	22
3.38967	22
3.39333	22
3.39700	22
3.40067	22
3.40433	22
3.40800	23
3.41167	23
3.41533	23
3.41900	23
3.42267	24
3.42633	24
3.43000	24
3.43367	24
3.43733	23
3.44100	23
3.44467	23
3.44833	23
3.45200	24
3.45567	24
3.45933	24
3.46300	24
3.46667	24
3.47033	25
3.47400	25
3.47767	25
3.48133	25
3.48500	25
3.48867	25
3.49233	26
3.49600	26
3.49967	25
3.50333	25
3.50700	25
3.51067	25
3.51433	25
3.51800	25
3.52167	25
3.52533	25
3.52900	25
3.53267	25
3.53633	25
3.54000	24
3.54367	24
3.54733	24
3.55100	24
3.55467	24
3.55833	24
3.56200	24
3.56567	24
3.56933	24
3.57300	24
3.57667	24
3.58033	24
3.58400	24
3.58767	24
3.59133	23
3.59500	23
3.59867	23
3.60233	23
3.60600	23
3.60967	23
3.61333	23
3.61700	23
3.62067	23
3.62433	23
3.62800	23
3.63167	23
3.63533	23
3.63900	23
3.64267	23
3.64633	24
3.65000	24
3.65367	24
3.65733	24
3.66100	24
3.66467	24
3.66833	24
3.67200	24
3.67567	25
3.67933	25
3.68300	25
3.68667	25
3.69033	25
3.69400	25
3.69767	25
3.70133	25
3.70500	25
3.70867	25
3.71233	25
3.71600	25
3.71967	25
3.72333	25
3.72700	25
3.73067	25
3.73433	25
3.73800	25
3.74167	25
3.74533	25
3.74900	25
3.75267	25
3.75633	25
3.76000	25
3.76367	25
3.76733	26
3.77100	26
3.77467	26
3.77833	26
3.78200	26
3.78567	25
3.78933	25
3.79300	25
3.79667	25
3.80033	25
3.80400	25
3.80767	25
3.81133	25
3.81500	25
3.81867	25
3.82233	24
3.82600	24
3.82967	24
3.83333	24
3.83700	24
3.84067	24
3.84433	24
3.84800	24
3.85167	24
3.85533	24
3.85900	24
3.86267	24
3.86633	24
3.87000	24
3.87367	24
3.87733	24
3.88100	25
3.88467	24
3.88833	24
3.89200	24
3.89567	24
3.89933	24
3.90300	24
3.90667	24
3.91033	24
3.91400	24
3.91767	24
3.92133	24
3.92500	24
3.92867	24
3.93233	24
3.93600	24
3.93967	24
3.94333	24
3.94700	24
3.95067	24
3.95433	24
3.95800	24
3.96167	24
3.96533	24
3.96900	24
3.97267	24
3.97633	24
3.98000	25
3.98367	25
3.98733	25
3.99100	25
3.99467	25
3.99833	25

[Chromatogram (Ch3)]
Interval(msec)	220
# of Points	1091
Start Time(min)	0.002
End Time(min)	3.998
R.Time (min)	Intensity
0.00167	-1
0.00533	-1
0.00900	2
0.01267	4
0.01633	5
0.02000	5
0.02367	6
0.02733	7
0.03100	6
0.03467	4
0.03833	2
0.04200	4
0.04567	5
0.04933	5
0.05300	5
0.05667	5
0.06033	6
0.06400	7
0.06767	7
0.07133	7
0.07500	5
0.07867	5
0.08233	6
0.08600	7
0.08967	6
0.09333	4
0.09700	1
0.10067	1
0.10433	2
0.10800	3
0.11167	5
0.11533	5
0.11900	6
0.12267	7
0.12633	6
0.13000	5
0.13367	6
0.13733	7
0.14100	6
0.14467	4
0.14833	3
0.15200	3
0.15567	5
0.15933	7
0.16300	8
0.16667	7
0.17033	4
0.17400	4
0.17767	5
0.18133	5
0.18500	5
0.18867	5
0.19233	3
0.19600	2
0.19967	3
0.20333	6
0.20700	9
0.21067	10
0.21433	8
0.21800	8
0.22167	8
0.22533	9
0.22900	10
0.23267	12
0.23633	12
0.24000	10
0.24367	7
0.24733	8
0.25100	11
0.25467	13
0.25833	12
0.26200	11
0.26567	10
0.26933	9
0.27300	9
0.27667	8
0.28033	5
0.28400	4
0.28767	5
0.29133	7
0.29500	8
0.29867	9
0.30233	9
0.30600	9
0.30967	9
0.31333	8
0.31700	8
0.32067	5
0.32433	4
0.32800	5
0.33167	5
0.33533	6
0.33900	6
0.34267	6
0.34633	5
0.35000	6
0.35367	7
0.35733	8
0.36100	9
0.36467	11
0.36833	10
0.37200	7
0.37567	2
0.37933	-1
0.38300	-2
0.38667	-1
0.39033	0
0.39400	2
0.39767	5
0.40133	4
0.40500	4
0.40867	5
0.41233	6
0.41600	7
0.41967	7
0.42333	6
0.42700	5
0.43067	7
0.43433	8
0.43800	9
0.44167	9
0.44533	9
0.44900	5
0.45267	2
0.45633	4
0.46000	5
0.46367	4
0.46733	3
0.47100	2
0.47467	3
0.47833	3
0.48200	4
0.48567	5
0.48933	6
0.49300	8
0.49667	8
0.50033	10
0.50400	10
0.50767	10
0.51133	10
0.51500	9
0.51867	9
0.52233	9
0.52600	9
0.52967	9
0.53333	8
0.53700	7
0.54067	7
0.54433	6
0.54800	7
0.55167	9
0.55533	9
0.55900	9
0.56267	9
0.56633	8
0.57000	7
0.57367	6
0.57733	6
0.58100	5
0.58467	6
0.58833	7
0.59200	7
0.59567	8
0.59933	9
0.60300	9
0.60667	8
0.61033	6
0.61400	4
0.61767	4
0.62133	3
0.62500	6
0.62867	8
0.63233	10
0.63600	10
0.63967	9
0.64333	8
0.64700	8
0.65067	10
0.65433	10
0.65800	10
0.66167	12
0.66533	13
0.66900	14
0.67267	13
0.67633	13
0.68000	13
0.68367	13
0.68733	13
0.69100	12
0.69467	9
0.69833	9
0.70200	9
0.70567	10
0.70933	9
0.71300	8
0.71667	10
0.72033	12
0.72400	12
0.72767	12
0.73133	11
0.73500	10
0.73867	8
0.74233	8
0.74600	8
0.74967	7
0.75333	8
0.75700	5
0.76067	3
0.76433	2
0.76800	2
0.77167	3
0.77533	5
0.77900	6
0.78267	4
0.78633	4
0.79000	3
0.79367	3
0.79733	5
0.80100	5
0.80467	4
0.80833	3
0.81200	3
0.81567	3
0.81933	2
0.82300	2
0.82667	5
0.83033	5
0.83400	8
0.83767	9
0.84133	9
0.84500	11
0.84867	12
0.85233	10
0.85600	9
0.85967	10
0.86333	11
0.86700	12
0.87067	11
0.87433	9
0.87800	7
0.88167	7
0.88533	8
0.88900	8
0.89267	8
0.89633	9
0.90000	8
0.90367	7
0.90733	8
0.91100	9
0.91467	10
0.91833	11
0.92200	11
0.92567	11
0.92933	10
0.93300	11
0.93667	11
0.94033	11
0.94400	12
0.94767	14
0.95133	14
0.95500	11
0.95867	8
0.96233	9
0.96600	11
0.96967	12
0.97333	11
0.97700	11
0.98067	9
0.98433	10
0.98800	11
0.99167	11
0.99533	11
0.99900	12
1.00267	11
1.00633	11
1.01000	10
1.01367	8
1.01733	8
1.02100	9
1.02467	10
1.02833	11
1.03200	10
1.03567	9
1.03933	8
1.04300	9
1.04667	9
1.05033	11
1.05400	12
1.05767	13
1.06133	12
1.06500	11
1.06867	11
1.07233	12
1.07600	10
1.07967	11
1.08333	11
1.08700	13
1.09067	14
1.09433	14
1.09800	13
1.10167	12
1.10533	11
1.10900	12
1.11267	13
1.11633	13
1.12000	13
1.12367	14
1.12733	13
1.13100	12
1.13467	13
1.13833	13
1.14200	13
1.14567	12
1.14933	11
1.15300	11
1.15667	12
1.16033	12
1.16400	11
1.16767	10
1.17133	10
1.17500	11
1.17867	13
1.18233	14
1.18600	14
1.18967	13
1.19333	13
1.19700	10
1.20067	11
1.20433	12
1.20800	11
1.21167	10
1.21533	7
1.21900	7
1.22267	7
1.22633	8
1.23000	9
1.23367	10
1.23733	11
1.24100	11
1.24467	11
1.24833	10
1.25200	10
1.25567	10
1.25933	11
1.26300	13
1.26667	14
1.27033	12
1.27400	10
1.27767	9
1.28133	10
1.28500	11
1.28867	11
1.29233	10
1.29600	11
1.29967	12
1.30333	12
1.30700	12
1.31067	13
1.31433	14
1.31800	14
1.32167	14
1.32533	15
1.32900	16
1.33267	17
1.33633	18
1.34000	18
1.34367	18
1.34733	16
1.35100	16
1.35467	17
1.35833	16
1.36200	16
1.36567	16
1.36933	15
1.37300	14
1.37667	13
1.38033	13
1.38400	13
1.38767	15
1.39133	17
1.39500	18
1.39867	17
1.40233	16
1.40600	16
1.40967	15
1.41333	15
1.41700	16
1.42067	18
1.42433	19
1.42800	17
1.43167	14
1.43533	15
1.43900	15
1.44267	15
1.44633	15
1.45000	14
1.45367	13
1.45733	15
1.46100	16
1.46467	17
1.46833	18
1.47200	16
1.47567	15
1.47933	15
1.48300	14
1.48667	13
1.49033	14
1.49400	16
1.49767	18
1.50133	15
1.50500	15
1.50867	15
1.51233	14
1.51600	14
1.51967	15
1.52333	17
1.52700	19
1.53067	20
1.53433	18
1.53800	18
1.54167	17
1.54533	15
1.54900	14
1.55267	15
1.55633	17
1.56000	16
1.56367	16
1.56733	15
1.57100	14
1.57467	16
1.57833	16
1.58200	16
1.58567	16
1.58933	17
1.59300	20
1.59667	20
1.60033	19
1.60400	18
1.60767	19
1.61133	20
1.61500	20
1.61867	21
1.62233	22
1.62600	22
1.62967	21
1.63333	20
1.63700	18
1.64067	18
1.64433	20
1.64800	21
1.65167	20
1.65533	19
1.65900	18
1.66267	19
1.66633	21
1.67000	24
1.67367	26
1.67733	28
1.68100	29
1.68467	27
1.68833	26
1.69200	26
1.69567	26
1.69933	25
1.70300	24
1.70667	24
1.71033	24
1.71400	24
1.71767	26
1.72133	28
1.72500	30
1.72867	30
1.73233	29
1.73600	29
1.73967	30
1.74333	33
1.74700	35
1.75067	36
1.75433	37
1.75800	36
1.76167	35
1.76533	34
1.76900	35
1.77267	35
1.77633	34
1.78000	35
1.78367	36
1.78733	38
1.79100	40
1.79467	41
1.79833	41
1.80200	43
1.80567	45
1.80933	46
1.81300	44
1.81667	44
1.82033	46
1.82400	46
1.82767	47
1.83133	47
1.83500	45
1.83867	44
1.84233	44
1.84600	44
1.84967	44
1.85333	43
1.85700	45
1.86067	48
1.86433	49
1.86800	50
1.87167	49
1.87533	48
1.87900	47
1.88267	47
1.88633	46
1.89000	44
1.89367	44
1.89733	47
1.90100	49
1.90467	52
1.90833	54
1.91200	54
1.91567	53
1.91933	51
1.92300	51
1.92667	53
1.93033	54
1.93400	54
1.93767	54
1.94133	55
1.94500	56
1.94867	55
1.95233	55
1.95600	55
1.95967	56
1.96333	58
1.96700	58
1.97067	59
1.97433	61
1.97800	65
1.98167	67
1.98533	69
1.98900	72
1.99267	73
1.99633	72
2.00000	69
2.00367	67
2.00733	67
2.01100	68
2.01467	70
2.01833	71
2.02200	70
2.02567	67
2.02933	67
2.03300	69
2.03667	69
2.04033	69
2.04400	70
2.04767	72
2.05133	74
2.05500	74
2.05867	73
2.06233	74
2.06600	75
2.06967	75
2.07333	75
2.07700	75
2.08067	77
2.08433	77
2.08800	80
2.09167	82
2.09533	83
2.09900	84
2.10267	85
2.10633	85
2.11000	86
2.11367	89
2.11733	92
2.12100	95
2.12467	95
2.12833	95
2.13200	94
2.13567	94
2.13933	94
2.14300	94
2.14667	95
2.15033	96
2.15400	99
2.15767	100
2.16133	101
2.16500	99
2.16867	99
2.17233	101
2.17600	104
2.17967	108
2.18333	110
2.18700	111
2.19067	110
2.19433	109
2.19800	111
2.20167	111
2.20533	111
2.20900	111
2.21267	114
2.21633	118
2.22000	121
2.22367	122
2.22733	123
2.23100	122
2.23467	121
2.23833	122
2.24200	123
2.24567	126
2.24933	127
2.25300	127
2.25667	128
2.26033	131
2.26400	131
2.26767	130
2.27133	128
2.27500	128
2.27867	128
2.28233	129
2.28600	128
2.28967	127
2.29333	129
2.29700	134
2.30067	138
2.30433	138
2.30800	136
2.31167	135
2.31533	136
2.31900	136
2.32267	134
2.32633	133
2.33000	134
2.33367	135
2.33733	138
2.34100	144
2.34467	147
2.34833	145
2.35200	144
2.35567	144
2.35933	144
2.36300	145
2.36667	145
2.37033	147
2.37400	148
2.37767	148
2.38133	148
2.38500	145
2.38867	143
2.39233	143
2.39600	146
2.39967	150
2.40333	155
2.40700	161
2.41067	168
2.41433	174
2.41800	179
2.42167	184
2.42533	189
2.42900	192
2.43267	194
2.43633	197
2.44000	199
2.44367	200
2.44733	201
2.45100	201
2.45467	200
2.45833	197
2.46200	194
2.46567	192
2.46933	193
2.47300	195
2.47667	197
2.48033	198
2.48400	197
2.48767	195
2.49133	189
2.49500	186
2.49867	185
2.50233	183
2.50600	178
2.50967	174
2.51333	170
2.51700	163
2.52067	157
2.52433	155
2.52800	151
2.53167	147
2.53533	145
2.53900	141
2.54267	137
2.54633	133
2.55000	129
2.55367	125
2.55733	120
2.56100	115
2.56467	112
2.56833	109
2.57200	102
2.57567	98
2.57933	95
2.58300	91
2.58667	87
2.59033	82
2.59400	71
2.59767	52
2.60133	25
2.60500	-11
2.60867	-51
2.61233	-92
2.61600	-135
2.61967	-177
2.62333	-213
2.62700	-244
2.63067	-270
2.63433	-292
2.63800	-311
2.64167	-324
2.64533	-331
2.64900	-335
2.65267	-337
2.65633	-335
2.66000	-332
2.66367	-330
2.66733	-327
2.67100	-321
2.67467	-315
2.67833	-310
2.68200	-306
2.68567	-303
2.68933	-300
2.69300	-296
2.69667	-291
2.70033	-286
2.70400	-280
2.70767	-274
2.71133	-268
2.71500	-263
2.71867	-259
2.72233	-253
2.72600	-246
2.72967	-241
2.73333	-236
2.73700	-231
2.74067	-228
2.74433	-225
2.74800	-222
2.75167	-217
2.75533	-212
2.75900	-208
2.76267	-202
2.76633	-196
2.77000	-194
2.77367	-192
2.77733	-190
2.78100	-187
2.78467	-185
2.78833	-182
2.79200	-179
2.79567	-176
2.79933	-172
2.80300	-167
2.80667	-163
2.81033	-156
2.81400	-149
2.81767	-137
2.82133	-110
2.82500	-55
2.82867	51
2.83233	239
2.83600	534
2.83967	958
2.84333	1512
2.84700	2182
2.85067	2932
2.85433	3716
2.85800	4471
2.86167	5137
2.86533	5664
2.86900	6015
2.87267	6178
2.87633	6159
2.88000	5982
2.88367	5686
2.88733	5323
2.89100	4931
2.89467	4536
2.89833	4155
2.90200	3794
2.90567	3461
2.90933	3158
2.91300	2882
2.91667	2636
2.92033	2416
2.92400	2221
2.92767	2053
2.93133	1908
2.93500	1783
2.93867	1674
2.94233	1581
2.94600	1501
2.94967	1434
2.95333	1376
2.95700	1327
2.96067	1285
2.96433	1251
2.96800	1226
2.97167	1206
2.97533	1191
2.97900	1177
2.98267	1164
2.98633	1155
2.99000	1146
2.99367	1141
2.99733	1138
3.00100	1133
3.00467	1129
3.00833	1126
3.01200	1127
3.01567	1129
3.01933	1129
3.02300	1129
3.02667	1130
3.03033	1132
3.03400	1134
3.03767	1135
3.04133	1135
3.04500	1134
3.04867	1133
3.05233	1134
3.05600	1135
3.05967	1135
3.06333	1137
3.06700	1134
3.07067	1132
3.07433	1131
3.07800	1132
3.08167	1133
3.08533	1133
3.08900	1132
3.09267	1132
3.09633	1131
3.10000	1129
3.10367	1127
3.10733	1126
3.11100	1127
3.11467	1130
3.11833	1132
3.12200	1134
3.12567	1135
3.12933	1137
3.13300	1139
3.13667	1140
3.14033	1141
3.14400	1142
3.14767	1144
3.15133	1146
3.15500	1151
3.15867	1156
3.16233	1160
3.16600	1163
3.16967	1168
3.17333	1172
3.17700	1177
3.18067	1182
3.18433	1188
3.18800	1192
3.19167	1198
3.19533	1205
3.19900	1208
3.20267	1213
3.20633	1217
3.21000	1221
3.21367	1224
3.21733	1230
3.22100	1235
3.22467	1237
3.22833	1240
3.23200	1243
3.23567	1247
3.23933	1252
3.24300	1258
3.24667	1262
3.25033	1265
3.25400	1267
3.25767	1270
3.26133	1273
3.26500	1276
3.26867	1277
3.27233	1281
3.27600	1286
3.27967	1289
3.28333	1291
3.28700	1291
3.29067	1292
3.29433	1292
3.29800	1291
3.30167	1291
3.30533	1293
3.30900	1296
3.31267	1300
3.31633	1303
3.32000	1304
3.32367	1306
3.32733	1308
3.33100	1308
3.33467	1308
3.33833	1309
3.34200	1309
3.34567	1309
3.34933	1311
3.35300	1312
3.35667	1314
3.36033	1314
3.36400	1312
3.36767	1309
3.37133	1306
3.37500	1303
3.37867	1300
3.38233	1299
3.38600	1297
3.38967	1298
3.39333	1295
3.39700	1293
3.40067	1291
3.40433	1287
3.40800	1282
3.41167	1280
3.41533	1277
3.41900	1274
3.42267	1274
3.42633	1273
3.43000	1267
3.43367	1263
3.43733	1260
3.44100	1256
3.44467	1254
3.44833	1251
3.45200	1247
3.45567	1242
3.45933	1236
3.46300	1229
3.46667	1223
3.47033	1218
3.47400	1213
3.47767	1210
3.48133	1206
3.48500	1205
3.48867	1201
3.49233	1197
3.49600	1193
3.49967	1188
3.50333	1181
3.50700	1175
3.51067	1171
3.51433	1166
3.51800	1160
3.52167	1155
3.52533	1152
3.52900	1150
3.53267	1146
3.53633	1138
3.54000	1130
3.54367	1125
3.54733	1123
3.55100	1120
3.55467	1115
3.55833	1112
3.56200	1107
3.56567	1102
3.56933	1095
3.57300	1089
3.57667	1086
3.58033	1083
3.58400	1079
3.58767	1076
3.59133	1069
3.59500	1059
3.59867	1052
3.60233	1047
3.60600	1044
3.60967	1042
3.61333	1038
3.61700	1033
3.62067	1025
3.62433	1019
3.62800	1012
3.63167	1004
3.63533	998
3.63900	994
3.64267	990
3.64633	989
3.65000	985
3.65367	979
3.65733	971
3.66100	966
3.66467	960
3.66833	951
3.67200	944
3.67567	938
3.67933	934
3.68300	930
3.68667	923
3.69033	916
3.69400	910
3.69767	903
3.70133	898
3.70500	894
3.70867	890
3.71233	886
3.71600	882
3.71967	878
3.72333	872
3.72700	865
3.73067	859
3.73433	856
3.73800	853
3.74167	848
3.74533	842
3.74900	838
3.75267	834
3.75633	830
3.76000	824
3.76367	816
3.76733	810
3.77100	804
3.77467	800
3.77833	796
3.78200	793
3.78567	790
3.78933	787
3.79300	783
3.79667	777
3.80033	771
3.80400	767
3.80767	765
3.81133	760
3.81500	754
3.81867	747
3.82233	741
3.82600	737
3.82967	730
3.83333	724
3.83700	719
3.84067	714
3.84433	712
3.84800	710
3.85167	708
3.85533	705
3.85900	701
3.86267	692
3.86633	684
3.87000	677
3.87367	673
3.87733	668
3.88100	665
3.88467	663
3.88833	661
3.89200	658
3.89567	655
3.89933	651
3.90300	646
3.90667	641
3.91033	636
3.91400	631
3.91767	627
3.92133	623
3.92500	620
3.92867	615
3.93233	611
3.93600	607
3.93967	602
3.94333	600
3.94700	596
3.95067	590
3.95433	585
3.95800	581
3.96167	580
3.96533	578
3.96900	574
3.97267	572
3.97633	569
3.98000	566
3.98367	562
3.98733	558
3.99100	554
3.99467	551
3.99833	544

[Status Trace (Column Oven Temperature)]
Interval(msec)	1000
# of Points	240
Start Time(min)	0.010
End Time(min)	3.993
Intensity Units	
Intensity Multiplier	1
R.Time (min)	Intensity
0.00993	35.06
0.02660	35.06
0.04327	35.07
0.05993	35.07
0.07660	35.07
0.09327	35.06
0.10993	35.04
0.12660	35.04
0.14327	35.02
0.15993	35.01
0.17660	34.99
0.19327	34.98
0.20993	34.97
0.22660	34.97
0.24327	34.96
0.25993	34.96
0.27660	34.95
0.29327	34.96
0.30993	34.96
0.32660	34.96
0.34327	34.98
0.35993	34.98
0.37660	34.99
0.39327	34.99
0.40993	34.99
0.42660	34.99
0.44327	34.99
0.45993	34.99
0.47660	34.99
0.49327	34.98
0.50993	34.98
0.52660	34.97
0.54327	34.97
0.55993	34.97
0.57660	34.97
0.59327	34.96
0.60993	34.96
0.62660	34.96
0.64327	34.97
0.65993	34.97
0.67660	34.98
0.69327	34.98
0.70993	35.01
0.72660	35.03
0.74327	35.05
0.75993	35.07
0.77660	35.06
0.79327	35.04
0.80993	35.02
0.82660	35.01
0.84327	34.99
0.85993	34.98
0.87660	34.98
0.89327	34.99
0.90993	34.99
0.92660	34.97
0.94327	34.98
0.95993	34.97
0.97660	34.97
0.99327	34.97
1.00993	34.98
1.02660	34.98
1.04327	34.99
1.05993	35.00
1.07660	35.02
1.09327	35.02
1.10993	35.04
1.12660	35.06
1.14327	35.06
1.15993	35.06
1.17660	35.07
1.19327	35.07
1.20993	35.06
1.22660	35.03
1.24327	35.02
1.25993	35.00
1.27660	34.99
1.29327	34.99
1.30993	34.99
1.32660	35.01
1.34327	35.03
1.35993	35.04
1.37660	35.03
1.39327	35.04
1.40993	35.03
1.42660	35.02
1.44327	35.01
1.45993	35.01
1.47660	35.00
1.49327	35.00
1.50993	35.00
1.52660	35.00
1.54327	35.01
1.55993	35.01
1.57660	35.02
1.59327	35.04
1.60993	35.10
1.62660	35.21
1.64327	35.37
1.65993	35.62
1.67660	35.97
1.69327	36.35
1.70993	36.70
1.72660	37.04
1.74327	37.39
1.75993	37.71
1.77660	38.02
1.79327	38.36
1.80993	38.69
1.82660	39.03
1.84327	39.35
1.85993	39.68
1.87660	40.01
1.89327	40.33
1.90993	40.66
1.92660	40.98
1.94327	41.31
1.95993	41.62
1.97660	41.94
1.99327	42.27
2.00993	42.58
2.02660	42.88
2.04327	43.24
2.05993	43.57
2.07660	43.90
2.09327	44.20
2.10993	44.53
2.12660	44.86
2.14327	45.18
2.15993	45.55
2.17660	45.87
2.19327	46.19
2.20993	46.54
2.22660	46.84
2.24327	47.19
2.25993	47.54
2.27660	47.85
2.29327	48.19
2.30993	48.53
2.32660	48.84
2.34327	49.21
2.35993	49.49
2.37660	49.63
2.39327	49.66
2.40993	49.63
2.42660	49.66
2.44327	49.66
2.45993	49.66
2.47660	49.68
2.49327	49.70
2.50993	49.70
2.52660	49.72
2.54327	49.75
2.55993	49.76
2.57660	49.80
2.59327	49.83
2.60993	49.83
2.62660	49.83
2.64327	49.85
2.65993	49.87
2.67660	49.86
2.69327	49.85
2.70993	49.85
2.72660	49.85
2.74327	49.87
2.75993	49.88
2.77660	49.87
2.79327	49.87
2.80993	49.89
2.82660	49.91
2.84327	49.92
2.85993	49.93
2.87660	49.93
2.89327	49.94
2.90993	49.94
2.92660	49.96
2.94327	49.96
2.95993	49.97
2.97660	49.97
2.99327	49.99
3.00993	50.01
3.02660	50.03
3.04327	50.05
3.05993	50.07
3.07660	50.07
3.09327	50.07
3.10993	50.07
3.12660	50.07
3.14327	50.08
3.15993	50.08
3.17660	50.09
3.19327	50.11
3.20993	50.11
3.22660	50.10
3.24327	50.10
3.25993	50.09
3.27660	50.08
3.29327	50.08
3.30993	50.07
3.32660	50.08
3.34327	50.08
3.35993	50.08
3.37660	50.09
3.39327	50.09
3.40993	50.09
3.42660	50.09
3.44327	50.08
3.45993	50.08
3.47660	50.07
3.49327	50.07
3.50993	50.06
3.52660	50.06
3.54327	50.06
3.55993	50.07
3.57660	50.07
3.59327	50.07
3.60993	50.09
3.62660	50.09
3.64327	50.09
3.65993	50.08
3.67660	50.08
3.69327	50.08
3.70993	50.07
3.72660	50.07
3.74327	50.06
3.75993	50.06
3.77660	50.05
3.79327	50.05
3.80993	50.05
3.82660	50.06
3.84327	50.06
3.85993	50.06
3.87660	50.06
3.89327	50.05
3.90993	50.05
3.92660	50.06
3.94327	50.06
3.95993	50.06
3.97660	50.06
3.99327	50.05

[Status Trace (Injection Unit Temperature)]
Interval(msec)	1000
# of Points	240
Start Time(min)	0.010
End Time(min)	3.993
Intensity Units	
Intensity Multiplier	1
R.Time (min)	Intensity
0.00993	99.98
0.02660	99.98
0.04327	99.98
0.05993	99.98
0.07660	99.98
0.09327	99.98
0.10993	99.98
0.12660	99.98
0.14327	99.98
0.15993	99.98
0.17660	99.99
0.19327	99.98
0.20993	99.98
0.22660	99.98
0.24327	99.98
0.25993	99.99
0.27660	99.98
0.29327	99.98
0.30993	99.98
0.32660	99.99
0.34327	99.99
0.35993	99.98
0.37660	99.99
0.39327	99.98
0.40993	99.98
0.42660	99.98
0.44327	99.98
0.45993	99.98
0.47660	99.98
0.49327	99.98
0.50993	99.98
0.52660	99.98
0.54327	99.98
0.55993	99.98
0.57660	99.98
0.59327	99.99
0.60993	99.99
0.62660	99.98
0.64327	99.98
0.65993	99.98
0.67660	99.98
0.69327	99.98
0.70993	99.98
0.72660	99.98
0.74327	99.99
0.75993	99.98
0.77660	99.98
0.79327	99.98
0.80993	99.98
0.82660	99.98
0.84327	99.98
0.85993	99.98
0.87660	99.98
0.89327	99.98
0.90993	99.98
0.92660	99.98
0.94327	99.98
0.95993	99.98
0.97660	99.98
0.99327	99.98
1.00993	99.98
1.02660	99.98
1.04327	99.98
1.05993	99.98
1.07660	99.98
1.09327	99.98
1.10993	99.98
1.12660	99.98
1.14327	99.98
1.15993	99.98
1.17660	99.98
1.19327	99.98
1.20993	99.98
1.22660	99.98
1.24327	99.98
1.25993	99.98
1.27660	99.98
1.29327	99.98
1.30993	99.98
1.32660	99.98
1.34327	99.98
1.35993	99.98
1.37660	99.98
1.39327	99.98
1.40993	99.98
1.42660	99.98
1.44327	99.98
1.45993	99.98
1.47660	99.98
1.49327	99.98
1.50993	99.98
1.52660	99.99
1.54327	99.98
1.55993	99.98
1.57660	99.98
1.59327	99.98
1.60993	99.99
1.62660	99.99
1.64327	99.99
1.65993	99.99
1.67660	99.99
1.69327	99.99
1.70993	99.99
1.72660	99.99
1.74327	99.99
1.75993	99.99
1.77660	99.98
1.79327	99.99
1.80993	99.98
1.82660	99.98
1.84327	99.98
1.85993	99.98
1.87660	99.98
1.89327	99.98
1.90993	99.98
1.92660	99.98
1.94327	99.98
1.95993	99.98
1.97660	99.98
1.99327	99.98
2.00993	99.98
2.02660	99.98
2.04327	99.97
2.05993	99.98
2.07660	99.97
2.09327	99.97
2.10993	99.98
2.12660	99.97
2.14327	99.97
2.15993	99.97
2.17660	99.97
2.19327	99.97
2.20993	99.97
2.22660	99.97
2.24327	99.97
2.25993	99.97
2.27660	99.97
2.29327	99.97
2.30993	99.97
2.32660	99.97
2.34327	99.97
2.35993	99.97
2.37660	99.97
2.39327	99.97
2.40993	99.97
2.42660	99.97
2.44327	99.97
2.45993	99.97
2.47660	99.97
2.49327	99.97
2.50993	99.97
2.52660	99.97
2.54327	99.97
2.55993	99.97
2.57660	99.97
2.59327	99.98
2.60993	99.98
2.62660	99.97
2.64327	99.98
2.65993	99.98
2.67660	99.98
2.69327	99.98
2.70993	99.98
2.72660	99.98
2.74327	99.99
2.75993	99.99
2.77660	99.99
2.79327	99.99
2.80993	99.99
2.82660	99.99
2.84327	100.00
2.85993	100.00
2.87660	100.00
2.89327	100.00
2.90993	100.00
2.92660	100.00
2.94327	100.01
2.95993	100.01
2.97660	100.01
2.99327	100.01
3.00993	100.01
3.02660	100.01
3.04327	100.01
3.05993	100.01
3.07660	100.01
3.09327	100.01
3.10993	100.02
3.12660	100.02
3.14327	100.02
3.15993	100.02
3.17660	100.02
3.19327	100.02
3.20993	100.02
3.22660	100.02
3.24327	100.02
3.25993	100.02
3.27660	100.03
3.29327	100.03
3.30993	100.03
3.32660	100.03
3.34327	100.03
3.35993	100.03
3.37660	100.04
3.39327	100.03
3.40993	100.03
3.42660	100.04
3.44327	100.04
3.45993	100.04
3.47660	100.04
3.49327	100.04
3.50993	100.04
3.52660	100.04
3.54327	100.04
3.55993	100.04
3.57660	100.04
3.59327	100.04
3.60993	100.04
3.62660	100.05
3.64327	100.04
3.65993	100.05
3.67660	100.04
3.69327	100.05
3.70993	100.04
3.72660	100.05
3.74327	100.05
3.75993	100.05
3.77660	100.05
3.79327	100.05
3.80993	100.05
3.82660	100.05
3.84327	100.05
3.85993	100.05
3.87660	100.05
3.89327	100.04
3.90993	100.05
3.92660	100.05
3.94327	100.05
3.95993	100.05
3.97660	100.05
3.99327	100.05

[Status Trace (Carrier Gas Pressure)]
Interval(msec)	1000
# of Points	240
Start Time(min)	0.010
End Time(min)	3.993
Intensity Units	
Intensity Multiplier	1
R.Time (min)	Intensity
0.00993	58.00
0.02660	55.11
0.04327	57.35
0.05993	59.35
0.07660	59.35
0.09327	58.04
0.10993	57.98
0.12660	58.01
0.14327	58.01
0.15993	58.01
0.17660	58.00
0.19327	58.00
0.20993	58.00
0.22660	58.00
0.24327	58.00
0.25993	58.00
0.27660	58.00
0.29327	58.00
0.30993	58.00
0.32660	58.00
0.34327	58.00
0.35993	58.00
0.37660	58.00
0.39327	58.00
0.40993	58.00
0.42660	58.00
0.44327	58.00
0.45993	58.00
0.47660	58.00
0.49327	58.00
0.50993	58.00
0.52660	58.00
0.54327	58.00
0.55993	58.00
0.57660	58.00
0.59327	58.00
0.60993	58.00
0.62660	58.00
0.64327	58.00
0.65993	58.00
0.67660	58.00
0.69327	58.00
0.70993	58.00
0.72660	58.00
0.74327	58.00
0.75993	58.00
0.77660	58.00
0.79327	58.00
0.80993	58.00
0.82660	58.00
0.84327	58.00
0.85993	58.00
0.87660	58.00
0.89327	58.00
0.90993	58.00
0.92660	58.00
0.94327	58.00
0.95993	58.00
0.97660	58.00
0.99327	58.00
1.00993	58.00
1.02660	58.00
1.04327	58.00
1.05993	58.00
1.07660	58.00
1.09327	58.00
1.10993	58.00
1.12660	58.00
1.14327	58.00
1.15993	58.00
1.17660	58.00
1.19327	58.00
1.20993	58.00
1.22660	58.00
1.24327	58.00
1.25993	58.00
1.27660	58.00
1.29327	58.00
1.30993	58.00
1.32660	58.00
1.34327	58.00
1.35993	58.00
1.37660	58.00
1.39327	58.00
1.40993	58.00
1.42660	58.00
1.44327	58.00
1.45993	58.00
1.47660	58.00
1.49327	58.00
1.50993	58.00
1.52660	58.00
1.54327	58.00
1.55993	58.00
1.57660	58.00
1.59327	58.00
1.60993	58.00
1.62660	58.00
1.64327	58.00
1.65993	58.01
1.67660	58.01
1.69327	58.00
1.70993	58.00
1.72660	58.00
1.74327	58.00
1.75993	58.00
1.77660	58.00
1.79327	58.00
1.80993	58.00
1.82660	58.00
1.84327	58.00
1.85993	58.00
1.87660	58.00
1.89327	58.00
1.90993	58.00
1.92660	58.00
1.94327	58.00
1.95993	58.00
1.97660	58.00
1.99327	58.00
2.00993	58.00
2.02660	58.00
2.04327	58.00
2.05993	58.00
2.07660	58.00
2.09327	58.00
2.10993	58.00
2.12660	58.00
2.14327	58.00
2.15993	58.00
2.17660	58.00
2.19327	58.00
2.20993	58.00
2.22660	58.00
2.24327	58.00
2.25993	58.00
2.27660	58.00
2.29327	58.00
2.30993	58.00
2.32660	58.00
2.34327	58.00
2.35993	58.00
2.37660	57.99
2.39327	57.99
2.40993	57.99
2.42660	58.00
2.44327	58.00
2.45993	58.00
2.47660	58.00
2.49327	58.00
2.50993	57.99
2.52660	57.98
2.54327	58.00
2.55993	58.00
2.57660	58.00
2.59327	58.00
2.60993	58.00
2.62660	58.00
2.64327	58.00
2.65993	58.00
2.67660	58.00
2.69327	58.00
2.70993	58.00
2.72660	58.00
2.74327	58.00
2.75993	58.00
2.77660	58.00
2.79327	58.00
2.80993	58.00
2.82660	58.00
2.84327	58.00
2.85993	58.00
2.87660	58.00
2.89327	58.00
2.90993	58.00
2.92660	58.00
2.94327	58.00
2.95993	58.00
2.97660	58.00
2.99327	58.00
3.00993	58.00
3.02660	58.00
3.04327	58.00
3.05993	58.00
3.07660	58.00
3.09327	58.00
3.10993	58.00
3.12660	58.00
3.14327	58.00
3.15993	58.00
3.17660	58.00
3.19327	58.00
3.20993	58.00
3.22660	58.00
3.24327	58.00
3.25993	58.00
3.27660	58.00
3.29327	58.00
3.30993	58.00
3.32660	58.00
3.34327	58.00
3.35993	58.00
3.37660	58.00
3.39327	58.00
3.40993	58.00
3.42660	58.00
3.44327	58.00
3.45993	58.00
3.47660	58.00
3.49327	58.00
3.50993	58.00
3.52660	58.00
3.54327	58.00
3.55993	58.00
3.57660	58.00
3.59327	58.00
3.60993	58.00
3.62660	58.00
3.64327	58.00
3.65993	58.00
3.67660	58.00
3.69327	58.00
3.70993	58.00
3.72660	58.00
3.74327	58.00
3.75993	58.00
3.77660	58.00
3.79327	58.00
3.80993	58.00
3.82660	58.00
3.84327	58.00
3.85993	58.00
3.87660	58.00
3.89327	58.00
3.90993	58.00
3.92660	58.00
3.94327	58.00
3.95993	58.00
3.97660	58.00
3.99327	58.00

[Status Trace (Carrier Gas Flow)]
Interval(msec)	1000
# of Points	240
Start Time(min)	0.010
End Time(min)	3.993
Intensity Units	
Intensity Multiplier	1
R.Time (min)	Intensity
0.00993	34.52
0.02660	34.54
0.04327	34.54
0.05993	34.54
0.07660	34.51
0.09327	34.52
0.10993	34.52
0.12660	34.52
0.14327	34.52
0.15993	34.52
0.17660	34.52
0.19327	34.52
0.20993	34.52
0.22660	34.52
0.24327	34.52
0.25993	34.52
0.27660	34.52
0.29327	34.52
0.30993	34.52
0.32660	34.52
0.34327	34.52
0.35993	34.52
0.37660	34.52
0.39327	34.52
0.40993	34.52
0.42660	34.52
0.44327	34.52
0.45993	34.52
0.47660	34.52
0.49327	34.52
0.50993	34.52
0.52660	34.52
0.54327	34.52
0.55993	34.52
0.57660	34.52
0.59327	34.52
0.60993	34.52
0.62660	34.52
0.64327	34.52
0.65993	34.52
0.67660	34.52
0.69327	34.52
0.70993	34.52
0.72660	34.52
0.74327	34.52
0.75993	34.52
0.77660	34.52
0.79327	34.52
0.80993	34.52
0.82660	34.52
0.84327	34.52
0.85993	34.52
0.87660	34.52
0.89327	34.52
0.90993	34.52
0.92660	34.52
0.94327	34.52
0.95993	34.52
0.97660	34.52
0.99327	34.52
1.00993	34.52
1.02660	34.52
1.04327	34.52
1.05993	34.52
1.07660	34.52
1.09327	34.52
1.10993	34.52
1.12660	34.52
1.14327	34.52
1.15993	34.52
1.17660	34.52
1.19327	34.52
1.20993	34.52
1.22660	34.52
1.24327	34.52
1.25993	34.53
1.27660	34.52
1.29327	34.52
1.30993	34.52
1.32660	34.52
1.34327	34.51
1.35993	34.52
1.37660	34.51
1.39327	34.52
1.40993	34.52
1.42660	34.52
1.44327	34.52
1.45993	34.52
1.47660	34.52
1.49327	34.53
1.50993	34.51
1.52660	34.51
1.54327	34.51
1.55993	34.52
1.57660	34.52
1.59327	34.51
1.60993	34.53
1.62660	34.52
1.64327	34.50
1.65993	34.52
1.67660	34.52
1.69327	34.52
1.70993	34.52
1.72660	34.52
1.74327	34.52
1.75993	34.52
1.77660	34.52
1.79327	34.52
1.80993	34.52
1.82660	34.52
1.84327	34.52
1.85993	34.52
1.87660	34.52
1.89327	34.52
1.90993	34.52
1.92660	34.52
1.94327	34.51
1.95993	34.52
1.97660	34.52
1.99327	34.52
2.00993	34.52
2.02660	34.52
2.04327	34.51
2.05993	34.52
2.07660	34.52
2.09327	34.52
2.10993	34.51
2.12660	34.52
2.14327	34.53
2.15993	34.52
2.17660	34.51
2.19327	34.52
2.20993	34.52
2.22660	34.52
2.24327	34.51
2.25993	34.52
2.27660	34.52
2.29327	34.52
2.30993	34.52
2.32660	34.52
2.34327	34.52
2.35993	34.52
2.37660	34.52
2.39327	34.52
2.40993	34.52
2.42660	34.52
2.44327	34.53
2.45993	34.52
2.47660	34.52
2.49327	34.53
2.50993	34.46
2.52660	34.52
2.54327	34.52
2.55993	34.52
2.57660	34.52
2.59327	34.52
2.60993	34.52
2.62660	34.52
2.64327	34.52
2.65993	34.52
2.67660	34.52
2.69327	34.52
2.70993	34.52
2.72660	34.52
2.74327	34.52
2.75993	34.52
2.77660	34.52
2.79327	34.52
2.80993	34.52
2.82660	34.52
2.84327	34.52
2.85993	34.52
2.87660	34.52
2.89327	34.52
2.90993	34.52
2.92660	34.52
2.94327	34.52
2.95993	34.52
2.97660	34.52
2.99327	34.52
3.00993	34.52
3.02660	34.52
3.04327	34.52
3.05993	34.52
3.07660	34.52
3.09327	34.52
3.10993	34.52
3.12660	34.52
3.14327	34.52
3.15993	34.52
3.17660	34.52
3.19327	34.52
3.20993	34.52
3.22660	34.52
3.24327	34.52
3.25993	34.52
3.27660	34.52
3.29327	34.52
3.30993	34.52
3.32660	34.52
3.34327	34.52
3.35993	34.52
3.37660	34.52
3.39327	34.52
3.40993	34.52
3.42660	34.52
3.44327	34.52
3.45993	34.52
3.47660	34.52
3.49327	34.52
3.50993	34.52
3.52660	34.52
3.54327	34.52
3.55993	34.52
3.57660	34.52
3.59327	34.52
3.60993	34.52
3.62660	34.52
3.64327	34.52
3.65993	34.52
3.67660	34.52
3.69327	34.52
3.70993	34.52
3.72660	34.52
3.74327	34.52
3.75993	34.52
3.77660	34.52
3.79327	34.52
3.80993	34.52
3.82660	34.52
3.84327	34.52
3.85993	34.52
3.87660	34.52
3.89327	34.52
3.90993	34.52
3.92660	34.52
3.94327	34.52
3.95993	34.52
3.97660	34.52
3.99327	34.52

[Status Trace (Column Flow)]
Interval(msec)	1000
# of Points	240
Start Time(min)	0.010
End Time(min)	3.993
Intensity Units	
Intensity Multiplier	1
R.Time (min)	Intensity
0.00993	5.49
0.02660	5.16
0.04327	5.42
0.05993	5.65
0.07660	5.65
0.09327	5.50
0.10993	5.49
0.12660	5.49
0.14327	5.49
0.15993	5.49
0.17660	5.49
0.19327	5.49
0.20993	5.49
0.22660	5.49
0.24327	5.50
0.25993	5.49
0.27660	5.50
0.29327	5.50
0.30993	5.49
0.32660	5.50
0.34327	5.49
0.35993	5.49
0.37660	5.49
0.39327	5.49
0.40993	5.49
0.42660	5.49
0.44327	5.49
0.45993	5.49
0.47660	5.49
0.49327	5.49
0.50993	5.49
0.52660	5.49
0.54327	5.49
0.55993	5.49
0.57660	5.49
0.59327	5.49
0.60993	5.49
0.62660	5.49
0.64327	5.49
0.65993	5.49
0.67660	5.49
0.69327	5.49
0.70993	5.49
0.72660	5.49
0.74327	5.49
0.75993	5.49
0.77660	5.49
0.79327	5.49
0.80993	5.49
0.82660	5.49
0.84327	5.49
0.85993	5.49
0.87660	5.49
0.89327	5.49
0.90993	5.49
0.92660	5.49
0.94327	5.49
0.95993	5.49
0.97660	5.49
0.99327	5.49
1.00993	5.49
1.02660	5.49
1.04327	5.49
1.05993	5.49
1.07660	5.49
1.09327	5.49
1.10993	5.49
1.12660	5.49
1.14327	5.49
1.15993	5.49
1.17660	5.49
1.19327	5.49
1.20993	5.49
1.22660	5.49
1.24327	5.49
1.25993	5.49
1.27660	5.49
1.29327	5.49
1.30993	5.49
1.32660	5.49
1.34327	5.49
1.35993	5.49
1.37660	5.49
1.39327	5.49
1.40993	5.49
1.42660	5.49
1.44327	5.49
1.45993	5.49
1.47660	5.49
1.49327	5.49
1.50993	5.49
1.52660	5.49
1.54327	5.49
1.55993	5.49
1.57660	5.49
1.59327	5.49
1.60993	5.49
1.62660	5.49
1.64327	5.48
1.65993	5.47
1.67660	5.46
1.69327	5.45
1.70993	5.44
1.72660	5.43
1.74327	5.42
1.75993	5.41
1.77660	5.40
1.79327	5.39
1.80993	5.38
1.82660	5.37
1.84327	5.36
1.85993	5.35
1.87660	5.34
1.89327	5.33
1.90993	5.32
1.92660	5.31
1.94327	5.30
1.95993	5.29
1.97660	5.28
1.99327	5.27
2.00993	5.26
2.02660	5.25
2.04327	5.24
2.05993	5.23
2.07660	5.23
2.09327	5.22
2.10993	5.21
2.12660	5.20
2.14327	5.19
2.15993	5.18
2.17660	5.17
2.19327	5.16
2.20993	5.15
2.22660	5.14
2.24327	5.13
2.25993	5.12
2.27660	5.11
2.29327	5.10
2.30993	5.09
2.32660	5.08
2.34327	5.07
2.35993	5.07
2.37660	5.06
2.39327	5.06
2.40993	5.06
2.42660	5.06
2.44327	5.06
2.45993	5.06
2.47660	5.06
2.49327	5.06
2.50993	5.06
2.52660	5.06
2.54327	5.06
2.55993	5.06
2.57660	5.06
2.59327	5.06
2.60993	5.06
2.62660	5.06
2.64327	5.06
2.65993	5.06
2.67660	5.06
2.69327	5.06
2.70993	5.06
2.72660	5.06
2.74327	5.06
2.75993	5.06
2.77660	5.06
2.79327	5.06
2.80993	5.06
2.82660	5.06
2.84327	5.06
2.85993	5.05
2.87660	5.05
2.89327	5.05
2.90993	5.05
2.92660	5.05
2.94327	5.05
2.95993	5.05
2.97660	5.05
2.99327	5.05
3.00993	5.05
3.02660	5.05
3.04327	5.05
3.05993	5.05
3.07660	5.05
3.09327	5.05
3.10993	5.05
3.12660	5.05
3.14327	5.05
3.15993	5.05
3.17660	5.05
3.19327	5.05
3.20993	5.05
3.22660	5.05
3.24327	5.05
3.25993	5.05
3.27660	5.05
3.29327	5.05
3.30993	5.05
3.32660	5.05
3.34327	5.05
3.35993	5.05
3.37660	5.05
3.39327	5.05
3.40993	5.05
3.42660	5.05
3.44327	5.05
3.45993	5.05
3.47660	5.05
3.49327	5.05
3.50993	5.05
3.52660	5.05
3.54327	5.05
3.55993	5.05
3.57660	5.05
3.59327	5.05
3.60993	5.05
3.62660	5.05
3.64327	5.05
3.65993	5.05
3.67660	5.05
3.69327	5.05
3.70993	5.05
3.72660	5.05
3.74327	5.05
3.75993	5.05
3.77660	5.05
3.79327	5.05
3.80993	5.05
3.82660	5.05
3.84327	5.05
3.85993	5.05
3.87660	5.05
3.89327	5.05
3.90993	5.05
3.92660	5.05
3.94327	5.05
3.95993	5.05
3.97660	5.05
3.99327	5.05

[Status Trace (Linear Velocity)]
Interval(msec)	1000
# of Points	240
Start Time(min)	0.010
End Time(min)	3.993
Intensity Units	
Intensity Multiplier	1
R.Time (min)	Intensity
0.00993	39.00
0.02660	37.11
0.04327	38.58
0.05993	39.88
0.07660	39.88
0.09327	39.03
0.10993	38.99
0.12660	39.01
0.14327	39.01
0.15993	39.01
0.17660	39.01
0.19327	39.01
0.20993	39.01
0.22660	39.01
0.24327	39.02
0.25993	39.01
0.27660	39.02
0.29327	39.01
0.30993	39.01
0.32660	39.02
0.34327	39.01
0.35993	39.01
0.37660	39.01
0.39327	39.01
0.40993	39.01
0.42660	39.01
0.44327	39.01
0.45993	39.01
0.47660	39.01
0.49327	39.01
0.50993	39.01
0.52660	39.01
0.54327	39.01
0.55993	39.01
0.57660	39.01
0.59327	39.01
0.60993	39.01
0.62660	39.01
0.64327	39.01
0.65993	39.01
0.67660	39.01
0.69327	39.01
0.70993	39.01
0.72660	39.01
0.74327	39.00
0.75993	39.00
0.77660	39.00
0.79327	39.01
0.80993	39.01
0.82660	39.01
0.84327	39.01
0.85993	39.01
0.87660	39.01
0.89327	39.01
0.90993	39.01
0.92660	39.01
0.94327	39.01
0.95993	39.01
0.97660	39.01
0.99327	39.01
1.00993	39.01
1.02660	39.01
1.04327	39.01
1.05993	39.01
1.07660	39.01
1.09327	39.01
1.10993	39.01
1.12660	39.00
1.14327	39.00
1.15993	39.00
1.17660	39.00
1.19327	39.00
1.20993	39.00
1.22660	39.01
1.24327	39.01
1.25993	39.01
1.27660	39.01
1.29327	39.01
1.30993	39.01
1.32660	39.01
1.34327	39.01
1.35993	39.01
1.37660	39.01
1.39327	39.01
1.40993	39.01
1.42660	39.01
1.44327	39.01
1.45993	39.01
1.47660	39.01
1.49327	39.01
1.50993	39.01
1.52660	39.01
1.54327	39.01
1.55993	39.01
1.57660	39.01
1.59327	39.01
1.60993	39.00
1.62660	38.99
1.64327	38.98
1.65993	38.95
1.67660	38.92
1.69327	38.88
1.70993	38.85
1.72660	38.82
1.74327	38.78
1.75993	38.75
1.77660	38.72
1.79327	38.69
1.80993	38.66
1.82660	38.63
1.84327	38.60
1.85993	38.57
1.87660	38.53
1.89327	38.50
1.90993	38.47
1.92660	38.44
1.94327	38.41
1.95993	38.38
1.97660	38.35
1.99327	38.32
2.00993	38.29
2.02660	38.27
2.04327	38.24
2.05993	38.20
2.07660	38.17
2.09327	38.15
2.10993	38.12
2.12660	38.09
2.14327	38.06
2.15993	38.03
2.17660	37.99
2.19327	37.97
2.20993	37.94
2.22660	37.91
2.24327	37.88
2.25993	37.85
2.27660	37.82
2.29327	37.79
2.30993	37.76
2.32660	37.73
2.34327	37.70
2.35993	37.67
2.37660	37.65
2.39327	37.65
2.40993	37.66
2.42660	37.66
2.44327	37.66
2.45993	37.65
2.47660	37.65
2.49327	37.65
2.50993	37.65
2.52660	37.64
2.54327	37.65
2.55993	37.65
2.57660	37.64
2.59327	37.64
2.60993	37.64
2.62660	37.64
2.64327	37.64
2.65993	37.64
2.67660	37.64
2.69327	37.64
2.70993	37.64
2.72660	37.64
2.74327	37.64
2.75993	37.64
2.77660	37.64
2.79327	37.64
2.80993	37.64
2.82660	37.63
2.84327	37.63
2.85993	37.63
2.87660	37.63
2.89327	37.63
2.90993	37.63
2.92660	37.63
2.94327	37.63
2.95993	37.63
2.97660	37.63
2.99327	37.63
3.00993	37.63
3.02660	37.62
3.04327	37.62
3.05993	37.62
3.07660	37.62
3.09327	37.62
3.10993	37.62
3.12660	37.62
3.14327	37.62
3.15993	37.62
3.17660	37.62
3.19327	37.62
3.20993	37.62
3.22660	37.62
3.24327	37.62
3.25993	37.62
3.27660	37.62
3.29327	37.62
3.30993	37.62
3.32660	37.62
3.34327	37.62
3.35993	37.62
3.37660	37.62
3.39327	37.62
3.40993	37.62
3.42660	37.62
3.44327	37.62
3.45993	37.62
3.47660	37.62
3.49327	37.62
3.50993	37.62
3.52660	37.62
3.54327	37.62
3.55993	37.62
3.57660	37.62
3.59327	37.62
3.60993	37.62
3.62660	37.62
3.64327	37.62
3.65993	37.62
3.67660	37.62
3.69327	37.62
3.70993	37.62
3.72660	37.62
3.74327	37.62
3.75993	37.62
3.77660	37.62
3.79327	37.62
3.80993	37.62
3.82660	37.62
3.84327	37.62
3.85993	37.62
3.87660	37.62
3.89327	37.62
3.90993	37.62
3.92660	37.62
3.94327	37.62
3.95993	37.62
3.97660	37.62
3.99327	37.62

