[Header]
Application Name	LabSolutions
Version	5.110
Data File Name	C:\Users\User\Desktop\GC Analyses\Jack\UIC Prairie Sampling\7.9.22\220909_093.gcd
Output Date	9/28/2022
Output Time	11:29:55 AM

[File Information]
Type	Data File
Generated	9/20/2022 11:43:49 AM
Generated by	System Administrator
Modified	9/20/2022 11:48:09 AM
Modified by	System Administrator

[Sample Information]
Operator Name	System Administrator
Acquired	9/20/2022 11:44:08 AM
Sample Type	1:Standard
Level	1
Sample Name	220909_Run
Sample ID	220909_Run
ISTD Amount1	1
ISTD Amount2	1
ISTD Amount3	1
ISTD Amount4	1
ISTD Amount5	1
ISTD Amount6	1
ISTD Amount7	1
ISTD Amount8	1
ISTD Amount9	1
ISTD Amount10	1
ISTD Amount11	1
ISTD Amount12	1
ISTD Amount13	1
ISTD Amount14	1
ISTD Amount15	1
ISTD Amount16	1
ISTD Amount17	1
ISTD Amount18	1
ISTD Amount19	1
ISTD Amount20	1
ISTD Amount21	1
ISTD Amount22	1
ISTD Amount23	1
ISTD Amount24	1
ISTD Amount25	1
ISTD Amount26	1
ISTD Amount27	1
ISTD Amount28	1
ISTD Amount29	1
ISTD Amount30	1
ISTD Amount31	1
ISTD Amount32	1
Sample Amount	1
Dilution Factor	1
Vial#	1
Injection Volume	1
Injection Count	1
Bar Code	

[Original Files]
Data File	C:\Users\User\Desktop\GC Analyses\Jack\220909\220909_093.gcd
Method File	C:\LabSolutions\Data\GHG_4min_2022\ghg3_togas_w_acet_4 min_new_int.gcm
Batch File	
Report Format File	c:\LabSolutions\System\DEFAULT.lsr

[File Description]


[Configuration]
Instrument Name	C0B7VH3-Instrument1
Instrument #	1
Line #	1
# of Detectors	3
Detector ID	DET#1	DET#2	DET#3
Detector Name	FID	PTCD	ECD
# of Channels	1	1	1

[Peak Table(Ch1)]
# of Peaks	3
Peak#	R.Time	I.Time	F.Time	Area	Height	A/H	Conc.	Mark	ID#	Name	k'	Plate #	Plate Ht.	Tailing	Resolution	Sep.Factor	Area Ratio	Height Ratio	Conc. %	Norm Conc.
1	1.472	1.439	1.534	7786	3208	2.427	100.000	   	1	CO	0.000	7052	21.272	1.392	0.000	0.000	0	0	16.667	16.667
2	1.571	1.534	1.641	20094	10267	1.957	100.000	   	2	CH4	0.067	11447	13.104	1.236	1.537	0.000	0	0	16.667	16.667
3	2.000	1.952	2.323	2118760	1040498	2.036	400.000	   	3	CO2	0.359	17533	8.555	1.221	7.201	5.333	0	0	66.667	66.667

[Peak Table(Ch2)]
# of Peaks	0

[Peak Table(Ch3)]
# of Peaks	3
Peak#	R.Time	I.Time	F.Time	Area	Height	A/H	Conc.	Mark	ID#	Name	k'	Plate #	Plate Ht.	Tailing	Resolution	Sep.Factor	Area Ratio	Height Ratio	Conc. %	Norm Conc.
1	2.447	1.072	2.649	20484	502	40.797	0.000	   			0.000	94	1594.767	0.578	0.000	0.000	0	0	0.000	0.000
2	2.884	2.664	3.192	73918	18422	4.012	1.000	   	1	N2O	0.178	12360	12.135	1.589	0.784	0.000	0	0	50.000	50.000
3	3.335	3.199	3.962	18892	805	23.462	1.000	   	2	SF6	0.363	462	324.392	2.736	1.246	2.034	0	0	50.000	50.000

[Compound Results(Ch1)]
# of IDs	6
ID#	Name	R.Time	Area	Height	Conc.	Curve	3rd	2nd	1st	Constant	Area Ratio	Height Ratio	Conc. %	Norm Conc.
1	CO	1.472	7786	3208	100.000	Linear	0.000000e+00	0.000000e+00	7.785801e+001	0.000000e+00	0	0	16.667	16.667
2	CH4	1.571	20094	10267	100.000	Linear	0.000000e+00	0.000000e+00	2.009383e+002	0.000000e+00	0	0	16.667	16.667
3	CO2	2.000	2118760	1040498	400.000	Linear	0.000000e+00	0.000000e+00	5.296901e+003	0.000000e+00	0	0	66.667	66.667
4	Ethylene	0.000	0	0	0.000	Linear	0.000000e+00	0.000000e+00	0.000000e+00	0.000000e+00	0	0	0.000	0.000
5	Acetylene	0.000	0	0	0.000	Linear	0.000000e+00	0.000000e+00	0.000000e+00	0.000000e+00	0	0	0.000	0.000
6	Ethane	0.000	0	0	0.000	Linear	0.000000e+00	0.000000e+00	0.000000e+00	0.000000e+00	0	0	0.000	0.000

[Compound Results(Ch2)]
# of IDs	5
ID#	Name	R.Time	Area	Height	Conc.	Curve	3rd	2nd	1st	Constant	Area Ratio	Height Ratio	Conc. %	Norm Conc.
1	Hydrogen	0.000	0	0	0.000	Linear	0.000000e+00	0.000000e+00	0.000000e+00	0.000000e+00	0	0	0.000	0.000
2	Oxygen	0.000	0	0	0.000	Linear	0.000000e+00	0.000000e+00	0.000000e+00	0.000000e+00	0	0	0.000	0.000
3	Nitrogen	0.000	0	0	0.000	Linear	0.000000e+00	0.000000e+00	0.000000e+00	0.000000e+00	0	0	0.000	0.000
4	Methane	0.000	0	0	0.000	Linear	0.000000e+00	0.000000e+00	0.000000e+00	0.000000e+00	0	0	0.000	0.000
5	Carbon Monoxide	0.000	0	0	0.000	Linear	0.000000e+00	0.000000e+00	0.000000e+00	0.000000e+00	0	0	0.000	0.000

[Compound Results(Ch3)]
# of IDs	2
ID#	Name	R.Time	Area	Height	Conc.	Curve	3rd	2nd	1st	Constant	Area Ratio	Height Ratio	Conc. %	Norm Conc.
1	N2O	2.884	73918	18422	1.000	Linear	0.000000e+00	0.000000e+00	7.391799e+004	0.000000e+00	0	0	50.000	50.000
2	SF6	3.335	18892	805	1.000	Linear	0.000000e+00	0.000000e+00	1.889205e+004	0.000000e+00	0	0	50.000	50.000

[Group Results(Ch1)]
# of Groups	0

[Group Results(Ch2)]
# of Groups	0

[Group Results(Ch3)]
# of Groups	0

[Chromatogram (Ch1)]
Interval(msec)	220
# of Points	1091
Start Time(min)	0.002
End Time(min)	3.998
R.Time (min)	Intensity
0.00167	15
0.00533	20
0.00900	24
0.01267	26
0.01633	27
0.02000	22
0.02367	17
0.02733	15
0.03100	13
0.03467	13
0.03833	14
0.04200	19
0.04567	23
0.04933	24
0.05300	24
0.05667	25
0.06033	26
0.06400	20
0.06767	11
0.07133	5
0.07500	2
0.07867	4
0.08233	6
0.08600	8
0.08967	9
0.09333	8
0.09700	7
0.10067	5
0.10433	-0
0.10800	-4
0.11167	-6
0.11533	-7
0.11900	-12
0.12267	-19
0.12633	-26
0.13000	-30
0.13367	-29
0.13733	-22
0.14100	-15
0.14467	-11
0.14833	-7
0.15200	-4
0.15567	-7
0.15933	-9
0.16300	-12
0.16667	-13
0.17033	-12
0.17400	-11
0.17767	-11
0.18133	-11
0.18500	-13
0.18867	-12
0.19233	-13
0.19600	-16
0.19967	-21
0.20333	-27
0.20700	-31
0.21067	-33
0.21433	-32
0.21800	-29
0.22167	-27
0.22533	-28
0.22900	-29
0.23267	-28
0.23633	-24
0.24000	-20
0.24367	-14
0.24733	-8
0.25100	-5
0.25467	-6
0.25833	-8
0.26200	-12
0.26567	-17
0.26933	-18
0.27300	-16
0.27667	-14
0.28033	-15
0.28400	-16
0.28767	-14
0.29133	-12
0.29500	-8
0.29867	-0
0.30233	7
0.30600	12
0.30967	12
0.31333	7
0.31700	-1
0.32067	-8
0.32433	-14
0.32800	-18
0.33167	-20
0.33533	-20
0.33900	-21
0.34267	-24
0.34633	-26
0.35000	-27
0.35367	-26
0.35733	-26
0.36100	-25
0.36467	-24
0.36833	-22
0.37200	-24
0.37567	-28
0.37933	-28
0.38300	-26
0.38667	-21
0.39033	-17
0.39400	-14
0.39767	-13
0.40133	-14
0.40500	-16
0.40867	-23
0.41233	-31
0.41600	-38
0.41967	-44
0.42333	-48
0.42700	-51
0.43067	-57
0.43433	-64
0.43800	-68
0.44167	-72
0.44533	-75
0.44900	-76
0.45267	-75
0.45633	-73
0.46000	-73
0.46367	-74
0.46733	-71
0.47100	-67
0.47467	-63
0.47833	-60
0.48200	-61
0.48567	-68
0.48933	-76
0.49300	-76
0.49667	-69
0.50033	-64
0.50400	-61
0.50767	-59
0.51133	-57
0.51500	-56
0.51867	-59
0.52233	-61
0.52600	-63
0.52967	-67
0.53333	-74
0.53700	-80
0.54067	-85
0.54433	-89
0.54800	-89
0.55167	-90
0.55533	-89
0.55900	-88
0.56267	-89
0.56633	-86
0.57000	-86
0.57367	-91
0.57733	-97
0.58100	-100
0.58467	-99
0.58833	-93
0.59200	-89
0.59567	-86
0.59933	-81
0.60300	-74
0.60667	-70
0.61033	-68
0.61400	-67
0.61767	-67
0.62133	-69
0.62500	-70
0.62867	-72
0.63233	-74
0.63600	-76
0.63967	-77
0.64333	-76
0.64700	-76
0.65067	-78
0.65433	-80
0.65800	-82
0.66167	-83
0.66533	-87
0.66900	-90
0.67267	-91
0.67633	-89
0.68000	-76
0.68367	-45
0.68733	-41
0.69100	-49
0.69467	-59
0.69833	-69
0.70200	-76
0.70567	-84
0.70933	-91
0.71300	-94
0.71667	-96
0.72033	-98
0.72400	-98
0.72767	-99
0.73133	-100
0.73500	-99
0.73867	-99
0.74233	-100
0.74600	-100
0.74967	-101
0.75333	-99
0.75700	-93
0.76067	-89
0.76433	-91
0.76800	-96
0.77167	-103
0.77533	-109
0.77900	-112
0.78267	-112
0.78633	-110
0.79000	-107
0.79367	-102
0.79733	-102
0.80100	-105
0.80467	-108
0.80833	-109
0.81200	-107
0.81567	-105
0.81933	-104
0.82300	-106
0.82667	-111
0.83033	-115
0.83400	-117
0.83767	-115
0.84133	-109
0.84500	-102
0.84867	-98
0.85233	-95
0.85600	-94
0.85967	-95
0.86333	-98
0.86700	-103
0.87067	-107
0.87433	-110
0.87800	-113
0.88167	-116
0.88533	-115
0.88900	-107
0.89267	-97
0.89633	-88
0.90000	-83
0.90367	-86
0.90733	-94
0.91100	-100
0.91467	-99
0.91833	-98
0.92200	-100
0.92567	-107
0.92933	-112
0.93300	-113
0.93667	-112
0.94033	-111
0.94400	-111
0.94767	-113
0.95133	-114
0.95500	-117
0.95867	-121
0.96233	-126
0.96600	-129
0.96967	-129
0.97333	-129
0.97700	-130
0.98067	-134
0.98433	-137
0.98800	-137
0.99167	-134
0.99533	-134
0.99900	-135
1.00267	-134
1.00633	-135
1.01000	-135
1.01367	-131
1.01733	-129
1.02100	-126
1.02467	-124
1.02833	-122
1.03200	-116
1.03567	-107
1.03933	-102
1.04300	-102
1.04667	-108
1.05033	-115
1.05400	-120
1.05767	-123
1.06133	-123
1.06500	-123
1.06867	-125
1.07233	-126
1.07600	-123
1.07967	-120
1.08333	-122
1.08700	-126
1.09067	-127
1.09433	-129
1.09800	-129
1.10167	-130
1.10533	-132
1.10900	-136
1.11267	-135
1.11633	-131
1.12000	-130
1.12367	-132
1.12733	-134
1.13100	-135
1.13467	-132
1.13833	-130
1.14200	-131
1.14567	-134
1.14933	-133
1.15300	-131
1.15667	-128
1.16033	-126
1.16400	-125
1.16767	-127
1.17133	-128
1.17500	-127
1.17867	-127
1.18233	-129
1.18600	-132
1.18967	-137
1.19333	-140
1.19700	-142
1.20067	-142
1.20433	-139
1.20800	-136
1.21167	-135
1.21533	-135
1.21900	-136
1.22267	-138
1.22633	-141
1.23000	-144
1.23367	-146
1.23733	-144
1.24100	-139
1.24467	-134
1.24833	-131
1.25200	-129
1.25567	-127
1.25933	-125
1.26300	-125
1.26667	-127
1.27033	-128
1.27400	-134
1.27767	-143
1.28133	-150
1.28500	-153
1.28867	-153
1.29233	-154
1.29600	-158
1.29967	-160
1.30333	-160
1.30700	-159
1.31067	-152
1.31433	-145
1.31800	-141
1.32167	-141
1.32533	-145
1.32900	-150
1.33267	-156
1.33633	-163
1.34000	-170
1.34367	-175
1.34733	-176
1.35100	-175
1.35467	-172
1.35833	-164
1.36200	-156
1.36567	-150
1.36933	-146
1.37300	-147
1.37667	-154
1.38033	-165
1.38400	-171
1.38767	-172
1.39133	-167
1.39500	-160
1.39867	-154
1.40233	-149
1.40600	-147
1.40967	-147
1.41333	-150
1.41700	-154
1.42067	-156
1.42433	-156
1.42800	-158
1.43167	-161
1.43533	-162
1.43900	-153
1.44267	-90
1.44633	137
1.45000	609
1.45367	1239
1.45733	1875
1.46100	2400
1.46467	2771
1.46833	2986
1.47200	3051
1.47567	2971
1.47933	2769
1.48300	2474
1.48667	2121
1.49033	1748
1.49400	1390
1.49767	1070
1.50133	797
1.50500	569
1.50867	387
1.51233	243
1.51600	128
1.51967	35
1.52333	-42
1.52700	-101
1.53067	-142
1.53433	-167
1.53800	-167
1.54167	-70
1.54533	337
1.54900	1338
1.55267	2990
1.55633	4991
1.56000	6925
1.56367	8510
1.56733	9607
1.57100	10092
1.57467	9830
1.57833	8817
1.58200	7284
1.58567	5589
1.58933	4034
1.59300	2770
1.59667	1822
1.60033	1150
1.60400	693
1.60767	389
1.61133	187
1.61500	49
1.61867	-47
1.62233	-111
1.62600	-148
1.62967	-168
1.63333	-178
1.63700	-185
1.64067	-190
1.64433	-198
1.64800	-209
1.65167	-218
1.65533	-224
1.65900	-232
1.66267	-239
1.66633	-241
1.67000	-241
1.67367	-240
1.67733	-238
1.68100	-235
1.68467	-232
1.68833	-227
1.69200	-224
1.69567	-223
1.69933	-223
1.70300	-225
1.70667	-226
1.71033	-224
1.71400	-216
1.71767	-204
1.72133	-194
1.72500	-189
1.72867	-188
1.73233	-192
1.73600	-200
1.73967	-211
1.74333	-223
1.74700	-229
1.75067	-229
1.75433	-225
1.75800	-221
1.76167	-218
1.76533	-218
1.76900	-216
1.77267	-213
1.77633	-210
1.78000	-207
1.78367	-204
1.78733	-203
1.79100	-203
1.79467	-202
1.79833	-200
1.80200	-201
1.80567	-205
1.80933	-209
1.81300	-215
1.81667	-221
1.82033	-222
1.82400	-218
1.82767	-212
1.83133	-206
1.83500	-198
1.83867	-194
1.84233	-192
1.84600	-189
1.84967	-192
1.85333	-196
1.85700	-200
1.86067	-201
1.86433	-202
1.86800	-201
1.87167	-197
1.87533	-188
1.87900	-181
1.88267	-178
1.88633	-181
1.89000	-188
1.89367	-197
1.89733	-202
1.90100	-206
1.90467	-209
1.90833	-212
1.91200	-212
1.91567	-207
1.91933	-202
1.92300	-196
1.92667	-190
1.93033	-182
1.93400	-177
1.93767	-177
1.94133	-182
1.94500	-186
1.94867	-185
1.95233	-175
1.95600	-134
1.95967	111
1.96333	1472
1.96700	7420
1.97067	27273
1.97433	78132
1.97800	178905
1.98167	335088
1.98533	528845
1.98900	726165
1.99267	892652
1.99633	1002385
2.00000	1040354
2.00367	1003911
2.00733	903660
2.01100	761336
2.01467	603785
2.01833	454509
2.02200	328049
2.02567	229423
2.02933	157015
2.03300	106098
2.03667	71338
2.04033	48065
2.04400	32655
2.04767	22492
2.05133	15776
2.05500	11313
2.05867	8322
2.06233	6290
2.06600	4881
2.06967	3882
2.07333	3160
2.07700	2625
2.08067	2223
2.08433	1912
2.08800	1666
2.09167	1468
2.09533	1306
2.09900	1173
2.10267	1061
2.10633	963
2.11000	880
2.11367	812
2.11733	757
2.12100	708
2.12467	664
2.12833	625
2.13200	586
2.13567	548
2.13933	513
2.14300	485
2.14667	465
2.15033	447
2.15400	424
2.15767	398
2.16133	370
2.16500	348
2.16867	331
2.17233	318
2.17600	306
2.17967	295
2.18333	285
2.18700	276
2.19067	268
2.19433	257
2.19800	246
2.20167	239
2.20533	235
2.20900	230
2.21267	222
2.21633	211
2.22000	201
2.22367	190
2.22733	181
2.23100	175
2.23467	169
2.23833	160
2.24200	149
2.24567	141
2.24933	136
2.25300	133
2.25667	128
2.26033	124
2.26400	123
2.26767	127
2.27133	133
2.27500	138
2.27867	134
2.28233	122
2.28600	108
2.28967	94
2.29333	87
2.29700	87
2.30067	90
2.30433	96
2.30800	99
2.31167	95
2.31533	87
2.31900	76
2.32267	68
2.32633	61
2.33000	59
2.33367	60
2.33733	65
2.34100	67
2.34467	66
2.34833	62
2.35200	60
2.35567	62
2.35933	65
2.36300	68
2.36667	71
2.37033	73
2.37400	72
2.37767	69
2.38133	66
2.38500	63
2.38867	60
2.39233	59
2.39600	57
2.39967	55
2.40333	54
2.40700	54
2.41067	55
2.41433	55
2.41800	51
2.42167	48
2.42533	44
2.42900	41
2.43267	41
2.43633	43
2.44000	48
2.44367	52
2.44733	51
2.45100	46
2.45467	40
2.45833	35
2.46200	34
2.46567	33
2.46933	34
2.47300	35
2.47667	35
2.48033	34
2.48400	32
2.48767	31
2.49133	31
2.49500	28
2.49867	24
2.50233	21
2.50600	17
2.50967	16
2.51333	16
2.51700	14
2.52067	12
2.52433	11
2.52800	11
2.53167	13
2.53533	13
2.53900	11
2.54267	7
2.54633	6
2.55000	5
2.55367	1
2.55733	-1
2.56100	-5
2.56467	-7
2.56833	-7
2.57200	-5
2.57567	-4
2.57933	-5
2.58300	-6
2.58667	-4
2.59033	-3
2.59400	-5
2.59767	-9
2.60133	-12
2.60500	-12
2.60867	-13
2.61233	-16
2.61600	-20
2.61967	-21
2.62333	-22
2.62700	-21
2.63067	-17
2.63433	-12
2.63800	-7
2.64167	-6
2.64533	-7
2.64900	-6
2.65267	-4
2.65633	-3
2.66000	-6
2.66367	-11
2.66733	-16
2.67100	-19
2.67467	-23
2.67833	-29
2.68200	-34
2.68567	-36
2.68933	-36
2.69300	-33
2.69667	-26
2.70033	-18
2.70400	-13
2.70767	-9
2.71133	-8
2.71500	-15
2.71867	-18
2.72233	-19
2.72600	-21
2.72967	-24
2.73333	-29
2.73700	-36
2.74067	-45
2.74433	-55
2.74800	-61
2.75167	-61
2.75533	-58
2.75900	-52
2.76267	-46
2.76633	-43
2.77000	-44
2.77367	-47
2.77733	-52
2.78100	-54
2.78467	-53
2.78833	-50
2.79200	-44
2.79567	-38
2.79933	-30
2.80300	-24
2.80667	-22
2.81033	-24
2.81400	-29
2.81767	-34
2.82133	-40
2.82500	-46
2.82867	-51
2.83233	-56
2.83600	-57
2.83967	-56
2.84333	-54
2.84700	-47
2.85067	-42
2.85433	-38
2.85800	-38
2.86167	-42
2.86533	-47
2.86900	-48
2.87267	-46
2.87633	-45
2.88000	-49
2.88367	-42
2.88733	-29
2.89100	-24
2.89467	-24
2.89833	-28
2.90200	-33
2.90567	-39
2.90933	-47
2.91300	-55
2.91667	-61
2.92033	-58
2.92400	-57
2.92767	-56
2.93133	-55
2.93500	-55
2.93867	-54
2.94233	-54
2.94600	-55
2.94967	-54
2.95333	-49
2.95700	-45
2.96067	-42
2.96433	-39
2.96800	-34
2.97167	-27
2.97533	-23
2.97900	-25
2.98267	-32
2.98633	-42
2.99000	-51
2.99367	-55
2.99733	-56
3.00100	-54
3.00467	-51
3.00833	-48
3.01200	-44
3.01567	-39
3.01933	-35
3.02300	-30
3.02667	-30
3.03033	-34
3.03400	-39
3.03767	-40
3.04133	-38
3.04500	-38
3.04867	-41
3.05233	-44
3.05600	-45
3.05967	-46
3.06333	-47
3.06700	-51
3.07067	-55
3.07433	-60
3.07800	-63
3.08167	-64
3.08533	-66
3.08900	-68
3.09267	-71
3.09633	-71
3.10000	-67
3.10367	-64
3.10733	-66
3.11100	-68
3.11467	-67
3.11833	-61
3.12200	-55
3.12567	-51
3.12933	-50
3.13300	-48
3.13667	-46
3.14033	-44
3.14400	-46
3.14767	-52
3.15133	-59
3.15500	-66
3.15867	-74
3.16233	-79
3.16600	-79
3.16967	-73
3.17333	-66
3.17700	-63
3.18067	-67
3.18433	-74
3.18800	-82
3.19167	-88
3.19533	-90
3.19900	-89
3.20267	-85
3.20633	-80
3.21000	-74
3.21367	-68
3.21733	-61
3.22100	-58
3.22467	-55
3.22833	-52
3.23200	-49
3.23567	-49
3.23933	-48
3.24300	-49
3.24667	-49
3.25033	-47
3.25400	-46
3.25767	-48
3.26133	-48
3.26500	-45
3.26867	-40
3.27233	-38
3.27600	-40
3.27967	-45
3.28333	-49
3.28700	-56
3.29067	-65
3.29433	-75
3.29800	-84
3.30167	-90
3.30533	-91
3.30900	-86
3.31267	-79
3.31633	-73
3.32000	-71
3.32367	-73
3.32733	-75
3.33100	-74
3.33467	-73
3.33833	-72
3.34200	-71
3.34567	-72
3.34933	-73
3.35300	-74
3.35667	-72
3.36033	-72
3.36400	-74
3.36767	-74
3.37133	-74
3.37500	-76
3.37867	-79
3.38233	-80
3.38600	-77
3.38967	-71
3.39333	-64
3.39700	-59
3.40067	-56
3.40433	-58
3.40800	-61
3.41167	-62
3.41533	-62
3.41900	-64
3.42267	-68
3.42633	-74
3.43000	-77
3.43367	-76
3.43733	-75
3.44100	-76
3.44467	-79
3.44833	-83
3.45200	-88
3.45567	-92
3.45933	-90
3.46300	-82
3.46667	-77
3.47033	-75
3.47400	-77
3.47767	-81
3.48133	-84
3.48500	-82
3.48867	-76
3.49233	-70
3.49600	-66
3.49967	-64
3.50333	-61
3.50700	-56
3.51067	-52
3.51433	-53
3.51800	-59
3.52167	-70
3.52533	-83
3.52900	-91
3.53267	-96
3.53633	-99
3.54000	-99
3.54367	-95
3.54733	-91
3.55100	-89
3.55467	-86
3.55833	-83
3.56200	-84
3.56567	-87
3.56933	-90
3.57300	-91
3.57667	-89
3.58033	-84
3.58400	-82
3.58767	-84
3.59133	-86
3.59500	-81
3.59867	-73
3.60233	-69
3.60600	-70
3.60967	-74
3.61333	-77
3.61700	-76
3.62067	-71
3.62433	-68
3.62800	-68
3.63167	-72
3.63533	-78
3.63900	-80
3.64267	-79
3.64633	-78
3.65000	-76
3.65367	-70
3.65733	-60
3.66100	-49
3.66467	-45
3.66833	-49
3.67200	-57
3.67567	-63
3.67933	-63
3.68300	-59
3.68667	-56
3.69033	-61
3.69400	-70
3.69767	-77
3.70133	-78
3.70500	-77
3.70867	-74
3.71233	-69
3.71600	-63
3.71967	-57
3.72333	-54
3.72700	-56
3.73067	-60
3.73433	-58
3.73800	-54
3.74167	-54
3.74533	-58
3.74900	-64
3.75267	-68
3.75633	-72
3.76000	-76
3.76367	-80
3.76733	-81
3.77100	-81
3.77467	-81
3.77833	-78
3.78200	-73
3.78567	-68
3.78933	-63
3.79300	-58
3.79667	-54
3.80033	-51
3.80400	-47
3.80767	-44
3.81133	-41
3.81500	-40
3.81867	-47
3.82233	-51
3.82600	-55
3.82967	-60
3.83333	-63
3.83700	-64
3.84067	-64
3.84433	-63
3.84800	-63
3.85167	-61
3.85533	-57
3.85900	-54
3.86267	-54
3.86633	-55
3.87000	-56
3.87367	-53
3.87733	-49
3.88100	-45
3.88467	-46
3.88833	-51
3.89200	-59
3.89567	-66
3.89933	-74
3.90300	-74
3.90667	-73
3.91033	-72
3.91400	-71
3.91767	-69
3.92133	-66
3.92500	-63
3.92867	-62
3.93233	-63
3.93600	-65
3.93967	-62
3.94333	-58
3.94700	-56
3.95067	-58
3.95433	-61
3.95800	-62
3.96167	-61
3.96533	-63
3.96900	-65
3.97267	-68
3.97633	-68
3.98000	-67
3.98367	-66
3.98733	-65
3.99100	-66
3.99467	-65
3.99833	-63

[Chromatogram (Ch2)]
Interval(msec)	220
# of Points	1091
Start Time(min)	0.002
End Time(min)	3.998
R.Time (min)	Intensity
0.00167	0
0.00533	0
0.00900	0
0.01267	0
0.01633	0
0.02000	1
0.02367	0
0.02733	0
0.03100	0
0.03467	0
0.03833	-0
0.04200	-0
0.04567	-0
0.04933	-0
0.05300	-0
0.05667	-0
0.06033	-0
0.06400	-0
0.06767	-0
0.07133	-0
0.07500	-0
0.07867	-0
0.08233	-0
0.08600	-0
0.08967	-0
0.09333	-0
0.09700	-0
0.10067	-0
0.10433	0
0.10800	0
0.11167	0
0.11533	0
0.11900	1
0.12267	1
0.12633	1
0.13000	1
0.13367	1
0.13733	2
0.14100	2
0.14467	3
0.14833	3
0.15200	4
0.15567	5
0.15933	5
0.16300	6
0.16667	6
0.17033	6
0.17400	7
0.17767	7
0.18133	7
0.18500	7
0.18867	7
0.19233	7
0.19600	7
0.19967	8
0.20333	8
0.20700	8
0.21067	8
0.21433	8
0.21800	8
0.22167	8
0.22533	8
0.22900	8
0.23267	8
0.23633	8
0.24000	8
0.24367	8
0.24733	8
0.25100	8
0.25467	8
0.25833	8
0.26200	7
0.26567	7
0.26933	7
0.27300	7
0.27667	7
0.28033	6
0.28400	6
0.28767	6
0.29133	5
0.29500	5
0.29867	5
0.30233	5
0.30600	4
0.30967	4
0.31333	5
0.31700	5
0.32067	5
0.32433	4
0.32800	4
0.33167	5
0.33533	5
0.33900	5
0.34267	5
0.34633	5
0.35000	5
0.35367	5
0.35733	4
0.36100	4
0.36467	4
0.36833	4
0.37200	4
0.37567	4
0.37933	4
0.38300	4
0.38667	4
0.39033	4
0.39400	4
0.39767	3
0.40133	3
0.40500	3
0.40867	4
0.41233	4
0.41600	4
0.41967	4
0.42333	4
0.42700	4
0.43067	3
0.43433	3
0.43800	3
0.44167	2
0.44533	2
0.44900	2
0.45267	2
0.45633	2
0.46000	2
0.46367	2
0.46733	1
0.47100	1
0.47467	2
0.47833	2
0.48200	2
0.48567	2
0.48933	2
0.49300	2
0.49667	2
0.50033	2
0.50400	3
0.50767	3
0.51133	3
0.51500	3
0.51867	3
0.52233	3
0.52600	3
0.52967	3
0.53333	4
0.53700	4
0.54067	4
0.54433	4
0.54800	4
0.55167	4
0.55533	4
0.55900	4
0.56267	4
0.56633	4
0.57000	4
0.57367	4
0.57733	4
0.58100	3
0.58467	3
0.58833	3
0.59200	3
0.59567	3
0.59933	2
0.60300	2
0.60667	1
0.61033	1
0.61400	0
0.61767	-0
0.62133	-0
0.62500	-0
0.62867	-1
0.63233	-0
0.63600	-0
0.63967	0
0.64333	0
0.64700	0
0.65067	1
0.65433	1
0.65800	1
0.66167	1
0.66533	1
0.66900	1
0.67267	1
0.67633	1
0.68000	1
0.68367	1
0.68733	1
0.69100	1
0.69467	2
0.69833	2
0.70200	2
0.70567	3
0.70933	3
0.71300	3
0.71667	3
0.72033	3
0.72400	3
0.72767	3
0.73133	3
0.73500	3
0.73867	3
0.74233	3
0.74600	3
0.74967	2
0.75333	2
0.75700	2
0.76067	2
0.76433	2
0.76800	2
0.77167	2
0.77533	2
0.77900	2
0.78267	2
0.78633	2
0.79000	2
0.79367	2
0.79733	2
0.80100	3
0.80467	3
0.80833	3
0.81200	3
0.81567	4
0.81933	4
0.82300	4
0.82667	4
0.83033	4
0.83400	4
0.83767	3
0.84133	3
0.84500	3
0.84867	3
0.85233	3
0.85600	3
0.85967	3
0.86333	3
0.86700	2
0.87067	2
0.87433	2
0.87800	2
0.88167	2
0.88533	2
0.88900	2
0.89267	2
0.89633	2
0.90000	2
0.90367	3
0.90733	3
0.91100	3
0.91467	3
0.91833	3
0.92200	3
0.92567	3
0.92933	3
0.93300	3
0.93667	3
0.94033	3
0.94400	2
0.94767	2
0.95133	2
0.95500	2
0.95867	2
0.96233	1
0.96600	1
0.96967	1
0.97333	1
0.97700	1
0.98067	1
0.98433	1
0.98800	1
0.99167	1
0.99533	1
0.99900	1
1.00267	1
1.00633	2
1.01000	2
1.01367	2
1.01733	2
1.02100	3
1.02467	3
1.02833	3
1.03200	3
1.03567	3
1.03933	3
1.04300	3
1.04667	3
1.05033	3
1.05400	2
1.05767	2
1.06133	2
1.06500	3
1.06867	3
1.07233	3
1.07600	3
1.07967	4
1.08333	4
1.08700	4
1.09067	4
1.09433	4
1.09800	4
1.10167	4
1.10533	3
1.10900	3
1.11267	3
1.11633	3
1.12000	4
1.12367	4
1.12733	4
1.13100	4
1.13467	3
1.13833	3
1.14200	3
1.14567	3
1.14933	3
1.15300	3
1.15667	3
1.16033	3
1.16400	3
1.16767	3
1.17133	2
1.17500	2
1.17867	2
1.18233	2
1.18600	2
1.18967	2
1.19333	2
1.19700	2
1.20067	2
1.20433	2
1.20800	2
1.21167	2
1.21533	2
1.21900	2
1.22267	3
1.22633	3
1.23000	2
1.23367	2
1.23733	2
1.24100	2
1.24467	2
1.24833	2
1.25200	2
1.25567	2
1.25933	2
1.26300	1
1.26667	1
1.27033	1
1.27400	0
1.27767	-0
1.28133	-0
1.28500	-0
1.28867	-0
1.29233	-0
1.29600	0
1.29967	1
1.30333	1
1.30700	1
1.31067	2
1.31433	2
1.31800	2
1.32167	2
1.32533	2
1.32900	2
1.33267	2
1.33633	3
1.34000	3
1.34367	3
1.34733	3
1.35100	3
1.35467	3
1.35833	3
1.36200	4
1.36567	4
1.36933	4
1.37300	3
1.37667	3
1.38033	3
1.38400	3
1.38767	2
1.39133	2
1.39500	2
1.39867	2
1.40233	2
1.40600	1
1.40967	1
1.41333	1
1.41700	1
1.42067	1
1.42433	0
1.42800	0
1.43167	0
1.43533	0
1.43900	-0
1.44267	-0
1.44633	-0
1.45000	-0
1.45367	-0
1.45733	-0
1.46100	-1
1.46467	-1
1.46833	-1
1.47200	-0
1.47567	-0
1.47933	0
1.48300	0
1.48667	1
1.49033	1
1.49400	1
1.49767	1
1.50133	0
1.50500	1
1.50867	1
1.51233	1
1.51600	1
1.51967	1
1.52333	1
1.52700	1
1.53067	2
1.53433	2
1.53800	2
1.54167	2
1.54533	2
1.54900	2
1.55267	2
1.55633	2
1.56000	2
1.56367	2
1.56733	2
1.57100	2
1.57467	2
1.57833	2
1.58200	2
1.58567	2
1.58933	3
1.59300	3
1.59667	3
1.60033	2
1.60400	1
1.60767	0
1.61133	-1
1.61500	-3
1.61867	-5
1.62233	-7
1.62600	-10
1.62967	-13
1.63333	-16
1.63700	-19
1.64067	-23
1.64433	-27
1.64800	-31
1.65167	-34
1.65533	-38
1.65900	-42
1.66267	-46
1.66633	-50
1.67000	-55
1.67367	-61
1.67733	-66
1.68100	-72
1.68467	-77
1.68833	-82
1.69200	-87
1.69567	-91
1.69933	-95
1.70300	-98
1.70667	-100
1.71033	-102
1.71400	-104
1.71767	-105
1.72133	-106
1.72500	-107
1.72867	-107
1.73233	-108
1.73600	-108
1.73967	-108
1.74333	-108
1.74700	-108
1.75067	-108
1.75433	-108
1.75800	-109
1.76167	-110
1.76533	-111
1.76900	-113
1.77267	-114
1.77633	-114
1.78000	-115
1.78367	-116
1.78733	-117
1.79100	-117
1.79467	-118
1.79833	-119
1.80200	-119
1.80567	-119
1.80933	-120
1.81300	-120
1.81667	-120
1.82033	-119
1.82400	-119
1.82767	-119
1.83133	-119
1.83500	-119
1.83867	-119
1.84233	-119
1.84600	-119
1.84967	-119
1.85333	-118
1.85700	-118
1.86067	-118
1.86433	-118
1.86800	-118
1.87167	-118
1.87533	-118
1.87900	-118
1.88267	-117
1.88633	-117
1.89000	-117
1.89367	-116
1.89733	-116
1.90100	-116
1.90467	-116
1.90833	-116
1.91200	-116
1.91567	-116
1.91933	-116
1.92300	-116
1.92667	-116
1.93033	-116
1.93400	-116
1.93767	-115
1.94133	-115
1.94500	-114
1.94867	-114
1.95233	-114
1.95600	-114
1.95967	-114
1.96333	-114
1.96700	-113
1.97067	-113
1.97433	-113
1.97800	-113
1.98167	-113
1.98533	-113
1.98900	-113
1.99267	-113
1.99633	-113
2.00000	-113
2.00367	-113
2.00733	-112
2.01100	-112
2.01467	-111
2.01833	-111
2.02200	-110
2.02567	-110
2.02933	-109
2.03300	-109
2.03667	-109
2.04033	-109
2.04400	-108
2.04767	-108
2.05133	-108
2.05500	-108
2.05867	-108
2.06233	-107
2.06600	-107
2.06967	-106
2.07333	-106
2.07700	-105
2.08067	-104
2.08433	-103
2.08800	-103
2.09167	-102
2.09533	-102
2.09900	-102
2.10267	-102
2.10633	-102
2.11000	-102
2.11367	-101
2.11733	-101
2.12100	-102
2.12467	-102
2.12833	-102
2.13200	-102
2.13567	-102
2.13933	-101
2.14300	-101
2.14667	-101
2.15033	-101
2.15400	-101
2.15767	-101
2.16133	-100
2.16500	-100
2.16867	-99
2.17233	-99
2.17600	-99
2.17967	-99
2.18333	-98
2.18700	-97
2.19067	-96
2.19433	-95
2.19800	-94
2.20167	-94
2.20533	-93
2.20900	-93
2.21267	-93
2.21633	-93
2.22000	-93
2.22367	-93
2.22733	-93
2.23100	-93
2.23467	-93
2.23833	-93
2.24200	-93
2.24567	-92
2.24933	-92
2.25300	-92
2.25667	-91
2.26033	-91
2.26400	-91
2.26767	-90
2.27133	-90
2.27500	-89
2.27867	-89
2.28233	-88
2.28600	-88
2.28967	-88
2.29333	-88
2.29700	-89
2.30067	-90
2.30433	-91
2.30800	-91
2.31167	-91
2.31533	-90
2.31900	-90
2.32267	-89
2.32633	-88
2.33000	-87
2.33367	-86
2.33733	-86
2.34100	-85
2.34467	-84
2.34833	-83
2.35200	-82
2.35567	-81
2.35933	-80
2.36300	-79
2.36667	-78
2.37033	-76
2.37400	-74
2.37767	-72
2.38133	-68
2.38500	-65
2.38867	-61
2.39233	-57
2.39600	-52
2.39967	-48
2.40333	-43
2.40700	-39
2.41067	-35
2.41433	-31
2.41800	-27
2.42167	-24
2.42533	-21
2.42900	-18
2.43267	-15
2.43633	-13
2.44000	-11
2.44367	-9
2.44733	-7
2.45100	-5
2.45467	-3
2.45833	-2
2.46200	-0
2.46567	1
2.46933	2
2.47300	3
2.47667	4
2.48033	5
2.48400	5
2.48767	6
2.49133	6
2.49500	7
2.49867	8
2.50233	9
2.50600	9
2.50967	10
2.51333	11
2.51700	12
2.52067	12
2.52433	13
2.52800	13
2.53167	14
2.53533	14
2.53900	15
2.54267	16
2.54633	16
2.55000	17
2.55367	17
2.55733	18
2.56100	18
2.56467	18
2.56833	18
2.57200	18
2.57567	18
2.57933	18
2.58300	18
2.58667	18
2.59033	18
2.59400	19
2.59767	19
2.60133	20
2.60500	20
2.60867	20
2.61233	20
2.61600	20
2.61967	21
2.62333	21
2.62700	21
2.63067	22
2.63433	22
2.63800	22
2.64167	22
2.64533	22
2.64900	22
2.65267	22
2.65633	23
2.66000	23
2.66367	23
2.66733	23
2.67100	23
2.67467	23
2.67833	23
2.68200	23
2.68567	23
2.68933	23
2.69300	23
2.69667	24
2.70033	24
2.70400	24
2.70767	24
2.71133	25
2.71500	25
2.71867	25
2.72233	25
2.72600	26
2.72967	26
2.73333	26
2.73700	27
2.74067	27
2.74433	28
2.74800	28
2.75167	28
2.75533	29
2.75900	29
2.76267	29
2.76633	29
2.77000	28
2.77367	28
2.77733	27
2.78100	27
2.78467	26
2.78833	26
2.79200	26
2.79567	26
2.79933	26
2.80300	26
2.80667	26
2.81033	26
2.81400	26
2.81767	26
2.82133	26
2.82500	26
2.82867	26
2.83233	26
2.83600	26
2.83967	26
2.84333	25
2.84700	24
2.85067	21
2.85433	16
2.85800	9
2.86167	-3
2.86533	-18
2.86900	-38
2.87267	-64
2.87633	-94
2.88000	-130
2.88367	-171
2.88733	-216
2.89100	-267
2.89467	-322
2.89833	-381
2.90200	-444
2.90567	-511
2.90933	-580
2.91300	-652
2.91667	-727
2.92033	-804
2.92400	-884
2.92767	-965
2.93133	-1049
2.93500	-1134
2.93867	-1221
2.94233	-1309
2.94600	-1395
2.94967	-1466
2.95333	-1511
2.95700	-1521
2.96067	-1496
2.96433	-1440
2.96800	-1359
2.97167	-1261
2.97533	-1154
2.97900	-1044
2.98267	-934
2.98633	-829
2.99000	-731
2.99367	-640
2.99733	-557
3.00100	-483
3.00467	-417
3.00833	-359
3.01200	-308
3.01567	-263
3.01933	-224
3.02300	-191
3.02667	-162
3.03033	-137
3.03400	-116
3.03767	-97
3.04133	-82
3.04500	-68
3.04867	-56
3.05233	-46
3.05600	-38
3.05967	-30
3.06333	-24
3.06700	-19
3.07067	-14
3.07433	-10
3.07800	-6
3.08167	-4
3.08533	-1
3.08900	1
3.09267	3
3.09633	4
3.10000	5
3.10367	7
3.10733	8
3.11100	8
3.11467	9
3.11833	10
3.12200	10
3.12567	11
3.12933	12
3.13300	13
3.13667	13
3.14033	14
3.14400	15
3.14767	15
3.15133	16
3.15500	16
3.15867	16
3.16233	17
3.16600	17
3.16967	17
3.17333	17
3.17700	17
3.18067	18
3.18433	18
3.18800	18
3.19167	19
3.19533	19
3.19900	19
3.20267	20
3.20633	20
3.21000	20
3.21367	20
3.21733	21
3.22100	21
3.22467	21
3.22833	22
3.23200	22
3.23567	22
3.23933	22
3.24300	23
3.24667	23
3.25033	23
3.25400	23
3.25767	23
3.26133	23
3.26500	23
3.26867	23
3.27233	23
3.27600	23
3.27967	24
3.28333	24
3.28700	24
3.29067	24
3.29433	24
3.29800	24
3.30167	24
3.30533	24
3.30900	24
3.31267	24
3.31633	25
3.32000	25
3.32367	25
3.32733	25
3.33100	25
3.33467	25
3.33833	26
3.34200	26
3.34567	26
3.34933	27
3.35300	27
3.35667	27
3.36033	28
3.36400	28
3.36767	28
3.37133	28
3.37500	29
3.37867	29
3.38233	29
3.38600	29
3.38967	29
3.39333	29
3.39700	29
3.40067	29
3.40433	29
3.40800	29
3.41167	29
3.41533	29
3.41900	29
3.42267	29
3.42633	29
3.43000	29
3.43367	29
3.43733	30
3.44100	30
3.44467	30
3.44833	30
3.45200	30
3.45567	30
3.45933	30
3.46300	30
3.46667	30
3.47033	30
3.47400	31
3.47767	31
3.48133	31
3.48500	31
3.48867	31
3.49233	30
3.49600	30
3.49967	30
3.50333	30
3.50700	30
3.51067	29
3.51433	29
3.51800	29
3.52167	29
3.52533	29
3.52900	29
3.53267	29
3.53633	29
3.54000	29
3.54367	28
3.54733	28
3.55100	28
3.55467	28
3.55833	28
3.56200	28
3.56567	28
3.56933	28
3.57300	28
3.57667	28
3.58033	28
3.58400	28
3.58767	28
3.59133	28
3.59500	28
3.59867	28
3.60233	28
3.60600	29
3.60967	29
3.61333	29
3.61700	29
3.62067	29
3.62433	29
3.62800	29
3.63167	29
3.63533	29
3.63900	29
3.64267	29
3.64633	29
3.65000	29
3.65367	29
3.65733	29
3.66100	29
3.66467	29
3.66833	29
3.67200	29
3.67567	29
3.67933	29
3.68300	29
3.68667	29
3.69033	29
3.69400	29
3.69767	29
3.70133	29
3.70500	29
3.70867	29
3.71233	29
3.71600	29
3.71967	29
3.72333	29
3.72700	29
3.73067	28
3.73433	28
3.73800	28
3.74167	28
3.74533	27
3.74900	27
3.75267	27
3.75633	27
3.76000	27
3.76367	27
3.76733	27
3.77100	27
3.77467	27
3.77833	27
3.78200	27
3.78567	28
3.78933	28
3.79300	28
3.79667	28
3.80033	29
3.80400	29
3.80767	29
3.81133	29
3.81500	29
3.81867	29
3.82233	29
3.82600	30
3.82967	30
3.83333	30
3.83700	30
3.84067	30
3.84433	30
3.84800	30
3.85167	29
3.85533	29
3.85900	29
3.86267	28
3.86633	28
3.87000	28
3.87367	28
3.87733	27
3.88100	27
3.88467	27
3.88833	27
3.89200	27
3.89567	27
3.89933	27
3.90300	27
3.90667	27
3.91033	27
3.91400	27
3.91767	27
3.92133	27
3.92500	27
3.92867	27
3.93233	27
3.93600	27
3.93967	27
3.94333	27
3.94700	27
3.95067	27
3.95433	27
3.95800	27
3.96167	27
3.96533	27
3.96900	27
3.97267	27
3.97633	26
3.98000	26
3.98367	26
3.98733	26
3.99100	26
3.99467	26
3.99833	26

[Chromatogram (Ch3)]
Interval(msec)	220
# of Points	1091
Start Time(min)	0.002
End Time(min)	3.998
R.Time (min)	Intensity
0.00167	1
0.00533	2
0.00900	2
0.01267	0
0.01633	-2
0.02000	-4
0.02367	-5
0.02733	-4
0.03100	-3
0.03467	-5
0.03833	-6
0.04200	-6
0.04567	-6
0.04933	-7
0.05300	-8
0.05667	-7
0.06033	-3
0.06400	-3
0.06767	-2
0.07133	-1
0.07500	-2
0.07867	-2
0.08233	-2
0.08600	-3
0.08967	-2
0.09333	-1
0.09700	0
0.10067	-1
0.10433	-1
0.10800	-3
0.11167	-3
0.11533	-3
0.11900	-2
0.12267	-1
0.12633	-0
0.13000	0
0.13367	0
0.13733	1
0.14100	3
0.14467	6
0.14833	5
0.15200	5
0.15567	5
0.15933	4
0.16300	2
0.16667	-0
0.17033	-2
0.17400	-3
0.17767	-4
0.18133	-5
0.18500	-5
0.18867	-4
0.19233	-6
0.19600	-7
0.19967	-4
0.20333	-2
0.20700	-0
0.21067	0
0.21433	0
0.21800	1
0.22167	1
0.22533	2
0.22900	2
0.23267	2
0.23633	1
0.24000	-1
0.24367	-2
0.24733	-3
0.25100	-2
0.25467	-0
0.25833	-1
0.26200	-0
0.26567	0
0.26933	-0
0.27300	0
0.27667	1
0.28033	-1
0.28400	-2
0.28767	-3
0.29133	-3
0.29500	-4
0.29867	-5
0.30233	-5
0.30600	-5
0.30967	-7
0.31333	-7
0.31700	-6
0.32067	-3
0.32433	-2
0.32800	-2
0.33167	-3
0.33533	-3
0.33900	-3
0.34267	-3
0.34633	-1
0.35000	1
0.35367	4
0.35733	5
0.36100	3
0.36467	-1
0.36833	-4
0.37200	-4
0.37567	-2
0.37933	-1
0.38300	-1
0.38667	-1
0.39033	-1
0.39400	-1
0.39767	-1
0.40133	-2
0.40500	-1
0.40867	-2
0.41233	-2
0.41600	1
0.41967	3
0.42333	2
0.42700	1
0.43067	0
0.43433	-1
0.43800	-1
0.44167	-1
0.44533	-0
0.44900	-1
0.45267	-1
0.45633	0
0.46000	3
0.46367	3
0.46733	2
0.47100	0
0.47467	-1
0.47833	-0
0.48200	1
0.48567	1
0.48933	-2
0.49300	-3
0.49667	-4
0.50033	-3
0.50400	-2
0.50767	-1
0.51133	0
0.51500	2
0.51867	3
0.52233	4
0.52600	5
0.52967	4
0.53333	3
0.53700	3
0.54067	2
0.54433	1
0.54800	-1
0.55167	-3
0.55533	-3
0.55900	-2
0.56267	-1
0.56633	-0
0.57000	1
0.57367	0
0.57733	-0
0.58100	0
0.58467	0
0.58833	1
0.59200	1
0.59567	1
0.59933	3
0.60300	4
0.60667	6
0.61033	7
0.61400	8
0.61767	8
0.62133	4
0.62500	3
0.62867	3
0.63233	7
0.63600	9
0.63967	8
0.64333	6
0.64700	7
0.65067	6
0.65433	5
0.65800	6
0.66167	7
0.66533	7
0.66900	8
0.67267	9
0.67633	8
0.68000	7
0.68367	6
0.68733	7
0.69100	6
0.69467	4
0.69833	4
0.70200	5
0.70567	7
0.70933	8
0.71300	9
0.71667	8
0.72033	8
0.72400	10
0.72767	11
0.73133	9
0.73500	8
0.73867	9
0.74233	9
0.74600	7
0.74967	8
0.75333	8
0.75700	7
0.76067	7
0.76433	7
0.76800	8
0.77167	8
0.77533	9
0.77900	11
0.78267	11
0.78633	13
0.79000	15
0.79367	15
0.79733	13
0.80100	12
0.80467	13
0.80833	14
0.81200	15
0.81567	15
0.81933	13
0.82300	12
0.82667	11
0.83033	11
0.83400	11
0.83767	11
0.84133	11
0.84500	12
0.84867	13
0.85233	14
0.85600	10
0.85967	6
0.86333	7
0.86700	10
0.87067	10
0.87433	11
0.87800	10
0.88167	10
0.88533	11
0.88900	13
0.89267	14
0.89633	15
0.90000	16
0.90367	17
0.90733	16
0.91100	15
0.91467	15
0.91833	15
0.92200	15
0.92567	17
0.92933	17
0.93300	16
0.93667	13
0.94033	11
0.94400	12
0.94767	13
0.95133	15
0.95500	16
0.95867	17
0.96233	16
0.96600	16
0.96967	16
0.97333	16
0.97700	14
0.98067	15
0.98433	14
0.98800	12
0.99167	11
0.99533	13
0.99900	15
1.00267	17
1.00633	18
1.01000	17
1.01367	15
1.01733	13
1.02100	13
1.02467	15
1.02833	16
1.03200	17
1.03567	15
1.03933	13
1.04300	12
1.04667	15
1.05033	17
1.05400	19
1.05767	20
1.06133	22
1.06500	21
1.06867	22
1.07233	24
1.07600	23
1.07967	23
1.08333	22
1.08700	22
1.09067	23
1.09433	23
1.09800	21
1.10167	20
1.10533	20
1.10900	20
1.11267	20
1.11633	21
1.12000	21
1.12367	22
1.12733	20
1.13100	17
1.13467	16
1.13833	16
1.14200	16
1.14567	17
1.14933	16
1.15300	15
1.15667	16
1.16033	17
1.16400	18
1.16767	19
1.17133	20
1.17500	21
1.17867	23
1.18233	27
1.18600	27
1.18967	25
1.19333	22
1.19700	20
1.20067	18
1.20433	18
1.20800	19
1.21167	21
1.21533	22
1.21900	22
1.22267	23
1.22633	23
1.23000	21
1.23367	21
1.23733	22
1.24100	24
1.24467	23
1.24833	23
1.25200	24
1.25567	24
1.25933	24
1.26300	23
1.26667	21
1.27033	20
1.27400	23
1.27767	24
1.28133	25
1.28500	27
1.28867	28
1.29233	26
1.29600	26
1.29967	26
1.30333	26
1.30700	25
1.31067	24
1.31433	21
1.31800	18
1.32167	17
1.32533	18
1.32900	20
1.33267	20
1.33633	19
1.34000	20
1.34367	23
1.34733	26
1.35100	28
1.35467	27
1.35833	24
1.36200	25
1.36567	26
1.36933	25
1.37300	24
1.37667	25
1.38033	25
1.38400	24
1.38767	23
1.39133	23
1.39500	23
1.39867	23
1.40233	21
1.40600	19
1.40967	18
1.41333	20
1.41700	24
1.42067	27
1.42433	28
1.42800	26
1.43167	24
1.43533	25
1.43900	26
1.44267	27
1.44633	28
1.45000	27
1.45367	27
1.45733	27
1.46100	27
1.46467	26
1.46833	25
1.47200	25
1.47567	25
1.47933	26
1.48300	27
1.48667	29
1.49033	31
1.49400	31
1.49767	26
1.50133	23
1.50500	24
1.50867	27
1.51233	29
1.51600	30
1.51967	30
1.52333	32
1.52700	33
1.53067	34
1.53433	34
1.53800	35
1.54167	34
1.54533	35
1.54900	36
1.55267	36
1.55633	35
1.56000	32
1.56367	32
1.56733	32
1.57100	29
1.57467	28
1.57833	29
1.58200	28
1.58567	29
1.58933	32
1.59300	35
1.59667	34
1.60033	34
1.60400	35
1.60767	35
1.61133	34
1.61500	34
1.61867	32
1.62233	32
1.62600	34
1.62967	34
1.63333	33
1.63700	34
1.64067	34
1.64433	34
1.64800	33
1.65167	34
1.65533	35
1.65900	37
1.66267	37
1.66633	37
1.67000	38
1.67367	39
1.67733	40
1.68100	40
1.68467	40
1.68833	41
1.69200	41
1.69567	43
1.69933	45
1.70300	45
1.70667	46
1.71033	48
1.71400	49
1.71767	50
1.72133	52
1.72500	53
1.72867	54
1.73233	56
1.73600	55
1.73967	54
1.74333	53
1.74700	53
1.75067	51
1.75433	50
1.75800	51
1.76167	52
1.76533	55
1.76900	59
1.77267	62
1.77633	63
1.78000	63
1.78367	65
1.78733	65
1.79100	65
1.79467	67
1.79833	68
1.80200	69
1.80567	69
1.80933	72
1.81300	74
1.81667	76
1.82033	78
1.82400	78
1.82767	78
1.83133	78
1.83500	78
1.83867	76
1.84233	75
1.84600	75
1.84967	75
1.85333	76
1.85700	77
1.86067	79
1.86433	81
1.86800	81
1.87167	83
1.87533	84
1.87900	86
1.88267	86
1.88633	86
1.89000	87
1.89367	87
1.89733	89
1.90100	93
1.90467	95
1.90833	96
1.91200	95
1.91567	96
1.91933	96
1.92300	98
1.92667	100
1.93033	103
1.93400	103
1.93767	102
1.94133	102
1.94500	104
1.94867	105
1.95233	107
1.95600	109
1.95967	109
1.96333	109
1.96700	110
1.97067	113
1.97433	116
1.97800	116
1.98167	116
1.98533	119
1.98900	121
1.99267	122
1.99633	123
2.00000	125
2.00367	127
2.00733	127
2.01100	127
2.01467	130
2.01833	132
2.02200	134
2.02567	136
2.02933	138
2.03300	136
2.03667	135
2.04033	137
2.04400	140
2.04767	143
2.05133	145
2.05500	147
2.05867	147
2.06233	148
2.06600	148
2.06967	150
2.07333	151
2.07700	155
2.08067	158
2.08433	159
2.08800	160
2.09167	161
2.09533	162
2.09900	163
2.10267	163
2.10633	161
2.11000	161
2.11367	165
2.11733	168
2.12100	170
2.12467	172
2.12833	173
2.13200	173
2.13567	174
2.13933	175
2.14300	174
2.14667	178
2.15033	181
2.15400	182
2.15767	181
2.16133	179
2.16500	180
2.16867	183
2.17233	185
2.17600	186
2.17967	188
2.18333	189
2.18700	191
2.19067	194
2.19433	194
2.19800	195
2.20167	195
2.20533	195
2.20900	194
2.21267	196
2.21633	199
2.22000	202
2.22367	204
2.22733	205
2.23100	204
2.23467	206
2.23833	208
2.24200	211
2.24567	213
2.24933	214
2.25300	215
2.25667	217
2.26033	217
2.26400	217
2.26767	219
2.27133	220
2.27500	221
2.27867	220
2.28233	221
2.28600	220
2.28967	222
2.29333	226
2.29700	228
2.30067	230
2.30433	233
2.30800	235
2.31167	238
2.31533	241
2.31900	244
2.32267	246
2.32633	246
2.33000	246
2.33367	246
2.33733	249
2.34100	252
2.34467	253
2.34833	255
2.35200	257
2.35567	258
2.35933	260
2.36300	262
2.36667	264
2.37033	263
2.37400	263
2.37767	262
2.38133	261
2.38500	261
2.38867	263
2.39233	264
2.39600	267
2.39967	268
2.40333	269
2.40700	269
2.41067	269
2.41433	270
2.41800	271
2.42167	272
2.42533	274
2.42900	273
2.43267	273
2.43633	274
2.44000	275
2.44367	277
2.44733	278
2.45100	276
2.45467	273
2.45833	269
2.46200	266
2.46567	262
2.46933	260
2.47300	257
2.47667	252
2.48033	250
2.48400	249
2.48767	246
2.49133	241
2.49500	234
2.49867	225
2.50233	214
2.50600	203
2.50967	193
2.51333	186
2.51700	179
2.52067	171
2.52433	165
2.52800	159
2.53167	155
2.53533	152
2.53900	146
2.54267	139
2.54633	136
2.55000	133
2.55367	129
2.55733	126
2.56100	122
2.56467	116
2.56833	109
2.57200	105
2.57567	104
2.57933	101
2.58300	100
2.58667	99
2.59033	98
2.59400	94
2.59767	90
2.60133	82
2.60500	67
2.60867	45
2.61233	14
2.61600	-21
2.61967	-59
2.62333	-99
2.62700	-137
2.63067	-172
2.63433	-204
2.63800	-228
2.64167	-245
2.64533	-255
2.64900	-261
2.65267	-264
2.65633	-266
2.66000	-264
2.66367	-259
2.66733	-252
2.67100	-246
2.67467	-238
2.67833	-227
2.68200	-216
2.68567	-205
2.68933	-196
2.69300	-187
2.69667	-179
2.70033	-171
2.70400	-163
2.70767	-156
2.71133	-148
2.71500	-138
2.71867	-129
2.72233	-122
2.72600	-117
2.72967	-111
2.73333	-104
2.73700	-96
2.74067	-87
2.74433	-80
2.74800	-75
2.75167	-70
2.75533	-64
2.75900	-59
2.76267	-54
2.76633	-48
2.77000	-43
2.77367	-39
2.77733	-35
2.78100	-32
2.78467	-31
2.78833	-29
2.79200	-26
2.79567	-22
2.79933	-16
2.80300	-11
2.80667	-7
2.81033	-6
2.81400	-5
2.81767	1
2.82133	11
2.82500	32
2.82867	82
2.83233	191
2.83600	416
2.83967	829
2.84333	1507
2.84700	2516
2.85067	3885
2.85433	5606
2.85800	7609
2.86167	9779
2.86533	11970
2.86900	14014
2.87267	15762
2.87633	17092
2.88000	17926
2.88367	18244
2.88733	18084
2.89100	17517
2.89467	16640
2.89833	15550
2.90200	14333
2.90567	13061
2.90933	11793
2.91300	10567
2.91667	9414
2.92033	8349
2.92400	7372
2.92767	6484
2.93133	5682
2.93500	4966
2.93867	4328
2.94233	3769
2.94600	3277
2.94967	2844
2.95333	2464
2.95700	2134
2.96067	1845
2.96433	1592
2.96800	1370
2.97167	1177
2.97533	1010
2.97900	865
2.98267	739
2.98633	631
2.99000	539
2.99367	459
2.99733	389
3.00100	329
3.00467	280
3.00833	238
3.01200	199
3.01567	163
3.01933	132
3.02300	104
3.02667	82
3.03033	64
3.03400	50
3.03767	37
3.04133	28
3.04500	21
3.04867	11
3.05233	3
3.05600	-5
3.05967	-11
3.06333	-17
3.06700	-20
3.07067	-24
3.07433	-26
3.07800	-29
3.08167	-32
3.08533	-33
3.08900	-32
3.09267	-31
3.09633	-34
3.10000	-36
3.10367	-38
3.10733	-40
3.11100	-41
3.11467	-44
3.11833	-48
3.12200	-48
3.12567	-45
3.12933	-43
3.13300	-43
3.13667	-44
3.14033	-48
3.14400	-54
3.14767	-57
3.15133	-54
3.15500	-50
3.15867	-48
3.16233	-48
3.16600	-47
3.16967	-46
3.17333	-48
3.17700	-51
3.18067	-51
3.18433	-52
3.18800	-55
3.19167	-66
3.19533	-73
3.19900	-65
3.20267	-37
3.20633	3
3.21000	50
3.21367	99
3.21733	148
3.22100	197
3.22467	247
3.22833	294
3.23200	340
3.23567	380
3.23933	417
3.24300	450
3.24667	484
3.25033	516
3.25400	544
3.25767	571
3.26133	597
3.26500	621
3.26867	643
3.27233	663
3.27600	681
3.27967	700
3.28333	717
3.28700	728
3.29067	738
3.29433	749
3.29800	761
3.30167	770
3.30533	778
3.30900	785
3.31267	791
3.31633	798
3.32000	805
3.32367	811
3.32733	813
3.33100	815
3.33467	818
3.33833	819
3.34200	818
3.34567	815
3.34933	810
3.35300	806
3.35667	803
3.36033	802
3.36400	801
3.36767	803
3.37133	802
3.37500	801
3.37867	798
3.38233	796
3.38600	794
3.38967	791
3.39333	788
3.39700	785
3.40067	780
3.40433	775
3.40800	771
3.41167	768
3.41533	767
3.41900	764
3.42267	759
3.42633	751
3.43000	744
3.43367	739
3.43733	736
3.44100	733
3.44467	733
3.44833	733
3.45200	731
3.45567	724
3.45933	719
3.46300	716
3.46667	713
3.47033	709
3.47400	707
3.47767	703
3.48133	698
3.48500	695
3.48867	694
3.49233	691
3.49600	689
3.49967	685
3.50333	681
3.50700	676
3.51067	672
3.51433	670
3.51800	668
3.52167	667
3.52533	664
3.52900	660
3.53267	657
3.53633	652
3.54000	647
3.54367	643
3.54733	638
3.55100	633
3.55467	628
3.55833	623
3.56200	620
3.56567	617
3.56933	614
3.57300	613
3.57667	614
3.58033	613
3.58400	609
3.58767	607
3.59133	604
3.59500	601
3.59867	597
3.60233	591
3.60600	586
3.60967	584
3.61333	583
3.61700	581
3.62067	576
3.62433	574
3.62800	572
3.63167	569
3.63533	565
3.63900	562
3.64267	559
3.64633	555
3.65000	552
3.65367	548
3.65733	547
3.66100	546
3.66467	543
3.66833	539
3.67200	537
3.67567	534
3.67933	533
3.68300	533
3.68667	530
3.69033	526
3.69400	523
3.69767	520
3.70133	518
3.70500	515
3.70867	511
3.71233	505
3.71600	503
3.71967	501
3.72333	497
3.72700	493
3.73067	493
3.73433	492
3.73800	493
3.74167	492
3.74533	490
3.74900	488
3.75267	483
3.75633	482
3.76000	479
3.76367	476
3.76733	474
3.77100	473
3.77467	472
3.77833	472
3.78200	470
3.78567	466
3.78933	462
3.79300	458
3.79667	454
3.80033	450
3.80400	448
3.80767	445
3.81133	442
3.81500	439
3.81867	438
3.82233	437
3.82600	435
3.82967	433
3.83333	433
3.83700	432
3.84067	430
3.84433	428
3.84800	428
3.85167	426
3.85533	422
3.85900	420
3.86267	419
3.86633	418
3.87000	416
3.87367	414
3.87733	411
3.88100	408
3.88467	405
3.88833	405
3.89200	403
3.89567	401
3.89933	397
3.90300	393
3.90667	391
3.91033	391
3.91400	390
3.91767	387
3.92133	386
3.92500	386
3.92867	383
3.93233	378
3.93600	376
3.93967	373
3.94333	371
3.94700	369
3.95067	368
3.95433	368
3.95800	372
3.96167	371
3.96533	368
3.96900	364
3.97267	363
3.97633	360
3.98000	356
3.98367	351
3.98733	349
3.99100	347
3.99467	347
3.99833	345

[Status Trace (Column Oven Temperature)]
Interval(msec)	1000
# of Points	240
Start Time(min)	0.014
End Time(min)	3.998
Intensity Units	
Intensity Multiplier	1
R.Time (min)	Intensity
0.01430	35.08
0.03097	35.08
0.04763	35.09
0.06430	35.10
0.08097	35.10
0.09763	35.11
0.11430	35.12
0.13097	35.12
0.14763	35.11
0.16430	35.09
0.18097	35.07
0.19763	35.04
0.21430	35.02
0.23097	35.00
0.24763	34.99
0.26430	34.99
0.28097	34.98
0.29763	34.98
0.31430	34.97
0.33097	34.97
0.34763	34.96
0.36430	34.97
0.38097	34.96
0.39763	34.95
0.41430	34.95
0.43097	34.96
0.44763	34.96
0.46430	34.97
0.48097	34.97
0.49763	34.97
0.51430	34.98
0.53097	34.97
0.54763	34.97
0.56430	34.96
0.58097	34.97
0.59763	34.98
0.61430	34.99
0.63097	35.00
0.64763	35.00
0.66430	35.00
0.68097	35.01
0.69763	34.99
0.71430	34.98
0.73097	34.99
0.74763	34.99
0.76430	35.00
0.78097	34.99
0.79763	34.98
0.81430	34.97
0.83097	34.96
0.84763	34.97
0.86430	34.96
0.88097	34.96
0.89763	34.95
0.91430	34.96
0.93097	34.96
0.94763	34.97
0.96430	34.98
0.98097	34.99
0.99763	34.99
1.01430	34.99
1.03097	34.99
1.04763	34.99
1.06430	34.99
1.08097	34.98
1.09763	34.97
1.11430	34.97
1.13097	34.98
1.14763	34.98
1.16430	34.98
1.18097	34.98
1.19763	34.98
1.21430	34.98
1.23097	34.99
1.24763	34.99
1.26430	35.00
1.28097	34.99
1.29763	34.99
1.31430	34.99
1.33097	34.98
1.34763	34.97
1.36430	34.97
1.38097	34.97
1.39763	34.98
1.41430	34.99
1.43097	35.01
1.44763	35.02
1.46430	35.02
1.48097	35.02
1.49763	35.03
1.51430	35.03
1.53097	35.02
1.54763	35.01
1.56430	35.01
1.58097	35.00
1.59763	35.02
1.61430	35.09
1.63097	35.23
1.64763	35.44
1.66430	35.72
1.68097	36.10
1.69763	36.46
1.71430	36.81
1.73097	37.13
1.74763	37.44
1.76430	37.78
1.78097	38.12
1.79763	38.46
1.81430	38.80
1.83097	39.12
1.84763	39.45
1.86430	39.78
1.88097	40.10
1.89763	40.42
1.91430	40.77
1.93097	41.08
1.94763	41.40
1.96430	41.73
1.98097	42.05
1.99763	42.39
2.01430	42.71
2.03097	43.03
2.04763	43.35
2.06430	43.69
2.08097	44.00
2.09763	44.33
2.11430	44.65
2.13097	44.99
2.14763	45.32
2.16430	45.64
2.18097	45.98
2.19763	46.29
2.21430	46.62
2.23097	46.95
2.24763	47.28
2.26430	47.61
2.28097	47.93
2.29763	48.31
2.31430	48.63
2.33097	48.96
2.34763	49.27
2.36430	49.49
2.38097	49.61
2.39763	49.63
2.41430	49.65
2.43097	49.65
2.44763	49.65
2.46430	49.65
2.48097	49.69
2.49763	49.70
2.51430	49.72
2.53097	49.74
2.54763	49.75
2.56430	49.78
2.58097	49.79
2.59763	49.81
2.61430	49.83
2.63097	49.83
2.64763	49.84
2.66430	49.84
2.68097	49.85
2.69763	49.87
2.71430	49.87
2.73097	49.86
2.74763	49.84
2.76430	49.86
2.78097	49.89
2.79763	49.90
2.81430	49.91
2.83097	49.93
2.84763	49.94
2.86430	49.94
2.88097	49.93
2.89763	49.92
2.91430	49.93
2.93097	49.95
2.94763	49.96
2.96430	49.96
2.98097	49.96
2.99763	49.97
3.01430	49.98
3.03097	50.00
3.04763	50.00
3.06430	49.99
3.08097	50.00
3.09763	50.01
3.11430	50.03
3.13097	50.04
3.14763	50.04
3.16430	50.06
3.18097	50.06
3.19763	50.07
3.21430	50.07
3.23097	50.07
3.24763	50.08
3.26430	50.08
3.28097	50.09
3.29763	50.10
3.31430	50.11
3.33097	50.11
3.34763	50.10
3.36430	50.08
3.38097	50.07
3.39763	50.07
3.41430	50.06
3.43097	50.05
3.44763	50.05
3.46430	50.04
3.48097	50.04
3.49763	50.05
3.51430	50.04
3.53097	50.05
3.54763	50.05
3.56430	50.05
3.58097	50.06
3.59763	50.05
3.61430	50.06
3.63097	50.06
3.64763	50.06
3.66430	50.05
3.68097	50.06
3.69763	50.05
3.71430	50.06
3.73097	50.06
3.74763	50.08
3.76430	50.08
3.78097	50.08
3.79763	50.07
3.81430	50.06
3.83097	50.04
3.84763	50.04
3.86430	50.05
3.88097	50.05
3.89763	50.05
3.91430	50.06
3.93097	50.06
3.94763	50.06
3.96430	50.08
3.98097	50.09
3.99763	50.10

[Status Trace (Injection Unit Temperature)]
Interval(msec)	1000
# of Points	240
Start Time(min)	0.014
End Time(min)	3.998
Intensity Units	
Intensity Multiplier	1
R.Time (min)	Intensity
0.01430	99.98
0.03097	99.98
0.04763	99.98
0.06430	99.98
0.08097	99.98
0.09763	99.98
0.11430	99.98
0.13097	99.98
0.14763	99.98
0.16430	99.98
0.18097	99.98
0.19763	99.98
0.21430	99.98
0.23097	99.98
0.24763	99.98
0.26430	99.98
0.28097	99.98
0.29763	99.98
0.31430	99.99
0.33097	99.98
0.34763	99.98
0.36430	99.98
0.38097	99.98
0.39763	99.98
0.41430	99.98
0.43097	99.99
0.44763	99.98
0.46430	99.98
0.48097	99.99
0.49763	99.98
0.51430	99.98
0.53097	99.98
0.54763	99.98
0.56430	99.98
0.58097	99.98
0.59763	99.98
0.61430	99.98
0.63097	99.97
0.64763	99.98
0.66430	99.98
0.68097	99.98
0.69763	99.98
0.71430	99.98
0.73097	99.98
0.74763	99.98
0.76430	99.98
0.78097	99.98
0.79763	99.98
0.81430	99.98
0.83097	99.98
0.84763	99.98
0.86430	99.98
0.88097	99.98
0.89763	99.98
0.91430	99.98
0.93097	99.98
0.94763	99.98
0.96430	99.98
0.98097	99.99
0.99763	99.98
1.01430	99.98
1.03097	99.99
1.04763	99.98
1.06430	99.98
1.08097	99.99
1.09763	99.98
1.11430	99.98
1.13097	99.98
1.14763	99.98
1.16430	99.98
1.18097	99.99
1.19763	99.98
1.21430	99.99
1.23097	99.98
1.24763	99.99
1.26430	99.99
1.28097	99.98
1.29763	99.99
1.31430	99.98
1.33097	99.98
1.34763	99.98
1.36430	99.99
1.38097	99.99
1.39763	99.99
1.41430	99.99
1.43097	99.98
1.44763	99.99
1.46430	99.99
1.48097	99.98
1.49763	99.99
1.51430	99.99
1.53097	99.98
1.54763	99.99
1.56430	99.99
1.58097	99.99
1.59763	99.99
1.61430	99.99
1.63097	99.99
1.64763	99.99
1.66430	99.99
1.68097	99.99
1.69763	99.99
1.71430	99.99
1.73097	99.99
1.74763	99.99
1.76430	99.98
1.78097	99.99
1.79763	99.99
1.81430	99.98
1.83097	99.98
1.84763	99.99
1.86430	99.98
1.88097	99.98
1.89763	99.98
1.91430	99.99
1.93097	99.98
1.94763	99.98
1.96430	99.98
1.98097	99.98
1.99763	99.98
2.01430	99.98
2.03097	99.98
2.04763	99.97
2.06430	99.97
2.08097	99.97
2.09763	99.97
2.11430	99.98
2.13097	99.97
2.14763	99.97
2.16430	99.97
2.18097	99.97
2.19763	99.97
2.21430	99.97
2.23097	99.97
2.24763	99.97
2.26430	99.97
2.28097	99.97
2.29763	99.97
2.31430	99.97
2.33097	99.97
2.34763	99.97
2.36430	99.97
2.38097	99.96
2.39763	99.96
2.41430	99.97
2.43097	99.97
2.44763	99.97
2.46430	99.97
2.48097	99.97
2.49763	99.97
2.51430	99.97
2.53097	99.97
2.54763	99.97
2.56430	99.97
2.58097	99.97
2.59763	99.97
2.61430	99.97
2.63097	99.97
2.64763	99.98
2.66430	99.98
2.68097	99.98
2.69763	99.98
2.71430	99.98
2.73097	99.99
2.74763	99.99
2.76430	99.99
2.78097	99.99
2.79763	99.99
2.81430	99.99
2.83097	99.99
2.84763	99.99
2.86430	99.99
2.88097	99.99
2.89763	100.00
2.91430	100.00
2.93097	100.00
2.94763	100.00
2.96430	100.01
2.98097	100.00
2.99763	100.01
3.01430	100.01
3.03097	100.01
3.04763	100.01
3.06430	100.01
3.08097	100.01
3.09763	100.01
3.11430	100.01
3.13097	100.02
3.14763	100.02
3.16430	100.02
3.18097	100.02
3.19763	100.02
3.21430	100.02
3.23097	100.02
3.24763	100.02
3.26430	100.02
3.28097	100.02
3.29763	100.02
3.31430	100.02
3.33097	100.02
3.34763	100.02
3.36430	100.03
3.38097	100.03
3.39763	100.03
3.41430	100.03
3.43097	100.03
3.44763	100.03
3.46430	100.03
3.48097	100.04
3.49763	100.03
3.51430	100.03
3.53097	100.03
3.54763	100.03
3.56430	100.04
3.58097	100.03
3.59763	100.03
3.61430	100.04
3.63097	100.04
3.64763	100.04
3.66430	100.04
3.68097	100.04
3.69763	100.04
3.71430	100.04
3.73097	100.04
3.74763	100.04
3.76430	100.04
3.78097	100.04
3.79763	100.04
3.81430	100.04
3.83097	100.04
3.84763	100.05
3.86430	100.05
3.88097	100.05
3.89763	100.05
3.91430	100.04
3.93097	100.05
3.94763	100.05
3.96430	100.05
3.98097	100.05
3.99763	100.05

[Status Trace (Carrier Gas Pressure)]
Interval(msec)	1000
# of Points	240
Start Time(min)	0.014
End Time(min)	3.998
Intensity Units	
Intensity Multiplier	1
R.Time (min)	Intensity
0.01430	57.40
0.03097	55.35
0.04763	57.90
0.06430	59.84
0.08097	58.78
0.09763	57.99
0.11430	58.00
0.13097	58.01
0.14763	58.01
0.16430	58.00
0.18097	58.00
0.19763	58.00
0.21430	58.00
0.23097	58.00
0.24763	58.00
0.26430	58.00
0.28097	58.00
0.29763	58.00
0.31430	58.00
0.33097	58.00
0.34763	58.00
0.36430	58.00
0.38097	58.00
0.39763	58.00
0.41430	58.00
0.43097	58.00
0.44763	58.00
0.46430	58.00
0.48097	58.00
0.49763	58.00
0.51430	58.00
0.53097	58.00
0.54763	58.00
0.56430	58.00
0.58097	58.00
0.59763	58.00
0.61430	58.00
0.63097	58.00
0.64763	58.00
0.66430	58.00
0.68097	58.00
0.69763	58.00
0.71430	58.00
0.73097	58.00
0.74763	58.00
0.76430	58.00
0.78097	58.00
0.79763	58.00
0.81430	58.00
0.83097	58.00
0.84763	58.00
0.86430	58.00
0.88097	58.00
0.89763	58.00
0.91430	58.00
0.93097	58.00
0.94763	58.00
0.96430	58.00
0.98097	58.00
0.99763	58.00
1.01430	58.00
1.03097	58.00
1.04763	58.00
1.06430	58.00
1.08097	58.00
1.09763	58.00
1.11430	58.00
1.13097	58.00
1.14763	58.00
1.16430	58.00
1.18097	58.00
1.19763	58.00
1.21430	58.00
1.23097	58.00
1.24763	58.00
1.26430	58.00
1.28097	58.00
1.29763	58.00
1.31430	58.00
1.33097	58.00
1.34763	58.00
1.36430	58.00
1.38097	58.00
1.39763	58.00
1.41430	58.00
1.43097	58.00
1.44763	58.00
1.46430	58.00
1.48097	58.00
1.49763	58.00
1.51430	58.00
1.53097	58.00
1.54763	58.00
1.56430	58.00
1.58097	58.00
1.59763	58.00
1.61430	58.00
1.63097	58.00
1.64763	58.00
1.66430	58.01
1.68097	58.01
1.69763	58.00
1.71430	58.00
1.73097	58.00
1.74763	58.00
1.76430	58.00
1.78097	58.00
1.79763	58.00
1.81430	58.00
1.83097	58.00
1.84763	58.00
1.86430	58.00
1.88097	58.00
1.89763	58.00
1.91430	58.00
1.93097	58.00
1.94763	58.00
1.96430	58.00
1.98097	58.00
1.99763	58.00
2.01430	58.00
2.03097	58.00
2.04763	58.00
2.06430	58.00
2.08097	58.00
2.09763	58.00
2.11430	58.00
2.13097	58.00
2.14763	58.00
2.16430	58.00
2.18097	58.00
2.19763	58.00
2.21430	58.00
2.23097	58.00
2.24763	58.00
2.26430	58.00
2.28097	58.00
2.29763	58.00
2.31430	58.00
2.33097	58.00
2.34763	58.00
2.36430	58.00
2.38097	57.99
2.39763	57.99
2.41430	58.00
2.43097	58.00
2.44763	58.00
2.46430	58.00
2.48097	58.00
2.49763	58.00
2.51430	57.99
2.53097	57.99
2.54763	58.00
2.56430	58.00
2.58097	58.00
2.59763	58.00
2.61430	58.00
2.63097	58.00
2.64763	58.00
2.66430	58.00
2.68097	58.00
2.69763	58.00
2.71430	58.00
2.73097	58.00
2.74763	58.00
2.76430	58.00
2.78097	58.00
2.79763	58.00
2.81430	58.00
2.83097	58.00
2.84763	58.00
2.86430	58.00
2.88097	58.00
2.89763	58.00
2.91430	58.00
2.93097	58.00
2.94763	58.00
2.96430	58.00
2.98097	58.00
2.99763	58.00
3.01430	58.00
3.03097	58.00
3.04763	58.00
3.06430	58.00
3.08097	58.00
3.09763	58.00
3.11430	58.00
3.13097	58.00
3.14763	58.00
3.16430	58.00
3.18097	58.00
3.19763	58.00
3.21430	58.00
3.23097	58.00
3.24763	58.00
3.26430	58.00
3.28097	58.00
3.29763	58.00
3.31430	58.00
3.33097	58.00
3.34763	58.00
3.36430	58.00
3.38097	58.00
3.39763	58.00
3.41430	58.00
3.43097	58.00
3.44763	58.00
3.46430	58.00
3.48097	58.00
3.49763	58.00
3.51430	58.00
3.53097	58.00
3.54763	58.00
3.56430	58.00
3.58097	58.00
3.59763	58.00
3.61430	58.00
3.63097	58.00
3.64763	58.00
3.66430	58.00
3.68097	58.00
3.69763	58.00
3.71430	58.00
3.73097	58.00
3.74763	58.00
3.76430	58.00
3.78097	58.00
3.79763	58.00
3.81430	58.00
3.83097	58.00
3.84763	58.00
3.86430	58.00
3.88097	58.00
3.89763	58.00
3.91430	58.00
3.93097	58.00
3.94763	58.00
3.96430	58.00
3.98097	58.00
3.99763	58.00

[Status Trace (Carrier Gas Flow)]
Interval(msec)	1000
# of Points	240
Start Time(min)	0.014
End Time(min)	3.998
Intensity Units	
Intensity Multiplier	1
R.Time (min)	Intensity
0.01430	34.05
0.03097	34.53
0.04763	34.55
0.06430	34.52
0.08097	34.50
0.09763	34.52
0.11430	34.52
0.13097	34.52
0.14763	34.52
0.16430	34.52
0.18097	34.52
0.19763	34.52
0.21430	34.52
0.23097	34.52
0.24763	34.52
0.26430	34.52
0.28097	34.52
0.29763	34.52
0.31430	34.52
0.33097	34.52
0.34763	34.52
0.36430	34.52
0.38097	34.52
0.39763	34.52
0.41430	34.52
0.43097	34.52
0.44763	34.52
0.46430	34.52
0.48097	34.52
0.49763	34.52
0.51430	34.52
0.53097	34.52
0.54763	34.52
0.56430	34.52
0.58097	34.52
0.59763	34.52
0.61430	34.52
0.63097	34.52
0.64763	34.52
0.66430	34.52
0.68097	34.52
0.69763	34.52
0.71430	34.52
0.73097	34.52
0.74763	34.52
0.76430	34.52
0.78097	34.52
0.79763	34.52
0.81430	34.52
0.83097	34.52
0.84763	34.52
0.86430	34.52
0.88097	34.52
0.89763	34.52
0.91430	34.52
0.93097	34.52
0.94763	34.52
0.96430	34.52
0.98097	34.52
0.99763	34.52
1.01430	34.52
1.03097	34.52
1.04763	34.52
1.06430	34.52
1.08097	34.52
1.09763	34.52
1.11430	34.52
1.13097	34.52
1.14763	34.52
1.16430	34.52
1.18097	34.52
1.19763	34.52
1.21430	34.52
1.23097	34.52
1.24763	34.52
1.26430	34.52
1.28097	34.52
1.29763	34.52
1.31430	34.52
1.33097	34.52
1.34763	34.52
1.36430	34.52
1.38097	34.52
1.39763	34.52
1.41430	34.52
1.43097	34.52
1.44763	34.52
1.46430	34.52
1.48097	34.52
1.49763	34.52
1.51430	34.52
1.53097	34.52
1.54763	34.52
1.56430	34.52
1.58097	34.52
1.59763	34.52
1.61430	34.52
1.63097	34.52
1.64763	34.52
1.66430	34.52
1.68097	34.52
1.69763	34.52
1.71430	34.52
1.73097	34.52
1.74763	34.52
1.76430	34.52
1.78097	34.52
1.79763	34.52
1.81430	34.52
1.83097	34.52
1.84763	34.52
1.86430	34.52
1.88097	34.52
1.89763	34.52
1.91430	34.52
1.93097	34.52
1.94763	34.52
1.96430	34.52
1.98097	34.52
1.99763	34.52
2.01430	34.52
2.03097	34.52
2.04763	34.52
2.06430	34.52
2.08097	34.52
2.09763	34.52
2.11430	34.52
2.13097	34.52
2.14763	34.52
2.16430	34.52
2.18097	34.52
2.19763	34.52
2.21430	34.52
2.23097	34.52
2.24763	34.52
2.26430	34.52
2.28097	34.52
2.29763	34.52
2.31430	34.52
2.33097	34.52
2.34763	34.52
2.36430	34.52
2.38097	34.52
2.39763	34.52
2.41430	34.50
2.43097	34.52
2.44763	34.52
2.46430	34.52
2.48097	34.52
2.49763	34.52
2.51430	34.52
2.53097	34.52
2.54763	34.52
2.56430	34.52
2.58097	34.52
2.59763	34.52
2.61430	34.52
2.63097	34.52
2.64763	34.52
2.66430	34.52
2.68097	34.52
2.69763	34.52
2.71430	34.52
2.73097	34.52
2.74763	34.52
2.76430	34.52
2.78097	34.52
2.79763	34.52
2.81430	34.52
2.83097	34.52
2.84763	34.52
2.86430	34.52
2.88097	34.52
2.89763	34.52
2.91430	34.52
2.93097	34.52
2.94763	34.52
2.96430	34.52
2.98097	34.52
2.99763	34.52
3.01430	34.52
3.03097	34.52
3.04763	34.52
3.06430	34.52
3.08097	34.52
3.09763	34.52
3.11430	34.52
3.13097	34.52
3.14763	34.52
3.16430	34.52
3.18097	34.52
3.19763	34.52
3.21430	34.52
3.23097	34.52
3.24763	34.52
3.26430	34.52
3.28097	34.52
3.29763	34.52
3.31430	34.52
3.33097	34.52
3.34763	34.52
3.36430	34.52
3.38097	34.52
3.39763	34.52
3.41430	34.52
3.43097	34.52
3.44763	34.52
3.46430	34.52
3.48097	34.52
3.49763	34.52
3.51430	34.52
3.53097	34.52
3.54763	34.52
3.56430	34.51
3.58097	34.52
3.59763	34.52
3.61430	34.52
3.63097	34.52
3.64763	34.52
3.66430	34.51
3.68097	34.52
3.69763	34.50
3.71430	34.52
3.73097	34.52
3.74763	34.52
3.76430	34.52
3.78097	34.52
3.79763	34.52
3.81430	34.54
3.83097	34.52
3.84763	34.53
3.86430	34.51
3.88097	34.52
3.89763	34.52
3.91430	34.52
3.93097	34.52
3.94763	34.52
3.96430	34.53
3.98097	34.52
3.99763	34.52

[Status Trace (Column Flow)]
Interval(msec)	1000
# of Points	240
Start Time(min)	0.014
End Time(min)	3.998
Intensity Units	
Intensity Multiplier	1
R.Time (min)	Intensity
0.01430	5.43
0.03097	5.19
0.04763	5.48
0.06430	5.71
0.08097	5.59
0.09763	5.49
0.11430	5.49
0.13097	5.50
0.14763	5.49
0.16430	5.50
0.18097	5.50
0.19763	5.50
0.21430	5.50
0.23097	5.50
0.24763	5.50
0.26430	5.50
0.28097	5.50
0.29763	5.50
0.31430	5.50
0.33097	5.50
0.34763	5.50
0.36430	5.50
0.38097	5.50
0.39763	5.50
0.41430	5.50
0.43097	5.50
0.44763	5.50
0.46430	5.50
0.48097	5.50
0.49763	5.50
0.51430	5.50
0.53097	5.50
0.54763	5.50
0.56430	5.50
0.58097	5.50
0.59763	5.50
0.61430	5.50
0.63097	5.50
0.64763	5.50
0.66430	5.50
0.68097	5.50
0.69763	5.50
0.71430	5.50
0.73097	5.50
0.74763	5.50
0.76430	5.50
0.78097	5.50
0.79763	5.50
0.81430	5.50
0.83097	5.50
0.84763	5.50
0.86430	5.50
0.88097	5.50
0.89763	5.50
0.91430	5.50
0.93097	5.50
0.94763	5.50
0.96430	5.50
0.98097	5.50
0.99763	5.50
1.01430	5.50
1.03097	5.50
1.04763	5.50
1.06430	5.50
1.08097	5.50
1.09763	5.50
1.11430	5.50
1.13097	5.50
1.14763	5.50
1.16430	5.50
1.18097	5.50
1.19763	5.50
1.21430	5.50
1.23097	5.50
1.24763	5.50
1.26430	5.50
1.28097	5.50
1.29763	5.50
1.31430	5.50
1.33097	5.50
1.34763	5.50
1.36430	5.50
1.38097	5.50
1.39763	5.50
1.41430	5.50
1.43097	5.50
1.44763	5.50
1.46430	5.50
1.48097	5.50
1.49763	5.50
1.51430	5.50
1.53097	5.50
1.54763	5.50
1.56430	5.50
1.58097	5.50
1.59763	5.50
1.61430	5.50
1.63097	5.49
1.64763	5.48
1.66430	5.48
1.68097	5.46
1.69763	5.45
1.71430	5.44
1.73097	5.43
1.74763	5.42
1.76430	5.41
1.78097	5.40
1.79763	5.39
1.81430	5.38
1.83097	5.37
1.84763	5.36
1.86430	5.35
1.88097	5.34
1.89763	5.33
1.91430	5.32
1.93097	5.31
1.94763	5.30
1.96430	5.29
1.98097	5.28
1.99763	5.27
2.01430	5.26
2.03097	5.25
2.04763	5.24
2.06430	5.23
2.08097	5.23
2.09763	5.22
2.11430	5.21
2.13097	5.20
2.14763	5.19
2.16430	5.18
2.18097	5.17
2.19763	5.16
2.21430	5.15
2.23097	5.14
2.24763	5.13
2.26430	5.12
2.28097	5.11
2.29763	5.10
2.31430	5.09
2.33097	5.09
2.34763	5.08
2.36430	5.07
2.38097	5.07
2.39763	5.07
2.41430	5.07
2.43097	5.07
2.44763	5.07
2.46430	5.07
2.48097	5.07
2.49763	5.06
2.51430	5.06
2.53097	5.06
2.54763	5.06
2.56430	5.06
2.58097	5.06
2.59763	5.06
2.61430	5.06
2.63097	5.06
2.64763	5.06
2.66430	5.06
2.68097	5.06
2.69763	5.06
2.71430	5.06
2.73097	5.06
2.74763	5.06
2.76430	5.06
2.78097	5.06
2.79763	5.06
2.81430	5.06
2.83097	5.06
2.84763	5.06
2.86430	5.06
2.88097	5.06
2.89763	5.06
2.91430	5.06
2.93097	5.06
2.94763	5.06
2.96430	5.06
2.98097	5.06
2.99763	5.06
3.01430	5.06
3.03097	5.06
3.04763	5.06
3.06430	5.06
3.08097	5.06
3.09763	5.06
3.11430	5.06
3.13097	5.06
3.14763	5.06
3.16430	5.05
3.18097	5.05
3.19763	5.05
3.21430	5.05
3.23097	5.05
3.24763	5.05
3.26430	5.05
3.28097	5.05
3.29763	5.05
3.31430	5.05
3.33097	5.05
3.34763	5.05
3.36430	5.05
3.38097	5.05
3.39763	5.05
3.41430	5.05
3.43097	5.05
3.44763	5.06
3.46430	5.06
3.48097	5.06
3.49763	5.06
3.51430	5.06
3.53097	5.06
3.54763	5.05
3.56430	5.05
3.58097	5.05
3.59763	5.05
3.61430	5.05
3.63097	5.05
3.64763	5.05
3.66430	5.05
3.68097	5.05
3.69763	5.05
3.71430	5.05
3.73097	5.05
3.74763	5.05
3.76430	5.05
3.78097	5.05
3.79763	5.05
3.81430	5.05
3.83097	5.06
3.84763	5.06
3.86430	5.06
3.88097	5.06
3.89763	5.05
3.91430	5.05
3.93097	5.05
3.94763	5.05
3.96430	5.05
3.98097	5.05
3.99763	5.05

[Status Trace (Linear Velocity)]
Interval(msec)	1000
# of Points	240
Start Time(min)	0.014
End Time(min)	3.998
Intensity Units	
Intensity Multiplier	1
R.Time (min)	Intensity
0.01430	38.61
0.03097	37.26
0.04763	38.94
0.06430	40.20
0.08097	39.51
0.09763	38.99
0.11430	39.00
0.13097	39.01
0.14763	39.00
0.16430	39.01
0.18097	39.01
0.19763	39.01
0.21430	39.01
0.23097	39.01
0.24763	39.01
0.26430	39.01
0.28097	39.01
0.29763	39.01
0.31430	39.01
0.33097	39.02
0.34763	39.02
0.36430	39.01
0.38097	39.01
0.39763	39.02
0.41430	39.02
0.43097	39.02
0.44763	39.01
0.46430	39.01
0.48097	39.01
0.49763	39.01
0.51430	39.01
0.53097	39.01
0.54763	39.01
0.56430	39.02
0.58097	39.01
0.59763	39.01
0.61430	39.01
0.63097	39.01
0.64763	39.01
0.66430	39.01
0.68097	39.01
0.69763	39.01
0.71430	39.01
0.73097	39.01
0.74763	39.01
0.76430	39.01
0.78097	39.01
0.79763	39.01
0.81430	39.01
0.83097	39.01
0.84763	39.01
0.86430	39.01
0.88097	39.02
0.89763	39.02
0.91430	39.02
0.93097	39.02
0.94763	39.01
0.96430	39.01
0.98097	39.01
0.99763	39.01
1.01430	39.01
1.03097	39.01
1.04763	39.01
1.06430	39.01
1.08097	39.01
1.09763	39.01
1.11430	39.01
1.13097	39.01
1.14763	39.01
1.16430	39.01
1.18097	39.01
1.19763	39.01
1.21430	39.01
1.23097	39.01
1.24763	39.01
1.26430	39.01
1.28097	39.01
1.29763	39.01
1.31430	39.01
1.33097	39.01
1.34763	39.01
1.36430	39.01
1.38097	39.01
1.39763	39.01
1.41430	39.01
1.43097	39.01
1.44763	39.01
1.46430	39.01
1.48097	39.01
1.49763	39.01
1.51430	39.01
1.53097	39.01
1.54763	39.01
1.56430	39.01
1.58097	39.01
1.59763	39.01
1.61430	39.00
1.63097	38.99
1.64763	38.97
1.66430	38.95
1.68097	38.91
1.69763	38.87
1.71430	38.84
1.73097	38.81
1.74763	38.78
1.76430	38.75
1.78097	38.71
1.79763	38.68
1.81430	38.65
1.83097	38.62
1.84763	38.59
1.86430	38.56
1.88097	38.53
1.89763	38.50
1.91430	38.47
1.93097	38.44
1.94763	38.41
1.96430	38.38
1.98097	38.35
1.99763	38.31
2.01430	38.28
2.03097	38.26
2.04763	38.23
2.06430	38.19
2.08097	38.17
2.09763	38.14
2.11430	38.11
2.13097	38.08
2.14763	38.05
2.16430	38.02
2.18097	37.99
2.19763	37.96
2.21430	37.93
2.23097	37.90
2.24763	37.87
2.26430	37.84
2.28097	37.81
2.29763	37.78
2.31430	37.75
2.33097	37.72
2.34763	37.69
2.36430	37.67
2.38097	37.66
2.39763	37.66
2.41430	37.66
2.43097	37.66
2.44763	37.66
2.46430	37.66
2.48097	37.65
2.49763	37.65
2.51430	37.64
2.53097	37.64
2.54763	37.65
2.56430	37.65
2.58097	37.65
2.59763	37.64
2.61430	37.64
2.63097	37.64
2.64763	37.64
2.66430	37.64
2.68097	37.64
2.69763	37.64
2.71430	37.64
2.73097	37.64
2.74763	37.64
2.76430	37.64
2.78097	37.64
2.79763	37.64
2.81430	37.64
2.83097	37.63
2.84763	37.63
2.86430	37.63
2.88097	37.63
2.89763	37.63
2.91430	37.63
2.93097	37.63
2.94763	37.63
2.96430	37.63
2.98097	37.63
2.99763	37.63
3.01430	37.63
3.03097	37.63
3.04763	37.63
3.06430	37.63
3.08097	37.63
3.09763	37.63
3.11430	37.62
3.13097	37.62
3.14763	37.62
3.16430	37.62
3.18097	37.62
3.19763	37.62
3.21430	37.62
3.23097	37.62
3.24763	37.62
3.26430	37.62
3.28097	37.62
3.29763	37.62
3.31430	37.62
3.33097	37.62
3.34763	37.62
3.36430	37.62
3.38097	37.62
3.39763	37.62
3.41430	37.62
3.43097	37.62
3.44763	37.62
3.46430	37.62
3.48097	37.62
3.49763	37.62
3.51430	37.62
3.53097	37.62
3.54763	37.62
3.56430	37.62
3.58097	37.62
3.59763	37.62
3.61430	37.62
3.63097	37.62
3.64763	37.62
3.66430	37.62
3.68097	37.62
3.69763	37.62
3.71430	37.62
3.73097	37.62
3.74763	37.62
3.76430	37.62
3.78097	37.62
3.79763	37.62
3.81430	37.62
3.83097	37.62
3.84763	37.62
3.86430	37.62
3.88097	37.62
3.89763	37.62
3.91430	37.62
3.93097	37.62
3.94763	37.62
3.96430	37.62
3.98097	37.62
3.99763	37.62

