[Header]
Application Name	LabSolutions
Version	5.110
Data File Name	C:\Users\User\Desktop\GC Analyses\Jack\UIC Prairie Sampling\7.9.22\220909_104.gcd
Output Date	9/28/2022
Output Time	11:29:56 AM

[File Information]
Type	Data File
Generated	9/20/2022 1:06:40 PM
Generated by	System Administrator
Modified	9/20/2022 1:11:05 PM
Modified by	System Administrator

[Sample Information]
Operator Name	System Administrator
Acquired	9/20/2022 1:07:04 PM
Sample Type	1:Standard
Level	1
Sample Name	220909_Run
Sample ID	220909_Run
ISTD Amount1	1
ISTD Amount2	1
ISTD Amount3	1
ISTD Amount4	1
ISTD Amount5	1
ISTD Amount6	1
ISTD Amount7	1
ISTD Amount8	1
ISTD Amount9	1
ISTD Amount10	1
ISTD Amount11	1
ISTD Amount12	1
ISTD Amount13	1
ISTD Amount14	1
ISTD Amount15	1
ISTD Amount16	1
ISTD Amount17	1
ISTD Amount18	1
ISTD Amount19	1
ISTD Amount20	1
ISTD Amount21	1
ISTD Amount22	1
ISTD Amount23	1
ISTD Amount24	1
ISTD Amount25	1
ISTD Amount26	1
ISTD Amount27	1
ISTD Amount28	1
ISTD Amount29	1
ISTD Amount30	1
ISTD Amount31	1
ISTD Amount32	1
Sample Amount	1
Dilution Factor	1
Vial#	1
Injection Volume	1
Injection Count	1
Bar Code	

[Original Files]
Data File	C:\Users\User\Desktop\GC Analyses\Jack\220909\220909_104.gcd
Method File	C:\LabSolutions\Data\GHG_4min_2022\ghg3_togas_w_acet_4 min_new_int.gcm
Batch File	
Report Format File	c:\LabSolutions\System\DEFAULT.lsr

[File Description]


[Configuration]
Instrument Name	C0B7VH3-Instrument1
Instrument #	1
Line #	1
# of Detectors	3
Detector ID	DET#1	DET#2	DET#3
Detector Name	FID	PTCD	ECD
# of Channels	1	1	1

[Peak Table(Ch1)]
# of Peaks	3
Peak#	R.Time	I.Time	F.Time	Area	Height	A/H	Conc.	Mark	ID#	Name	k'	Plate #	Plate Ht.	Tailing	Resolution	Sep.Factor	Area Ratio	Height Ratio	Conc. %	Norm Conc.
1	1.476	1.413	1.538	22237	10253	2.169	100.000	   	1	CO	0.000	8728	17.187	1.280	0.000	0.000	0	0	16.667	16.667
2	1.571	1.538	1.633	4537	2286	1.984	100.000	 V 	2	CH4	0.065	11104	13.508	1.196	1.552	0.000	0	0	16.667	16.667
3	2.000	1.952	2.293	2229655	1098198	2.030	400.000	   	3	CO2	0.355	17917	8.372	1.208	7.186	5.500	0	0	66.667	66.667

[Peak Table(Ch2)]
# of Peaks	0

[Peak Table(Ch3)]
# of Peaks	3
Peak#	R.Time	I.Time	F.Time	Area	Height	A/H	Conc.	Mark	ID#	Name	k'	Plate #	Plate Ht.	Tailing	Resolution	Sep.Factor	Area Ratio	Height Ratio	Conc. %	Norm Conc.
1	2.484	0.493	2.649	21521	473	45.530	0.000	   			0.000	88	1705.518	0.546	0.000	0.000	0	0	0.000	0.000
2	2.884	2.810	3.038	17865	4821	3.706	1.000	   	1	N2O	0.161	13448	11.154	1.537	0.690	0.000	0	0	100.000	100.000
3	3.254	3.133	3.965	24199	914	26.478	0.000	   			0.310	281	534.400	3.376	0.845	1.927	0	0	0.000	0.000

[Compound Results(Ch1)]
# of IDs	6
ID#	Name	R.Time	Area	Height	Conc.	Curve	3rd	2nd	1st	Constant	Area Ratio	Height Ratio	Conc. %	Norm Conc.
1	CO	1.476	22237	10253	100.000	Linear	0.000000e+00	0.000000e+00	2.223694e+002	0.000000e+00	0	0	16.667	16.667
2	CH4	1.571	4537	2286	100.000	Linear	0.000000e+00	0.000000e+00	4.536998e+001	0.000000e+00	0	0	16.667	16.667
3	CO2	2.000	2229655	1098198	400.000	Linear	0.000000e+00	0.000000e+00	5.574137e+003	0.000000e+00	0	0	66.667	66.667
4	Ethylene	0.000	0	0	0.000	Linear	0.000000e+00	0.000000e+00	0.000000e+00	0.000000e+00	0	0	0.000	0.000
5	Acetylene	0.000	0	0	0.000	Linear	0.000000e+00	0.000000e+00	0.000000e+00	0.000000e+00	0	0	0.000	0.000
6	Ethane	0.000	0	0	0.000	Linear	0.000000e+00	0.000000e+00	0.000000e+00	0.000000e+00	0	0	0.000	0.000

[Compound Results(Ch2)]
# of IDs	5
ID#	Name	R.Time	Area	Height	Conc.	Curve	3rd	2nd	1st	Constant	Area Ratio	Height Ratio	Conc. %	Norm Conc.
1	Hydrogen	0.000	0	0	0.000	Linear	0.000000e+00	0.000000e+00	0.000000e+00	0.000000e+00	0	0	0.000	0.000
2	Oxygen	0.000	0	0	0.000	Linear	0.000000e+00	0.000000e+00	0.000000e+00	0.000000e+00	0	0	0.000	0.000
3	Nitrogen	0.000	0	0	0.000	Linear	0.000000e+00	0.000000e+00	0.000000e+00	0.000000e+00	0	0	0.000	0.000
4	Methane	0.000	0	0	0.000	Linear	0.000000e+00	0.000000e+00	0.000000e+00	0.000000e+00	0	0	0.000	0.000
5	Carbon Monoxide	0.000	0	0	0.000	Linear	0.000000e+00	0.000000e+00	0.000000e+00	0.000000e+00	0	0	0.000	0.000

[Compound Results(Ch3)]
# of IDs	2
ID#	Name	R.Time	Area	Height	Conc.	Curve	3rd	2nd	1st	Constant	Area Ratio	Height Ratio	Conc. %	Norm Conc.
1	N2O	2.884	17865	4821	1.000	Linear	0.000000e+00	0.000000e+00	1.786474e+004	0.000000e+00	0	0	100.000	100.000
2	SF6	0.000	0	0	0.000	Linear	0.000000e+00	0.000000e+00	0.000000e+00	0.000000e+00	0	0	0.000	0.000

[Group Results(Ch1)]
# of Groups	0

[Group Results(Ch2)]
# of Groups	0

[Group Results(Ch3)]
# of Groups	0

[Chromatogram (Ch1)]
Interval(msec)	220
# of Points	1091
Start Time(min)	0.002
End Time(min)	3.998
R.Time (min)	Intensity
0.00167	10
0.00533	10
0.00900	11
0.01267	11
0.01633	10
0.02000	3
0.02367	-3
0.02733	-8
0.03100	-11
0.03467	-10
0.03833	-4
0.04200	5
0.04567	13
0.04933	14
0.05300	6
0.05667	-7
0.06033	-17
0.06400	-21
0.06767	-17
0.07133	-10
0.07500	-1
0.07867	7
0.08233	12
0.08600	16
0.08967	20
0.09333	23
0.09700	25
0.10067	23
0.10433	23
0.10800	21
0.11167	18
0.11533	13
0.11900	6
0.12267	-1
0.12633	-4
0.13000	-6
0.13367	-6
0.13733	-5
0.14100	-2
0.14467	2
0.14833	1
0.15200	-2
0.15567	-3
0.15933	-1
0.16300	3
0.16667	9
0.17033	16
0.17400	20
0.17767	21
0.18133	16
0.18500	12
0.18867	12
0.19233	19
0.19600	28
0.19967	34
0.20333	34
0.20700	31
0.21067	28
0.21433	25
0.21800	19
0.22167	15
0.22533	14
0.22900	19
0.23267	24
0.23633	28
0.24000	30
0.24367	29
0.24733	29
0.25100	26
0.25467	21
0.25833	19
0.26200	20
0.26567	23
0.26933	26
0.27300	26
0.27667	23
0.28033	18
0.28400	11
0.28767	6
0.29133	1
0.29500	0
0.29867	1
0.30233	3
0.30600	1
0.30967	-4
0.31333	-9
0.31700	-12
0.32067	-14
0.32433	-12
0.32800	-10
0.33167	-8
0.33533	-7
0.33900	-7
0.34267	-12
0.34633	-15
0.35000	-19
0.35367	-21
0.35733	-24
0.36100	-25
0.36467	-24
0.36833	-24
0.37200	-25
0.37567	-25
0.37933	-26
0.38300	-27
0.38667	-27
0.39033	-23
0.39400	-18
0.39767	-16
0.40133	-15
0.40500	-13
0.40867	-13
0.41233	-16
0.41600	-20
0.41967	-21
0.42333	-20
0.42700	-20
0.43067	-22
0.43433	-23
0.43800	-22
0.44167	-21
0.44533	-19
0.44900	-20
0.45267	-22
0.45633	-23
0.46000	-23
0.46367	-22
0.46733	-21
0.47100	-22
0.47467	-21
0.47833	-21
0.48200	-19
0.48567	-13
0.48933	-8
0.49300	-5
0.49667	-5
0.50033	-9
0.50400	-13
0.50767	-18
0.51133	-24
0.51500	-30
0.51867	-34
0.52233	-34
0.52600	-30
0.52967	-22
0.53333	-16
0.53700	-18
0.54067	-23
0.54433	-32
0.54800	-40
0.55167	-45
0.55533	-47
0.55900	-48
0.56267	-46
0.56633	-42
0.57000	-38
0.57367	-38
0.57733	-37
0.58100	-33
0.58467	-27
0.58833	-23
0.59200	-24
0.59567	-30
0.59933	-35
0.60300	-40
0.60667	-42
0.61033	-42
0.61400	-37
0.61767	-28
0.62133	-23
0.62500	-23
0.62867	-22
0.63233	-18
0.63600	-18
0.63967	-19
0.64333	-19
0.64700	-23
0.65067	-30
0.65433	-34
0.65800	-35
0.66167	-36
0.66533	-37
0.66900	-39
0.67267	-42
0.67633	-44
0.68000	-48
0.68367	-52
0.68733	-54
0.69100	-55
0.69467	-57
0.69833	-61
0.70200	-69
0.70567	-78
0.70933	-83
0.71300	-82
0.71667	-75
0.72033	-65
0.72400	-53
0.72767	-43
0.73133	-40
0.73500	-43
0.73867	-48
0.74233	-53
0.74600	-51
0.74967	-45
0.75333	-35
0.75700	-29
0.76067	-26
0.76433	-22
0.76800	-19
0.77167	-23
0.77533	-32
0.77900	-43
0.78267	-49
0.78633	-52
0.79000	-52
0.79367	-51
0.79733	-53
0.80100	-57
0.80467	-61
0.80833	-64
0.81200	-63
0.81567	-61
0.81933	-62
0.82300	-65
0.82667	-70
0.83033	-73
0.83400	-74
0.83767	-75
0.84133	-75
0.84500	-72
0.84867	-69
0.85233	-68
0.85600	-66
0.85967	-63
0.86333	-61
0.86700	-60
0.87067	-57
0.87433	-53
0.87800	-50
0.88167	-49
0.88533	-52
0.88900	-58
0.89267	-65
0.89633	-71
0.90000	-74
0.90367	-75
0.90733	-75
0.91100	-74
0.91467	-70
0.91833	-63
0.92200	-56
0.92567	-56
0.92933	-63
0.93300	-69
0.93667	-71
0.94033	-70
0.94400	-70
0.94767	-72
0.95133	-72
0.95500	-71
0.95867	-68
0.96233	-65
0.96600	-65
0.96967	-67
0.97333	-68
0.97700	-70
0.98067	-71
0.98433	-70
0.98800	-68
0.99167	-65
0.99533	-62
0.99900	-58
1.00267	-58
1.00633	-60
1.01000	-63
1.01367	-67
1.01733	-73
1.02100	-74
1.02467	-71
1.02833	-66
1.03200	-61
1.03567	-57
1.03933	-57
1.04300	-60
1.04667	-66
1.05033	-70
1.05400	-72
1.05767	-68
1.06133	-62
1.06500	-57
1.06867	-57
1.07233	-61
1.07600	-65
1.07967	-66
1.08333	-67
1.08700	-71
1.09067	-78
1.09433	-83
1.09800	-86
1.10167	-87
1.10533	-87
1.10900	-84
1.11267	-78
1.11633	-76
1.12000	-76
1.12367	-75
1.12733	-70
1.13100	-66
1.13467	-66
1.13833	-71
1.14200	-77
1.14567	-82
1.14933	-86
1.15300	-91
1.15667	-93
1.16033	-91
1.16400	-84
1.16767	-75
1.17133	-71
1.17500	-69
1.17867	-69
1.18233	-68
1.18600	-71
1.18967	-74
1.19333	-78
1.19700	-83
1.20067	-88
1.20433	-92
1.20800	-91
1.21167	-90
1.21533	-89
1.21900	-89
1.22267	-89
1.22633	-91
1.23000	-93
1.23367	-96
1.23733	-96
1.24100	-95
1.24467	-91
1.24833	-89
1.25200	-90
1.25567	-91
1.25933	-90
1.26300	-90
1.26667	-88
1.27033	-87
1.27400	-84
1.27767	-82
1.28133	-81
1.28500	-85
1.28867	-92
1.29233	-97
1.29600	-98
1.29967	-96
1.30333	-91
1.30700	-89
1.31067	-90
1.31433	-94
1.31800	-98
1.32167	-102
1.32533	-104
1.32900	-103
1.33267	-104
1.33633	-106
1.34000	-108
1.34367	-109
1.34733	-105
1.35100	-96
1.35467	-82
1.35833	-70
1.36200	-66
1.36567	-68
1.36933	-73
1.37300	-81
1.37667	-91
1.38033	-99
1.38400	-103
1.38767	-104
1.39133	-103
1.39500	-101
1.39867	-102
1.40233	-104
1.40600	-106
1.40967	-105
1.41333	-104
1.41700	-99
1.42067	-93
1.42433	-87
1.42800	-82
1.43167	-81
1.43533	-80
1.43900	-70
1.44267	-12
1.44633	215
1.45000	740
1.45367	1698
1.45733	3203
1.46100	5092
1.46467	6978
1.46833	8539
1.47200	9616
1.47567	10137
1.47933	10055
1.48300	9368
1.48667	8177
1.49033	6704
1.49400	5200
1.49767	3857
1.50133	2765
1.50500	1931
1.50867	1320
1.51233	886
1.51600	583
1.51967	369
1.52333	219
1.52700	117
1.53067	46
1.53433	-3
1.53800	-34
1.54167	-35
1.54533	41
1.54900	255
1.55267	616
1.55633	1055
1.56000	1479
1.56367	1825
1.56733	2059
1.57100	2152
1.57467	2077
1.57833	1836
1.58200	1484
1.58567	1106
1.58933	767
1.59300	498
1.59667	301
1.60033	164
1.60400	70
1.60767	6
1.61133	-39
1.61500	-73
1.61867	-101
1.62233	-122
1.62600	-134
1.62967	-142
1.63333	-147
1.63700	-151
1.64067	-154
1.64433	-158
1.64800	-160
1.65167	-160
1.65533	-158
1.65900	-154
1.66267	-148
1.66633	-143
1.67000	-142
1.67367	-143
1.67733	-145
1.68100	-147
1.68467	-152
1.68833	-156
1.69200	-157
1.69567	-156
1.69933	-155
1.70300	-153
1.70667	-150
1.71033	-145
1.71400	-142
1.71767	-142
1.72133	-142
1.72500	-145
1.72867	-150
1.73233	-148
1.73600	-142
1.73967	-142
1.74333	-144
1.74700	-145
1.75067	-145
1.75433	-142
1.75800	-135
1.76167	-129
1.76533	-126
1.76900	-125
1.77267	-129
1.77633	-132
1.78000	-134
1.78367	-133
1.78733	-130
1.79100	-126
1.79467	-124
1.79833	-118
1.80200	-114
1.80567	-118
1.80933	-128
1.81300	-140
1.81667	-148
1.82033	-147
1.82400	-142
1.82767	-136
1.83133	-136
1.83500	-138
1.83867	-138
1.84233	-140
1.84600	-144
1.84967	-140
1.85333	-135
1.85700	-132
1.86067	-128
1.86433	-128
1.86800	-131
1.87167	-132
1.87533	-134
1.87900	-134
1.88267	-132
1.88633	-134
1.89000	-135
1.89367	-132
1.89733	-126
1.90100	-123
1.90467	-120
1.90833	-116
1.91200	-114
1.91567	-117
1.91933	-119
1.92300	-121
1.92667	-121
1.93033	-120
1.93400	-118
1.93767	-113
1.94133	-109
1.94500	-107
1.94867	-107
1.95233	-100
1.95600	-58
1.95967	221
1.96333	1795
1.96700	8613
1.97067	31105
1.97433	88097
1.97800	199412
1.98167	369649
1.98533	578106
1.98900	787054
1.99267	958946
1.99633	1067170
2.00000	1098137
2.00367	1050648
2.00733	937587
2.01100	783503
2.01467	617037
2.01833	461971
2.02200	332176
2.02567	231801
2.02933	158531
2.03300	107190
2.03667	72205
2.04033	48791
2.04400	33283
2.04767	23056
2.05133	16295
2.05500	11792
2.05867	8758
2.06233	6676
2.06600	5220
2.06967	4182
2.07333	3428
2.07700	2867
2.08067	2437
2.08433	2099
2.08800	1831
2.09167	1617
2.09533	1440
2.09900	1296
2.10267	1179
2.10633	1078
2.11000	989
2.11367	913
2.11733	846
2.12100	790
2.12467	747
2.12833	711
2.13200	681
2.13567	652
2.13933	621
2.14300	590
2.14667	561
2.15033	535
2.15400	510
2.15767	488
2.16133	471
2.16500	457
2.16867	440
2.17233	421
2.17600	404
2.17967	389
2.18333	375
2.18700	362
2.19067	350
2.19433	337
2.19800	327
2.20167	316
2.20533	304
2.20900	292
2.21267	280
2.21633	273
2.22000	267
2.22367	260
2.22733	256
2.23100	252
2.23467	249
2.23833	246
2.24200	239
2.24567	232
2.24933	227
2.25300	222
2.25667	218
2.26033	215
2.26400	213
2.26767	211
2.27133	211
2.27500	212
2.27867	214
2.28233	212
2.28600	200
2.28967	186
2.29333	174
2.29700	168
2.30067	167
2.30433	168
2.30800	171
2.31167	175
2.31533	179
2.31900	187
2.32267	194
2.32633	198
2.33000	198
2.33367	197
2.33733	194
2.34100	187
2.34467	178
2.34833	166
2.35200	155
2.35567	149
2.35933	144
2.36300	137
2.36667	130
2.37033	126
2.37400	129
2.37767	135
2.38133	136
2.38500	131
2.38867	125
2.39233	121
2.39600	121
2.39967	124
2.40333	131
2.40700	141
2.41067	152
2.41433	162
2.41800	166
2.42167	163
2.42533	157
2.42900	152
2.43267	150
2.43633	152
2.44000	155
2.44367	155
2.44733	153
2.45100	153
2.45467	152
2.45833	150
2.46200	146
2.46567	141
2.46933	136
2.47300	132
2.47667	132
2.48033	133
2.48400	134
2.48767	132
2.49133	126
2.49500	118
2.49867	115
2.50233	116
2.50600	119
2.50967	124
2.51333	128
2.51700	129
2.52067	128
2.52433	124
2.52800	119
2.53167	117
2.53533	115
2.53900	112
2.54267	108
2.54633	102
2.55000	96
2.55367	90
2.55733	84
2.56100	78
2.56467	73
2.56833	72
2.57200	77
2.57567	81
2.57933	83
2.58300	84
2.58667	84
2.59033	82
2.59400	77
2.59767	68
2.60133	63
2.60500	60
2.60867	59
2.61233	64
2.61600	72
2.61967	82
2.62333	88
2.62700	85
2.63067	77
2.63433	67
2.63800	59
2.64167	53
2.64533	50
2.64900	48
2.65267	48
2.65633	46
2.66000	42
2.66367	39
2.66733	37
2.67100	38
2.67467	42
2.67833	51
2.68200	60
2.68567	67
2.68933	70
2.69300	69
2.69667	64
2.70033	56
2.70400	49
2.70767	46
2.71133	48
2.71500	51
2.71867	51
2.72233	46
2.72600	40
2.72967	36
2.73333	36
2.73700	38
2.74067	38
2.74433	38
2.74800	43
2.75167	46
2.75533	46
2.75900	43
2.76267	40
2.76633	35
2.77000	32
2.77367	34
2.77733	41
2.78100	46
2.78467	46
2.78833	43
2.79200	38
2.79567	32
2.79933	28
2.80300	26
2.80667	27
2.81033	33
2.81400	40
2.81767	43
2.82133	43
2.82500	44
2.82867	46
2.83233	46
2.83600	43
2.83967	37
2.84333	29
2.84700	26
2.85067	25
2.85433	25
2.85800	23
2.86167	18
2.86533	6
2.86900	7
2.87267	12
2.87633	19
2.88000	22
2.88367	23
2.88733	24
2.89100	25
2.89467	29
2.89833	32
2.90200	32
2.90567	30
2.90933	28
2.91300	27
2.91667	24
2.92033	22
2.92400	21
2.92767	19
2.93133	14
2.93500	7
2.93867	1
2.94233	1
2.94600	2
2.94967	2
2.95333	1
2.95700	2
2.96067	4
2.96433	6
2.96800	5
2.97167	3
2.97533	4
2.97900	8
2.98267	15
2.98633	20
2.99000	24
2.99367	29
2.99733	30
3.00100	23
3.00467	16
3.00833	16
3.01200	18
3.01567	21
3.01933	22
3.02300	23
3.02667	21
3.03033	13
3.03400	4
3.03767	-4
3.04133	-9
3.04500	-9
3.04867	-1
3.05233	8
3.05600	17
3.05967	21
3.06333	20
3.06700	15
3.07067	7
3.07433	1
3.07800	-8
3.08167	-15
3.08533	-18
3.08900	-15
3.09267	-9
3.09633	-1
3.10000	6
3.10367	12
3.10733	15
3.11100	14
3.11467	12
3.11833	11
3.12200	13
3.12567	14
3.12933	9
3.13300	4
3.13667	1
3.14033	-1
3.14400	-2
3.14767	-3
3.15133	-4
3.15500	-2
3.15867	2
3.16233	6
3.16600	8
3.16967	8
3.17333	8
3.17700	9
3.18067	9
3.18433	8
3.18800	7
3.19167	8
3.19533	12
3.19900	14
3.20267	15
3.20633	17
3.21000	19
3.21367	19
3.21733	19
3.22100	13
3.22467	9
3.22833	8
3.23200	9
3.23567	10
3.23933	12
3.24300	14
3.24667	20
3.25033	25
3.25400	27
3.25767	24
3.26133	19
3.26500	15
3.26867	16
3.27233	20
3.27600	26
3.27967	31
3.28333	35
3.28700	36
3.29067	33
3.29433	28
3.29800	21
3.30167	14
3.30533	7
3.30900	1
3.31267	-5
3.31633	-9
3.32000	-14
3.32367	-16
3.32733	-15
3.33100	-11
3.33467	-6
3.33833	-3
3.34200	-0
3.34567	1
3.34933	-1
3.35300	-3
3.35667	-6
3.36033	-6
3.36400	-1
3.36767	4
3.37133	5
3.37500	8
3.37867	9
3.38233	7
3.38600	1
3.38967	-5
3.39333	-9
3.39700	-11
3.40067	-7
3.40433	-3
3.40800	-2
3.41167	-3
3.41533	-2
3.41900	-3
3.42267	-2
3.42633	-2
3.43000	-2
3.43367	-4
3.43733	-7
3.44100	-6
3.44467	-1
3.44833	7
3.45200	14
3.45567	20
3.45933	22
3.46300	18
3.46667	12
3.47033	7
3.47400	3
3.47767	-3
3.48133	-10
3.48500	-14
3.48867	-13
3.49233	-10
3.49600	-7
3.49967	-6
3.50333	-7
3.50700	-7
3.51067	-7
3.51433	-3
3.51800	3
3.52167	9
3.52533	12
3.52900	9
3.53267	3
3.53633	-2
3.54000	-3
3.54367	-5
3.54733	-7
3.55100	-11
3.55467	-15
3.55833	-14
3.56200	-5
3.56567	6
3.56933	13
3.57300	13
3.57667	10
3.58033	5
3.58400	0
3.58767	-6
3.59133	-6
3.59500	-3
3.59867	-4
3.60233	-7
3.60600	-6
3.60967	-3
3.61333	2
3.61700	7
3.62067	13
3.62433	17
3.62800	20
3.63167	24
3.63533	29
3.63900	32
3.64267	35
3.64633	38
3.65000	40
3.65367	40
3.65733	39
3.66100	36
3.66467	31
3.66833	24
3.67200	19
3.67567	18
3.67933	20
3.68300	26
3.68667	31
3.69033	32
3.69400	35
3.69767	41
3.70133	44
3.70500	38
3.70867	22
3.71233	5
3.71600	-8
3.71967	-12
3.72333	-10
3.72700	-4
3.73067	4
3.73433	9
3.73800	9
3.74167	8
3.74533	8
3.74900	7
3.75267	10
3.75633	15
3.76000	18
3.76367	18
3.76733	20
3.77100	26
3.77467	34
3.77833	38
3.78200	37
3.78567	35
3.78933	35
3.79300	34
3.79667	33
3.80033	30
3.80400	29
3.80767	28
3.81133	30
3.81500	31
3.81867	34
3.82233	38
3.82600	41
3.82967	44
3.83333	51
3.83700	57
3.84067	59
3.84433	54
3.84800	49
3.85167	47
3.85533	52
3.85900	60
3.86267	65
3.86633	64
3.87000	57
3.87367	49
3.87733	43
3.88100	39
3.88467	39
3.88833	45
3.89200	51
3.89567	50
3.89933	47
3.90300	44
3.90667	44
3.91033	47
3.91400	49
3.91767	49
3.92133	50
3.92500	52
3.92867	52
3.93233	53
3.93600	53
3.93967	53
3.94333	52
3.94700	51
3.95067	49
3.95433	43
3.95800	36
3.96167	31
3.96533	28
3.96900	28
3.97267	30
3.97633	31
3.98000	33
3.98367	37
3.98733	44
3.99100	51
3.99467	54
3.99833	52

[Chromatogram (Ch2)]
Interval(msec)	220
# of Points	1091
Start Time(min)	0.002
End Time(min)	3.998
R.Time (min)	Intensity
0.00167	-1
0.00533	-1
0.00900	-1
0.01267	-1
0.01633	-1
0.02000	-0
0.02367	-0
0.02733	0
0.03100	1
0.03467	1
0.03833	2
0.04200	3
0.04567	3
0.04933	4
0.05300	4
0.05667	4
0.06033	4
0.06400	4
0.06767	4
0.07133	4
0.07500	4
0.07867	4
0.08233	4
0.08600	4
0.08967	4
0.09333	4
0.09700	4
0.10067	5
0.10433	5
0.10800	4
0.11167	4
0.11533	4
0.11900	4
0.12267	3
0.12633	3
0.13000	3
0.13367	3
0.13733	3
0.14100	3
0.14467	4
0.14833	4
0.15200	4
0.15567	4
0.15933	4
0.16300	4
0.16667	4
0.17033	4
0.17400	4
0.17767	4
0.18133	4
0.18500	4
0.18867	3
0.19233	3
0.19600	3
0.19967	2
0.20333	2
0.20700	2
0.21067	2
0.21433	1
0.21800	1
0.22167	1
0.22533	1
0.22900	0
0.23267	0
0.23633	-0
0.24000	-1
0.24367	-1
0.24733	-1
0.25100	-1
0.25467	-1
0.25833	-1
0.26200	-1
0.26567	-1
0.26933	-1
0.27300	-0
0.27667	-0
0.28033	0
0.28400	0
0.28767	1
0.29133	1
0.29500	1
0.29867	1
0.30233	1
0.30600	1
0.30967	1
0.31333	0
0.31700	-0
0.32067	-0
0.32433	-1
0.32800	-1
0.33167	-1
0.33533	-1
0.33900	-1
0.34267	-1
0.34633	-1
0.35000	-1
0.35367	-1
0.35733	-1
0.36100	-1
0.36467	-1
0.36833	-1
0.37200	-1
0.37567	-0
0.37933	-0
0.38300	-0
0.38667	0
0.39033	0
0.39400	-0
0.39767	-0
0.40133	-0
0.40500	-0
0.40867	-1
0.41233	-1
0.41600	-1
0.41967	-1
0.42333	-1
0.42700	-1
0.43067	-1
0.43433	-2
0.43800	-2
0.44167	-2
0.44533	-2
0.44900	-3
0.45267	-3
0.45633	-3
0.46000	-3
0.46367	-2
0.46733	-2
0.47100	-2
0.47467	-2
0.47833	-2
0.48200	-1
0.48567	-1
0.48933	-1
0.49300	-1
0.49667	-1
0.50033	-1
0.50400	-1
0.50767	-1
0.51133	-1
0.51500	-1
0.51867	-1
0.52233	-1
0.52600	-1
0.52967	-1
0.53333	-1
0.53700	-1
0.54067	-1
0.54433	-1
0.54800	-1
0.55167	-1
0.55533	-1
0.55900	-1
0.56267	-1
0.56633	-0
0.57000	-0
0.57367	0
0.57733	0
0.58100	1
0.58467	1
0.58833	1
0.59200	1
0.59567	2
0.59933	2
0.60300	2
0.60667	2
0.61033	2
0.61400	2
0.61767	2
0.62133	2
0.62500	2
0.62867	2
0.63233	2
0.63600	2
0.63967	2
0.64333	2
0.64700	2
0.65067	2
0.65433	2
0.65800	2
0.66167	2
0.66533	2
0.66900	1
0.67267	1
0.67633	1
0.68000	1
0.68367	1
0.68733	1
0.69100	1
0.69467	1
0.69833	1
0.70200	1
0.70567	1
0.70933	1
0.71300	1
0.71667	1
0.72033	1
0.72400	1
0.72767	1
0.73133	1
0.73500	1
0.73867	1
0.74233	1
0.74600	1
0.74967	1
0.75333	1
0.75700	1
0.76067	1
0.76433	1
0.76800	0
0.77167	0
0.77533	0
0.77900	0
0.78267	0
0.78633	-0
0.79000	-0
0.79367	-1
0.79733	-1
0.80100	-1
0.80467	-1
0.80833	-2
0.81200	-2
0.81567	-2
0.81933	-2
0.82300	-2
0.82667	-2
0.83033	-2
0.83400	-2
0.83767	-1
0.84133	-1
0.84500	-1
0.84867	-1
0.85233	-1
0.85600	-0
0.85967	-0
0.86333	-0
0.86700	-0
0.87067	-0
0.87433	-1
0.87800	-1
0.88167	-1
0.88533	-1
0.88900	-1
0.89267	-1
0.89633	-1
0.90000	-1
0.90367	-1
0.90733	-1
0.91100	-1
0.91467	-2
0.91833	-2
0.92200	-2
0.92567	-2
0.92933	-2
0.93300	-2
0.93667	-2
0.94033	-1
0.94400	-1
0.94767	-1
0.95133	-1
0.95500	-1
0.95867	-1
0.96233	-1
0.96600	-1
0.96967	-1
0.97333	-1
0.97700	-1
0.98067	-1
0.98433	-1
0.98800	-1
0.99167	-1
0.99533	-1
0.99900	-2
1.00267	-2
1.00633	-2
1.01000	-2
1.01367	-2
1.01733	-2
1.02100	-2
1.02467	-2
1.02833	-2
1.03200	-2
1.03567	-2
1.03933	-2
1.04300	-2
1.04667	-2
1.05033	-2
1.05400	-2
1.05767	-2
1.06133	-2
1.06500	-2
1.06867	-2
1.07233	-2
1.07600	-2
1.07967	-2
1.08333	-2
1.08700	-2
1.09067	-2
1.09433	-1
1.09800	-1
1.10167	-1
1.10533	-1
1.10900	-1
1.11267	-1
1.11633	-1
1.12000	-1
1.12367	-2
1.12733	-2
1.13100	-2
1.13467	-2
1.13833	-2
1.14200	-2
1.14567	-2
1.14933	-2
1.15300	-2
1.15667	-2
1.16033	-2
1.16400	-1
1.16767	-1
1.17133	-1
1.17500	-1
1.17867	-1
1.18233	-1
1.18600	-1
1.18967	-1
1.19333	-1
1.19700	-1
1.20067	-2
1.20433	-2
1.20800	-2
1.21167	-2
1.21533	-1
1.21900	-1
1.22267	-1
1.22633	-1
1.23000	-1
1.23367	-1
1.23733	-1
1.24100	-1
1.24467	-0
1.24833	0
1.25200	0
1.25567	1
1.25933	1
1.26300	0
1.26667	0
1.27033	0
1.27400	0
1.27767	0
1.28133	0
1.28500	0
1.28867	0
1.29233	-0
1.29600	-0
1.29967	-0
1.30333	-0
1.30700	-0
1.31067	-1
1.31433	-1
1.31800	-1
1.32167	-1
1.32533	-2
1.32900	-2
1.33267	-2
1.33633	-2
1.34000	-2
1.34367	-2
1.34733	-2
1.35100	-1
1.35467	-1
1.35833	-1
1.36200	-1
1.36567	-1
1.36933	-2
1.37300	-2
1.37667	-2
1.38033	-2
1.38400	-2
1.38767	-2
1.39133	-2
1.39500	-1
1.39867	-1
1.40233	-1
1.40600	-1
1.40967	-1
1.41333	-1
1.41700	-1
1.42067	-1
1.42433	-1
1.42800	-2
1.43167	-2
1.43533	-2
1.43900	-2
1.44267	-3
1.44633	-3
1.45000	-2
1.45367	-2
1.45733	-2
1.46100	-2
1.46467	-2
1.46833	-2
1.47200	-2
1.47567	-3
1.47933	-3
1.48300	-4
1.48667	-4
1.49033	-5
1.49400	-5
1.49767	-5
1.50133	-6
1.50500	-6
1.50867	-6
1.51233	-6
1.51600	-6
1.51967	-5
1.52333	-5
1.52700	-5
1.53067	-4
1.53433	-4
1.53800	-3
1.54167	-2
1.54533	-2
1.54900	-2
1.55267	-1
1.55633	-1
1.56000	-1
1.56367	-1
1.56733	-1
1.57100	-0
1.57467	-0
1.57833	-0
1.58200	-0
1.58567	-0
1.58933	-0
1.59300	-0
1.59667	-0
1.60033	-1
1.60400	-2
1.60767	-3
1.61133	-5
1.61500	-7
1.61867	-9
1.62233	-11
1.62600	-14
1.62967	-17
1.63333	-20
1.63700	-24
1.64067	-27
1.64433	-31
1.64800	-35
1.65167	-39
1.65533	-43
1.65900	-47
1.66267	-51
1.66633	-56
1.67000	-60
1.67367	-65
1.67733	-71
1.68100	-76
1.68467	-81
1.68833	-85
1.69200	-89
1.69567	-93
1.69933	-96
1.70300	-99
1.70667	-101
1.71033	-104
1.71400	-106
1.71767	-108
1.72133	-110
1.72500	-111
1.72867	-112
1.73233	-113
1.73600	-114
1.73967	-114
1.74333	-114
1.74700	-114
1.75067	-115
1.75433	-115
1.75800	-116
1.76167	-117
1.76533	-118
1.76900	-118
1.77267	-119
1.77633	-120
1.78000	-120
1.78367	-120
1.78733	-120
1.79100	-119
1.79467	-118
1.79833	-117
1.80200	-117
1.80567	-117
1.80933	-117
1.81300	-118
1.81667	-118
1.82033	-119
1.82400	-120
1.82767	-121
1.83133	-121
1.83500	-122
1.83867	-122
1.84233	-121
1.84600	-121
1.84967	-121
1.85333	-121
1.85700	-121
1.86067	-121
1.86433	-121
1.86800	-122
1.87167	-122
1.87533	-122
1.87900	-122
1.88267	-121
1.88633	-121
1.89000	-121
1.89367	-120
1.89733	-119
1.90100	-119
1.90467	-119
1.90833	-119
1.91200	-119
1.91567	-119
1.91933	-119
1.92300	-119
1.92667	-119
1.93033	-118
1.93400	-118
1.93767	-118
1.94133	-118
1.94500	-117
1.94867	-117
1.95233	-117
1.95600	-117
1.95967	-117
1.96333	-117
1.96700	-117
1.97067	-117
1.97433	-117
1.97800	-117
1.98167	-117
1.98533	-117
1.98900	-117
1.99267	-117
1.99633	-117
2.00000	-117
2.00367	-117
2.00733	-117
2.01100	-117
2.01467	-117
2.01833	-116
2.02200	-116
2.02567	-115
2.02933	-113
2.03300	-112
2.03667	-112
2.04033	-111
2.04400	-110
2.04767	-110
2.05133	-110
2.05500	-109
2.05867	-109
2.06233	-108
2.06600	-108
2.06967	-108
2.07333	-108
2.07700	-108
2.08067	-108
2.08433	-107
2.08800	-107
2.09167	-108
2.09533	-108
2.09900	-108
2.10267	-108
2.10633	-107
2.11000	-107
2.11367	-107
2.11733	-107
2.12100	-106
2.12467	-106
2.12833	-106
2.13200	-105
2.13567	-105
2.13933	-105
2.14300	-104
2.14667	-104
2.15033	-103
2.15400	-103
2.15767	-102
2.16133	-102
2.16500	-101
2.16867	-101
2.17233	-101
2.17600	-101
2.17967	-100
2.18333	-100
2.18700	-100
2.19067	-99
2.19433	-99
2.19800	-99
2.20167	-98
2.20533	-98
2.20900	-98
2.21267	-97
2.21633	-97
2.22000	-97
2.22367	-96
2.22733	-96
2.23100	-96
2.23467	-96
2.23833	-96
2.24200	-96
2.24567	-96
2.24933	-96
2.25300	-96
2.25667	-95
2.26033	-95
2.26400	-94
2.26767	-94
2.27133	-94
2.27500	-93
2.27867	-93
2.28233	-92
2.28600	-92
2.28967	-91
2.29333	-91
2.29700	-90
2.30067	-90
2.30433	-90
2.30800	-89
2.31167	-89
2.31533	-90
2.31900	-90
2.32267	-90
2.32633	-89
2.33000	-89
2.33367	-89
2.33733	-89
2.34100	-89
2.34467	-88
2.34833	-88
2.35200	-87
2.35567	-86
2.35933	-86
2.36300	-85
2.36667	-84
2.37033	-83
2.37400	-82
2.37767	-80
2.38133	-77
2.38500	-74
2.38867	-70
2.39233	-66
2.39600	-62
2.39967	-57
2.40333	-52
2.40700	-47
2.41067	-43
2.41433	-38
2.41800	-34
2.42167	-31
2.42533	-27
2.42900	-24
2.43267	-22
2.43633	-19
2.44000	-17
2.44367	-14
2.44733	-12
2.45100	-10
2.45467	-8
2.45833	-6
2.46200	-4
2.46567	-3
2.46933	-2
2.47300	-1
2.47667	-0
2.48033	0
2.48400	1
2.48767	1
2.49133	2
2.49500	3
2.49867	4
2.50233	5
2.50600	6
2.50967	6
2.51333	6
2.51700	7
2.52067	7
2.52433	8
2.52800	8
2.53167	9
2.53533	10
2.53900	11
2.54267	12
2.54633	12
2.55000	13
2.55367	13
2.55733	13
2.56100	13
2.56467	13
2.56833	13
2.57200	13
2.57567	13
2.57933	13
2.58300	12
2.58667	12
2.59033	12
2.59400	13
2.59767	13
2.60133	13
2.60500	13
2.60867	12
2.61233	12
2.61600	12
2.61967	12
2.62333	12
2.62700	12
2.63067	13
2.63433	13
2.63800	13
2.64167	14
2.64533	14
2.64900	15
2.65267	15
2.65633	15
2.66000	16
2.66367	16
2.66733	16
2.67100	16
2.67467	16
2.67833	16
2.68200	16
2.68567	17
2.68933	17
2.69300	17
2.69667	18
2.70033	18
2.70400	19
2.70767	19
2.71133	20
2.71500	20
2.71867	20
2.72233	21
2.72600	21
2.72967	21
2.73333	21
2.73700	21
2.74067	21
2.74433	21
2.74800	21
2.75167	22
2.75533	22
2.75900	22
2.76267	23
2.76633	23
2.77000	23
2.77367	23
2.77733	24
2.78100	23
2.78467	23
2.78833	23
2.79200	22
2.79567	22
2.79933	21
2.80300	21
2.80667	21
2.81033	20
2.81400	20
2.81767	20
2.82133	21
2.82500	21
2.82867	21
2.83233	21
2.83600	21
2.83967	21
2.84333	21
2.84700	20
2.85067	18
2.85433	15
2.85800	9
2.86167	-0
2.86533	-13
2.86900	-29
2.87267	-50
2.87633	-74
2.88000	-102
2.88367	-134
2.88733	-170
2.89100	-209
2.89467	-251
2.89833	-295
2.90200	-341
2.90567	-389
2.90933	-438
2.91300	-488
2.91667	-538
2.92033	-588
2.92400	-638
2.92767	-687
2.93133	-735
2.93500	-783
2.93867	-832
2.94233	-887
2.94600	-949
2.94967	-1011
2.95333	-1062
2.95700	-1092
2.96067	-1096
2.96433	-1074
2.96800	-1028
2.97167	-967
2.97533	-894
2.97900	-815
2.98267	-734
2.98633	-655
2.99000	-579
2.99367	-509
2.99733	-444
3.00100	-386
3.00467	-333
3.00833	-286
3.01200	-245
3.01567	-209
3.01933	-178
3.02300	-150
3.02667	-127
3.03033	-107
3.03400	-89
3.03767	-74
3.04133	-62
3.04500	-51
3.04867	-42
3.05233	-34
3.05600	-28
3.05967	-22
3.06333	-17
3.06700	-13
3.07067	-9
3.07433	-6
3.07800	-3
3.08167	-1
3.08533	1
3.08900	2
3.09267	3
3.09633	4
3.10000	5
3.10367	6
3.10733	7
3.11100	7
3.11467	8
3.11833	9
3.12200	10
3.12567	10
3.12933	10
3.13300	11
3.13667	11
3.14033	12
3.14400	12
3.14767	13
3.15133	13
3.15500	14
3.15867	14
3.16233	15
3.16600	15
3.16967	16
3.17333	16
3.17700	16
3.18067	16
3.18433	16
3.18800	16
3.19167	16
3.19533	16
3.19900	16
3.20267	16
3.20633	17
3.21000	17
3.21367	17
3.21733	17
3.22100	18
3.22467	18
3.22833	18
3.23200	18
3.23567	18
3.23933	19
3.24300	19
3.24667	19
3.25033	19
3.25400	19
3.25767	19
3.26133	20
3.26500	20
3.26867	20
3.27233	21
3.27600	21
3.27967	21
3.28333	21
3.28700	21
3.29067	21
3.29433	21
3.29800	22
3.30167	22
3.30533	23
3.30900	23
3.31267	24
3.31633	24
3.32000	24
3.32367	24
3.32733	24
3.33100	25
3.33467	25
3.33833	25
3.34200	25
3.34567	25
3.34933	25
3.35300	25
3.35667	25
3.36033	25
3.36400	25
3.36767	25
3.37133	25
3.37500	25
3.37867	25
3.38233	25
3.38600	25
3.38967	25
3.39333	25
3.39700	24
3.40067	24
3.40433	24
3.40800	24
3.41167	24
3.41533	25
3.41900	25
3.42267	25
3.42633	25
3.43000	25
3.43367	25
3.43733	24
3.44100	25
3.44467	24
3.44833	24
3.45200	24
3.45567	24
3.45933	24
3.46300	23
3.46667	23
3.47033	23
3.47400	23
3.47767	23
3.48133	23
3.48500	23
3.48867	24
3.49233	24
3.49600	24
3.49967	23
3.50333	23
3.50700	23
3.51067	23
3.51433	23
3.51800	23
3.52167	23
3.52533	23
3.52900	22
3.53267	22
3.53633	22
3.54000	22
3.54367	22
3.54733	22
3.55100	22
3.55467	22
3.55833	22
3.56200	22
3.56567	22
3.56933	22
3.57300	22
3.57667	22
3.58033	22
3.58400	22
3.58767	22
3.59133	22
3.59500	22
3.59867	22
3.60233	23
3.60600	23
3.60967	23
3.61333	23
3.61700	23
3.62067	23
3.62433	23
3.62800	23
3.63167	23
3.63533	23
3.63900	23
3.64267	23
3.64633	23
3.65000	23
3.65367	23
3.65733	23
3.66100	23
3.66467	23
3.66833	23
3.67200	23
3.67567	23
3.67933	23
3.68300	23
3.68667	23
3.69033	23
3.69400	23
3.69767	23
3.70133	23
3.70500	24
3.70867	24
3.71233	24
3.71600	24
3.71967	24
3.72333	24
3.72700	24
3.73067	24
3.73433	24
3.73800	24
3.74167	24
3.74533	24
3.74900	24
3.75267	24
3.75633	24
3.76000	23
3.76367	23
3.76733	23
3.77100	23
3.77467	23
3.77833	23
3.78200	23
3.78567	23
3.78933	23
3.79300	23
3.79667	23
3.80033	23
3.80400	23
3.80767	23
3.81133	23
3.81500	23
3.81867	23
3.82233	23
3.82600	23
3.82967	23
3.83333	23
3.83700	23
3.84067	23
3.84433	23
3.84800	23
3.85167	23
3.85533	23
3.85900	23
3.86267	23
3.86633	23
3.87000	23
3.87367	22
3.87733	22
3.88100	22
3.88467	22
3.88833	22
3.89200	22
3.89567	22
3.89933	22
3.90300	22
3.90667	22
3.91033	22
3.91400	22
3.91767	22
3.92133	22
3.92500	22
3.92867	23
3.93233	23
3.93600	23
3.93967	23
3.94333	23
3.94700	24
3.95067	24
3.95433	24
3.95800	24
3.96167	24
3.96533	24
3.96900	24
3.97267	24
3.97633	24
3.98000	24
3.98367	24
3.98733	24
3.99100	24
3.99467	24
3.99833	24

[Chromatogram (Ch3)]
Interval(msec)	220
# of Points	1091
Start Time(min)	0.002
End Time(min)	3.998
R.Time (min)	Intensity
0.00167	-0
0.00533	0
0.00900	1
0.01267	1
0.01633	1
0.02000	0
0.02367	0
0.02733	-0
0.03100	-2
0.03467	-3
0.03833	-3
0.04200	-2
0.04567	-4
0.04933	-6
0.05300	-9
0.05667	-10
0.06033	-9
0.06400	-6
0.06767	-3
0.07133	-2
0.07500	0
0.07867	1
0.08233	2
0.08600	1
0.08967	1
0.09333	1
0.09700	0
0.10067	-1
0.10433	-2
0.10800	-1
0.11167	-1
0.11533	0
0.11900	-2
0.12267	-3
0.12633	-4
0.13000	-2
0.13367	-3
0.13733	-5
0.14100	-9
0.14467	-9
0.14833	-8
0.15200	-7
0.15567	-5
0.15933	-2
0.16300	-0
0.16667	1
0.17033	2
0.17400	1
0.17767	2
0.18133	-0
0.18500	-1
0.18867	0
0.19233	0
0.19600	-1
0.19967	-1
0.20333	1
0.20700	1
0.21067	2
0.21433	2
0.21800	2
0.22167	2
0.22533	3
0.22900	2
0.23267	2
0.23633	2
0.24000	2
0.24367	3
0.24733	4
0.25100	4
0.25467	5
0.25833	4
0.26200	4
0.26567	3
0.26933	2
0.27300	4
0.27667	5
0.28033	6
0.28400	6
0.28767	5
0.29133	5
0.29500	5
0.29867	6
0.30233	9
0.30600	11
0.30967	11
0.31333	10
0.31700	9
0.32067	8
0.32433	7
0.32800	8
0.33167	9
0.33533	7
0.33900	5
0.34267	4
0.34633	1
0.35000	2
0.35367	3
0.35733	3
0.36100	3
0.36467	4
0.36833	3
0.37200	4
0.37567	5
0.37933	6
0.38300	6
0.38667	7
0.39033	9
0.39400	10
0.39767	10
0.40133	12
0.40500	13
0.40867	13
0.41233	12
0.41600	11
0.41967	10
0.42333	10
0.42700	10
0.43067	12
0.43433	11
0.43800	10
0.44167	9
0.44533	10
0.44900	10
0.45267	8
0.45633	6
0.46000	6
0.46367	5
0.46733	5
0.47100	5
0.47467	6
0.47833	8
0.48200	8
0.48567	8
0.48933	7
0.49300	6
0.49667	6
0.50033	8
0.50400	7
0.50767	6
0.51133	9
0.51500	10
0.51867	10
0.52233	11
0.52600	11
0.52967	12
0.53333	13
0.53700	12
0.54067	10
0.54433	10
0.54800	10
0.55167	13
0.55533	15
0.55900	15
0.56267	14
0.56633	15
0.57000	15
0.57367	12
0.57733	9
0.58100	8
0.58467	7
0.58833	9
0.59200	11
0.59567	11
0.59933	11
0.60300	12
0.60667	14
0.61033	14
0.61400	13
0.61767	12
0.62133	11
0.62500	9
0.62867	9
0.63233	10
0.63600	10
0.63967	10
0.64333	11
0.64700	11
0.65067	13
0.65433	13
0.65800	14
0.66167	15
0.66533	17
0.66900	16
0.67267	14
0.67633	12
0.68000	11
0.68367	13
0.68733	15
0.69100	15
0.69467	15
0.69833	14
0.70200	12
0.70567	10
0.70933	9
0.71300	10
0.71667	12
0.72033	16
0.72400	18
0.72767	18
0.73133	18
0.73500	19
0.73867	19
0.74233	18
0.74600	17
0.74967	15
0.75333	13
0.75700	12
0.76067	12
0.76433	14
0.76800	15
0.77167	18
0.77533	18
0.77900	15
0.78267	15
0.78633	17
0.79000	18
0.79367	20
0.79733	22
0.80100	23
0.80467	23
0.80833	23
0.81200	24
0.81567	24
0.81933	22
0.82300	22
0.82667	22
0.83033	20
0.83400	17
0.83767	18
0.84133	19
0.84500	19
0.84867	18
0.85233	20
0.85600	22
0.85967	25
0.86333	26
0.86700	25
0.87067	24
0.87433	23
0.87800	24
0.88167	24
0.88533	24
0.88900	23
0.89267	23
0.89633	24
0.90000	26
0.90367	26
0.90733	25
0.91100	25
0.91467	26
0.91833	28
0.92200	29
0.92567	30
0.92933	30
0.93300	30
0.93667	30
0.94033	29
0.94400	27
0.94767	27
0.95133	28
0.95500	30
0.95867	31
0.96233	30
0.96600	28
0.96967	29
0.97333	30
0.97700	30
0.98067	31
0.98433	32
0.98800	33
0.99167	32
0.99533	33
0.99900	33
1.00267	31
1.00633	30
1.01000	30
1.01367	33
1.01733	34
1.02100	35
1.02467	36
1.02833	35
1.03200	36
1.03567	37
1.03933	39
1.04300	40
1.04667	39
1.05033	38
1.05400	37
1.05767	34
1.06133	32
1.06500	32
1.06867	34
1.07233	37
1.07600	37
1.07967	36
1.08333	35
1.08700	34
1.09067	32
1.09433	32
1.09800	34
1.10167	35
1.10533	34
1.10900	34
1.11267	35
1.11633	37
1.12000	39
1.12367	38
1.12733	36
1.13100	37
1.13467	39
1.13833	39
1.14200	40
1.14567	42
1.14933	45
1.15300	46
1.15667	46
1.16033	44
1.16400	43
1.16767	45
1.17133	45
1.17500	42
1.17867	42
1.18233	43
1.18600	43
1.18967	42
1.19333	42
1.19700	43
1.20067	41
1.20433	40
1.20800	41
1.21167	42
1.21533	43
1.21900	44
1.22267	45
1.22633	47
1.23000	48
1.23367	47
1.23733	47
1.24100	45
1.24467	43
1.24833	43
1.25200	43
1.25567	45
1.25933	46
1.26300	46
1.26667	47
1.27033	47
1.27400	48
1.27767	51
1.28133	51
1.28500	51
1.28867	51
1.29233	51
1.29600	49
1.29967	49
1.30333	51
1.30700	52
1.31067	50
1.31433	49
1.31800	49
1.32167	50
1.32533	48
1.32900	47
1.33267	48
1.33633	48
1.34000	48
1.34367	49
1.34733	49
1.35100	47
1.35467	47
1.35833	48
1.36200	48
1.36567	49
1.36933	50
1.37300	50
1.37667	49
1.38033	47
1.38400	47
1.38767	47
1.39133	45
1.39500	42
1.39867	42
1.40233	43
1.40600	45
1.40967	48
1.41333	50
1.41700	50
1.42067	51
1.42433	52
1.42800	53
1.43167	53
1.43533	54
1.43900	55
1.44267	53
1.44633	52
1.45000	51
1.45367	53
1.45733	52
1.46100	52
1.46467	51
1.46833	53
1.47200	53
1.47567	54
1.47933	56
1.48300	57
1.48667	57
1.49033	55
1.49400	55
1.49767	58
1.50133	61
1.50500	63
1.50867	62
1.51233	61
1.51600	61
1.51967	63
1.52333	65
1.52700	66
1.53067	65
1.53433	64
1.53800	63
1.54167	64
1.54533	63
1.54900	60
1.55267	58
1.55633	57
1.56000	59
1.56367	59
1.56733	59
1.57100	60
1.57467	62
1.57833	62
1.58200	62
1.58567	62
1.58933	62
1.59300	61
1.59667	60
1.60033	63
1.60400	65
1.60767	64
1.61133	63
1.61500	64
1.61867	63
1.62233	63
1.62600	62
1.62967	63
1.63333	66
1.63700	67
1.64067	68
1.64433	67
1.64800	67
1.65167	66
1.65533	67
1.65900	69
1.66267	73
1.66633	75
1.67000	76
1.67367	77
1.67733	78
1.68100	80
1.68467	80
1.68833	80
1.69200	82
1.69567	83
1.69933	83
1.70300	84
1.70667	85
1.71033	84
1.71400	85
1.71767	84
1.72133	84
1.72500	84
1.72867	83
1.73233	85
1.73600	86
1.73967	87
1.74333	87
1.74700	87
1.75067	89
1.75433	91
1.75800	91
1.76167	92
1.76533	93
1.76900	94
1.77267	95
1.77633	98
1.78000	101
1.78367	102
1.78733	102
1.79100	101
1.79467	100
1.79833	102
1.80200	104
1.80567	104
1.80933	106
1.81300	108
1.81667	107
1.82033	107
1.82400	109
1.82767	110
1.83133	111
1.83500	114
1.83867	115
1.84233	114
1.84600	113
1.84967	111
1.85333	110
1.85700	113
1.86067	114
1.86433	117
1.86800	121
1.87167	125
1.87533	126
1.87900	122
1.88267	119
1.88633	116
1.89000	114
1.89367	114
1.89733	115
1.90100	117
1.90467	118
1.90833	119
1.91200	123
1.91567	129
1.91933	133
1.92300	133
1.92667	134
1.93033	135
1.93400	138
1.93767	138
1.94133	138
1.94500	137
1.94867	136
1.95233	138
1.95600	141
1.95967	142
1.96333	144
1.96700	148
1.97067	151
1.97433	152
1.97800	153
1.98167	152
1.98533	152
1.98900	153
1.99267	153
1.99633	152
2.00000	151
2.00367	153
2.00733	157
2.01100	161
2.01467	164
2.01833	165
2.02200	166
2.02567	165
2.02933	164
2.03300	166
2.03667	168
2.04033	172
2.04400	177
2.04767	179
2.05133	180
2.05500	181
2.05867	182
2.06233	183
2.06600	186
2.06967	191
2.07333	194
2.07700	194
2.08067	194
2.08433	194
2.08800	196
2.09167	198
2.09533	200
2.09900	203
2.10267	205
2.10633	206
2.11000	207
2.11367	207
2.11733	209
2.12100	211
2.12467	213
2.12833	213
2.13200	214
2.13567	215
2.13933	218
2.14300	220
2.14667	222
2.15033	223
2.15400	225
2.15767	227
2.16133	230
2.16500	233
2.16867	235
2.17233	235
2.17600	233
2.17967	232
2.18333	233
2.18700	234
2.19067	236
2.19433	237
2.19800	240
2.20167	243
2.20533	246
2.20900	250
2.21267	252
2.21633	253
2.22000	254
2.22367	256
2.22733	259
2.23100	262
2.23467	264
2.23833	265
2.24200	265
2.24567	265
2.24933	266
2.25300	267
2.25667	271
2.26033	275
2.26400	278
2.26767	278
2.27133	279
2.27500	281
2.27867	284
2.28233	286
2.28600	289
2.28967	291
2.29333	293
2.29700	295
2.30067	296
2.30433	297
2.30800	295
2.31167	295
2.31533	296
2.31900	296
2.32267	297
2.32633	298
2.33000	298
2.33367	299
2.33733	302
2.34100	304
2.34467	304
2.34833	308
2.35200	314
2.35567	318
2.35933	319
2.36300	319
2.36667	319
2.37033	320
2.37400	321
2.37767	322
2.38133	324
2.38500	324
2.38867	324
2.39233	324
2.39600	324
2.39967	324
2.40333	327
2.40700	329
2.41067	330
2.41433	334
2.41800	337
2.42167	341
2.42533	345
2.42900	347
2.43267	349
2.43633	349
2.44000	348
2.44367	347
2.44733	349
2.45100	354
2.45467	358
2.45833	361
2.46200	365
2.46567	368
2.46933	369
2.47300	369
2.47667	369
2.48033	369
2.48400	370
2.48767	370
2.49133	368
2.49500	364
2.49867	358
2.50233	354
2.50600	349
2.50967	341
2.51333	333
2.51700	327
2.52067	321
2.52433	315
2.52800	310
2.53167	308
2.53533	306
2.53900	304
2.54267	303
2.54633	300
2.55000	297
2.55367	295
2.55733	292
2.56100	289
2.56467	285
2.56833	280
2.57200	276
2.57567	272
2.57933	269
2.58300	269
2.58667	270
2.59033	267
2.59400	264
2.59767	260
2.60133	250
2.60500	234
2.60867	212
2.61233	179
2.61600	143
2.61967	104
2.62333	65
2.62700	25
2.63067	-12
2.63433	-45
2.63800	-72
2.64167	-90
2.64533	-103
2.64900	-111
2.65267	-116
2.65633	-118
2.66000	-117
2.66367	-110
2.66733	-103
2.67100	-95
2.67467	-86
2.67833	-77
2.68200	-68
2.68567	-58
2.68933	-47
2.69300	-38
2.69667	-28
2.70033	-18
2.70400	-8
2.70767	-0
2.71133	7
2.71500	14
2.71867	20
2.72233	27
2.72600	35
2.72967	43
2.73333	50
2.73700	56
2.74067	61
2.74433	68
2.74800	75
2.75167	80
2.75533	84
2.75900	92
2.76267	99
2.76633	105
2.77000	110
2.77367	115
2.77733	120
2.78100	123
2.78467	125
2.78833	128
2.79200	133
2.79567	138
2.79933	141
2.80300	144
2.80667	146
2.81033	145
2.81400	148
2.81767	152
2.82133	157
2.82500	165
2.82867	178
2.83233	207
2.83600	263
2.83967	364
2.84333	531
2.84700	788
2.85067	1147
2.85433	1605
2.85800	2146
2.86167	2735
2.86533	3330
2.86900	3885
2.87267	4354
2.87633	4702
2.88000	4908
2.88367	4974
2.88733	4908
2.89100	4731
2.89467	4473
2.89833	4160
2.90200	3816
2.90567	3462
2.90933	3113
2.91300	2783
2.91667	2474
2.92033	2192
2.92400	1937
2.92767	1709
2.93133	1509
2.93500	1332
2.93867	1175
2.94233	1035
2.94600	915
2.94967	812
2.95333	721
2.95700	642
2.96067	574
2.96433	518
2.96800	469
2.97167	425
2.97533	388
2.97900	355
2.98267	327
2.98633	304
2.99000	285
2.99367	267
2.99733	253
3.00100	240
3.00467	227
3.00833	218
3.01200	212
3.01567	205
3.01933	195
3.02300	186
3.02667	181
3.03033	178
3.03400	174
3.03767	170
3.04133	166
3.04500	164
3.04867	161
3.05233	160
3.05600	159
3.05967	157
3.06333	156
3.06700	153
3.07067	150
3.07433	147
3.07800	144
3.08167	143
3.08533	143
3.08900	141
3.09267	140
3.09633	140
3.10000	141
3.10367	141
3.10733	139
3.11100	139
3.11467	142
3.11833	145
3.12200	142
3.12567	116
3.12933	84
3.13300	76
3.13667	94
3.14033	133
3.14400	182
3.14767	239
3.15133	300
3.15500	362
3.15867	420
3.16233	475
3.16600	526
3.16967	572
3.17333	614
3.17700	651
3.18067	689
3.18433	723
3.18800	754
3.19167	785
3.19533	813
3.19900	837
3.20267	856
3.20633	874
3.21000	891
3.21367	907
3.21733	924
3.22100	939
3.22467	952
3.22833	964
3.23200	973
3.23567	984
3.23933	992
3.24300	1000
3.24667	1004
3.25033	1008
3.25400	1010
3.25767	1010
3.26133	1010
3.26500	1010
3.26867	1011
3.27233	1007
3.27600	1004
3.27967	1002
3.28333	1000
3.28700	1000
3.29067	1000
3.29433	997
3.29800	993
3.30167	990
3.30533	987
3.30900	983
3.31267	979
3.31633	975
3.32000	970
3.32367	967
3.32733	963
3.33100	958
3.33467	952
3.33833	948
3.34200	943
3.34567	937
3.34933	932
3.35300	925
3.35667	918
3.36033	914
3.36400	914
3.36767	915
3.37133	911
3.37500	904
3.37867	898
3.38233	895
3.38600	891
3.38967	887
3.39333	881
3.39700	876
3.40067	870
3.40433	866
3.40800	866
3.41167	865
3.41533	864
3.41900	863
3.42267	858
3.42633	852
3.43000	848
3.43367	844
3.43733	843
3.44100	840
3.44467	836
3.44833	834
3.45200	829
3.45567	826
3.45933	824
3.46300	820
3.46667	815
3.47033	809
3.47400	804
3.47767	802
3.48133	798
3.48500	792
3.48867	787
3.49233	781
3.49600	777
3.49967	774
3.50333	769
3.50700	763
3.51067	758
3.51433	753
3.51800	749
3.52167	745
3.52533	741
3.52900	737
3.53267	731
3.53633	725
3.54000	719
3.54367	714
3.54733	710
3.55100	705
3.55467	699
3.55833	693
3.56200	689
3.56567	684
3.56933	679
3.57300	675
3.57667	671
3.58033	668
3.58400	662
3.58767	655
3.59133	648
3.59500	644
3.59867	639
3.60233	633
3.60600	626
3.60967	620
3.61333	618
3.61700	618
3.62067	615
3.62433	611
3.62800	607
3.63167	602
3.63533	596
3.63900	589
3.64267	585
3.64633	581
3.65000	577
3.65367	570
3.65733	563
3.66100	557
3.66467	552
3.66833	547
3.67200	543
3.67567	539
3.67933	534
3.68300	528
3.68667	523
3.69033	517
3.69400	509
3.69767	502
3.70133	496
3.70500	491
3.70867	487
3.71233	482
3.71600	477
3.71967	472
3.72333	468
3.72700	462
3.73067	457
3.73433	452
3.73800	443
3.74167	435
3.74533	432
3.74900	428
3.75267	424
3.75633	420
3.76000	413
3.76367	407
3.76733	403
3.77100	400
3.77467	397
3.77833	394
3.78200	388
3.78567	384
3.78933	382
3.79300	378
3.79667	374
3.80033	370
3.80400	364
3.80767	357
3.81133	351
3.81500	346
3.81867	342
3.82233	340
3.82600	341
3.82967	339
3.83333	334
3.83700	327
3.84067	321
3.84433	317
3.84800	312
3.85167	308
3.85533	303
3.85900	298
3.86267	296
3.86633	293
3.87000	291
3.87367	288
3.87733	285
3.88100	284
3.88467	281
3.88833	279
3.89200	275
3.89567	273
3.89933	271
3.90300	268
3.90667	264
3.91033	259
3.91400	252
3.91767	248
3.92133	245
3.92500	242
3.92867	238
3.93233	235
3.93600	232
3.93967	231
3.94333	230
3.94700	228
3.95067	226
3.95433	223
3.95800	220
3.96167	217
3.96533	215
3.96900	212
3.97267	208
3.97633	206
3.98000	204
3.98367	202
3.98733	201
3.99100	199
3.99467	195
3.99833	192

[Status Trace (Column Oven Temperature)]
Interval(msec)	1000
# of Points	240
Start Time(min)	0.015
End Time(min)	3.998
Intensity Units	
Intensity Multiplier	1
R.Time (min)	Intensity
0.01463	35.08
0.03130	35.07
0.04797	35.05
0.06463	35.03
0.08130	35.02
0.09797	35.02
0.11463	35.01
0.13130	35.00
0.14797	35.00
0.16463	34.99
0.18130	34.99
0.19797	34.97
0.21463	34.97
0.23130	34.98
0.24797	34.98
0.26463	34.98
0.28130	34.97
0.29797	34.97
0.31463	34.98
0.33130	34.98
0.34797	34.98
0.36463	34.99
0.38130	34.99
0.39797	34.99
0.41463	35.00
0.43130	35.01
0.44797	35.02
0.46463	35.02
0.48130	35.02
0.49797	35.01
0.51463	35.02
0.53130	35.02
0.54797	35.01
0.56463	35.01
0.58130	35.00
0.59797	34.99
0.61463	34.99
0.63130	34.98
0.64797	34.98
0.66463	34.97
0.68130	34.97
0.69797	34.96
0.71463	34.96
0.73130	34.96
0.74797	34.95
0.76463	34.96
0.78130	34.96
0.79797	34.97
0.81463	34.98
0.83130	34.98
0.84797	34.98
0.86463	34.99
0.88130	34.99
0.89797	34.98
0.91463	34.98
0.93130	34.98
0.94797	34.98
0.96463	34.98
0.98130	34.98
0.99797	34.98
1.01463	34.98
1.03130	34.99
1.04797	34.99
1.06463	35.00
1.08130	35.00
1.09797	35.00
1.11463	35.00
1.13130	35.00
1.14797	35.01
1.16463	35.00
1.18130	35.00
1.19797	35.01
1.21463	34.99
1.23130	34.99
1.24797	34.98
1.26463	34.99
1.28130	34.99
1.29797	34.98
1.31463	35.00
1.33130	35.00
1.34797	35.00
1.36463	34.99
1.38130	35.00
1.39797	35.01
1.41463	35.01
1.43130	35.01
1.44797	35.01
1.46463	35.02
1.48130	35.04
1.49797	35.05
1.51463	35.06
1.53130	35.05
1.54797	35.05
1.56463	35.04
1.58130	35.02
1.59797	35.03
1.61463	35.10
1.63130	35.24
1.64797	35.45
1.66463	35.73
1.68130	36.09
1.69797	36.45
1.71463	36.80
1.73130	37.14
1.74797	37.46
1.76463	37.82
1.78130	38.14
1.79797	38.44
1.81463	38.78
1.83130	39.13
1.84797	39.44
1.86463	39.77
1.88130	40.11
1.89797	40.44
1.91463	40.77
1.93130	41.10
1.94797	41.43
1.96463	41.76
1.98130	42.07
1.99797	42.41
2.01463	42.75
2.03130	43.05
2.04797	43.39
2.06463	43.71
2.08130	44.04
2.09797	44.35
2.11463	44.69
2.13130	45.01
2.14797	45.33
2.16463	45.66
2.18130	46.00
2.19797	46.32
2.21463	46.65
2.23130	46.98
2.24797	47.30
2.26463	47.63
2.28130	47.97
2.29797	48.29
2.31463	48.63
2.33130	48.95
2.34797	49.26
2.36463	49.52
2.38130	49.66
2.39797	49.68
2.41463	49.68
2.43130	49.68
2.44797	49.68
2.46463	49.68
2.48130	49.71
2.49797	49.71
2.51463	49.73
2.53130	49.73
2.54797	49.73
2.56463	49.75
2.58130	49.76
2.59797	49.78
2.61463	49.80
2.63130	49.82
2.64797	49.83
2.66463	49.83
2.68130	49.85
2.69797	49.85
2.71463	49.85
2.73130	49.86
2.74797	49.86
2.76463	49.84
2.78130	49.86
2.79797	49.88
2.81463	49.89
2.83130	49.90
2.84797	49.92
2.86463	49.91
2.88130	49.91
2.89797	49.93
2.91463	49.94
2.93130	49.97
2.94797	50.00
2.96463	50.01
2.98130	50.02
2.99797	50.02
3.01463	50.03
3.03130	50.02
3.04797	50.02
3.06463	50.04
3.08130	50.04
3.09797	50.05
3.11463	50.05
3.13130	50.06
3.14797	50.07
3.16463	50.08
3.18130	50.08
3.19797	50.09
3.21463	50.09
3.23130	50.09
3.24797	50.10
3.26463	50.10
3.28130	50.11
3.29797	50.09
3.31463	50.07
3.33130	50.06
3.34797	50.05
3.36463	50.04
3.38130	50.04
3.39797	50.03
3.41463	50.02
3.43130	50.02
3.44797	50.02
3.46463	50.02
3.48130	50.03
3.49797	50.02
3.51463	50.02
3.53130	50.03
3.54797	50.04
3.56463	50.04
3.58130	50.05
3.59797	50.06
3.61463	50.06
3.63130	50.06
3.64797	50.06
3.66463	50.06
3.68130	50.06
3.69797	50.05
3.71463	50.04
3.73130	50.04
3.74797	50.05
3.76463	50.05
3.78130	50.05
3.79797	50.05
3.81463	50.05
3.83130	50.05
3.84797	50.06
3.86463	50.06
3.88130	50.07
3.89797	50.08
3.91463	50.08
3.93130	50.08
3.94797	50.08
3.96463	50.08
3.98130	50.07
3.99797	50.06

[Status Trace (Injection Unit Temperature)]
Interval(msec)	1000
# of Points	240
Start Time(min)	0.015
End Time(min)	3.998
Intensity Units	
Intensity Multiplier	1
R.Time (min)	Intensity
0.01463	99.98
0.03130	99.98
0.04797	99.98
0.06463	99.98
0.08130	99.98
0.09797	99.98
0.11463	99.98
0.13130	99.98
0.14797	99.98
0.16463	99.98
0.18130	99.98
0.19797	99.98
0.21463	99.98
0.23130	99.99
0.24797	99.98
0.26463	99.98
0.28130	99.98
0.29797	99.98
0.31463	99.98
0.33130	99.99
0.34797	99.98
0.36463	99.98
0.38130	99.98
0.39797	99.98
0.41463	99.98
0.43130	99.98
0.44797	99.98
0.46463	99.98
0.48130	99.98
0.49797	99.99
0.51463	99.98
0.53130	99.98
0.54797	99.98
0.56463	99.98
0.58130	99.98
0.59797	99.98
0.61463	99.98
0.63130	99.98
0.64797	99.98
0.66463	99.98
0.68130	99.98
0.69797	99.98
0.71463	99.98
0.73130	99.98
0.74797	99.99
0.76463	99.98
0.78130	99.98
0.79797	99.98
0.81463	99.98
0.83130	99.98
0.84797	99.99
0.86463	99.98
0.88130	99.98
0.89797	99.98
0.91463	99.99
0.93130	99.98
0.94797	99.98
0.96463	99.98
0.98130	99.98
0.99797	99.99
1.01463	99.98
1.03130	99.98
1.04797	99.98
1.06463	99.98
1.08130	99.99
1.09797	99.98
1.11463	99.98
1.13130	99.98
1.14797	99.98
1.16463	99.98
1.18130	99.99
1.19797	99.99
1.21463	99.98
1.23130	99.98
1.24797	99.99
1.26463	99.98
1.28130	99.99
1.29797	99.98
1.31463	99.98
1.33130	99.98
1.34797	99.98
1.36463	99.98
1.38130	99.98
1.39797	99.99
1.41463	99.99
1.43130	99.99
1.44797	99.99
1.46463	99.98
1.48130	99.98
1.49797	99.98
1.51463	99.98
1.53130	99.98
1.54797	99.98
1.56463	99.98
1.58130	99.98
1.59797	99.98
1.61463	99.98
1.63130	99.98
1.64797	99.98
1.66463	99.98
1.68130	99.98
1.69797	99.98
1.71463	99.98
1.73130	99.99
1.74797	99.98
1.76463	99.98
1.78130	99.98
1.79797	99.98
1.81463	99.98
1.83130	99.98
1.84797	99.98
1.86463	99.98
1.88130	99.98
1.89797	99.98
1.91463	99.98
1.93130	99.98
1.94797	99.98
1.96463	99.97
1.98130	99.98
1.99797	99.98
2.01463	99.97
2.03130	99.97
2.04797	99.98
2.06463	99.98
2.08130	99.97
2.09797	99.97
2.11463	99.97
2.13130	99.97
2.14797	99.96
2.16463	99.97
2.18130	99.97
2.19797	99.97
2.21463	99.97
2.23130	99.97
2.24797	99.97
2.26463	99.97
2.28130	99.97
2.29797	99.97
2.31463	99.97
2.33130	99.97
2.34797	99.97
2.36463	99.97
2.38130	99.97
2.39797	99.97
2.41463	99.97
2.43130	99.96
2.44797	99.97
2.46463	99.97
2.48130	99.97
2.49797	99.97
2.51463	99.97
2.53130	99.97
2.54797	99.97
2.56463	99.97
2.58130	99.97
2.59797	99.97
2.61463	99.98
2.63130	99.98
2.64797	99.97
2.66463	99.98
2.68130	99.98
2.69797	99.98
2.71463	99.98
2.73130	99.98
2.74797	99.98
2.76463	99.99
2.78130	99.99
2.79797	99.99
2.81463	99.99
2.83130	99.99
2.84797	99.99
2.86463	99.99
2.88130	99.99
2.89797	99.99
2.91463	100.00
2.93130	100.00
2.94797	100.00
2.96463	100.00
2.98130	100.00
2.99797	100.00
3.01463	100.01
3.03130	100.01
3.04797	100.01
3.06463	100.01
3.08130	100.01
3.09797	100.01
3.11463	100.01
3.13130	100.01
3.14797	100.02
3.16463	100.02
3.18130	100.02
3.19797	100.02
3.21463	100.02
3.23130	100.02
3.24797	100.02
3.26463	100.03
3.28130	100.02
3.29797	100.03
3.31463	100.03
3.33130	100.03
3.34797	100.03
3.36463	100.03
3.38130	100.03
3.39797	100.03
3.41463	100.03
3.43130	100.03
3.44797	100.03
3.46463	100.04
3.48130	100.04
3.49797	100.03
3.51463	100.03
3.53130	100.04
3.54797	100.04
3.56463	100.04
3.58130	100.04
3.59797	100.04
3.61463	100.03
3.63130	100.04
3.64797	100.04
3.66463	100.04
3.68130	100.04
3.69797	100.04
3.71463	100.04
3.73130	100.05
3.74797	100.04
3.76463	100.04
3.78130	100.05
3.79797	100.04
3.81463	100.05
3.83130	100.05
3.84797	100.04
3.86463	100.05
3.88130	100.05
3.89797	100.05
3.91463	100.05
3.93130	100.05
3.94797	100.05
3.96463	100.04
3.98130	100.05
3.99797	100.05

[Status Trace (Carrier Gas Pressure)]
Interval(msec)	1000
# of Points	240
Start Time(min)	0.015
End Time(min)	3.998
Intensity Units	
Intensity Multiplier	1
R.Time (min)	Intensity
0.01463	57.40
0.03130	55.58
0.04797	57.88
0.06463	59.82
0.08130	58.72
0.09797	57.98
0.11463	57.99
0.13130	58.01
0.14797	58.01
0.16463	58.00
0.18130	58.00
0.19797	58.00
0.21463	58.00
0.23130	58.00
0.24797	58.00
0.26463	58.00
0.28130	58.00
0.29797	58.00
0.31463	58.00
0.33130	58.00
0.34797	58.00
0.36463	58.00
0.38130	58.00
0.39797	58.00
0.41463	58.00
0.43130	58.00
0.44797	58.00
0.46463	58.00
0.48130	58.00
0.49797	58.00
0.51463	58.00
0.53130	58.00
0.54797	58.00
0.56463	58.00
0.58130	58.00
0.59797	58.00
0.61463	58.00
0.63130	58.00
0.64797	58.00
0.66463	58.00
0.68130	58.00
0.69797	58.00
0.71463	58.00
0.73130	58.00
0.74797	58.00
0.76463	58.00
0.78130	58.00
0.79797	58.00
0.81463	58.00
0.83130	58.00
0.84797	58.00
0.86463	58.00
0.88130	58.00
0.89797	58.00
0.91463	58.00
0.93130	58.00
0.94797	58.00
0.96463	58.00
0.98130	58.00
0.99797	58.00
1.01463	58.00
1.03130	58.00
1.04797	58.00
1.06463	58.00
1.08130	58.00
1.09797	58.00
1.11463	58.00
1.13130	58.00
1.14797	58.00
1.16463	58.00
1.18130	58.00
1.19797	58.00
1.21463	58.00
1.23130	58.00
1.24797	58.00
1.26463	58.00
1.28130	58.00
1.29797	58.00
1.31463	58.00
1.33130	58.00
1.34797	58.00
1.36463	58.00
1.38130	58.00
1.39797	58.00
1.41463	58.00
1.43130	58.00
1.44797	58.00
1.46463	58.00
1.48130	58.00
1.49797	58.00
1.51463	58.00
1.53130	58.00
1.54797	58.00
1.56463	58.00
1.58130	58.00
1.59797	58.00
1.61463	58.00
1.63130	58.00
1.64797	58.00
1.66463	58.01
1.68130	58.01
1.69797	58.00
1.71463	58.00
1.73130	58.00
1.74797	58.00
1.76463	58.00
1.78130	58.00
1.79797	58.00
1.81463	58.00
1.83130	58.00
1.84797	58.00
1.86463	58.00
1.88130	58.00
1.89797	58.00
1.91463	58.00
1.93130	58.00
1.94797	58.00
1.96463	58.00
1.98130	58.00
1.99797	58.00
2.01463	58.00
2.03130	58.00
2.04797	58.00
2.06463	58.00
2.08130	58.00
2.09797	58.00
2.11463	58.00
2.13130	58.00
2.14797	58.00
2.16463	58.00
2.18130	58.00
2.19797	58.00
2.21463	58.00
2.23130	58.00
2.24797	58.00
2.26463	58.00
2.28130	58.00
2.29797	58.00
2.31463	58.00
2.33130	58.00
2.34797	58.00
2.36463	58.00
2.38130	57.99
2.39797	57.99
2.41463	58.00
2.43130	58.00
2.44797	58.00
2.46463	58.00
2.48130	58.00
2.49797	58.00
2.51463	57.99
2.53130	57.99
2.54797	58.00
2.56463	58.00
2.58130	58.00
2.59797	58.00
2.61463	58.00
2.63130	58.00
2.64797	58.00
2.66463	58.00
2.68130	58.00
2.69797	58.00
2.71463	58.00
2.73130	58.00
2.74797	58.00
2.76463	58.00
2.78130	58.00
2.79797	58.00
2.81463	58.00
2.83130	58.00
2.84797	58.00
2.86463	58.00
2.88130	58.00
2.89797	58.00
2.91463	58.00
2.93130	58.00
2.94797	58.00
2.96463	58.00
2.98130	58.00
2.99797	58.00
3.01463	58.00
3.03130	58.00
3.04797	58.00
3.06463	58.00
3.08130	58.00
3.09797	58.00
3.11463	58.00
3.13130	58.00
3.14797	58.00
3.16463	58.00
3.18130	58.00
3.19797	58.00
3.21463	58.00
3.23130	58.00
3.24797	58.00
3.26463	58.00
3.28130	58.00
3.29797	58.00
3.31463	58.00
3.33130	58.00
3.34797	58.00
3.36463	58.00
3.38130	58.00
3.39797	58.00
3.41463	58.00
3.43130	58.00
3.44797	58.00
3.46463	58.00
3.48130	58.00
3.49797	58.00
3.51463	58.00
3.53130	58.00
3.54797	58.00
3.56463	58.00
3.58130	58.00
3.59797	58.00
3.61463	58.00
3.63130	58.00
3.64797	58.00
3.66463	58.00
3.68130	58.00
3.69797	58.00
3.71463	58.00
3.73130	58.00
3.74797	58.00
3.76463	58.00
3.78130	58.00
3.79797	58.00
3.81463	58.00
3.83130	58.00
3.84797	58.00
3.86463	58.00
3.88130	58.00
3.89797	58.00
3.91463	58.00
3.93130	58.00
3.94797	58.00
3.96463	58.00
3.98130	58.00
3.99797	58.00

[Status Trace (Carrier Gas Flow)]
Interval(msec)	1000
# of Points	240
Start Time(min)	0.015
End Time(min)	3.998
Intensity Units	
Intensity Multiplier	1
R.Time (min)	Intensity
0.01463	34.06
0.03130	34.52
0.04797	34.55
0.06463	34.52
0.08130	34.50
0.09797	34.52
0.11463	34.52
0.13130	34.52
0.14797	34.52
0.16463	34.52
0.18130	34.52
0.19797	34.52
0.21463	34.52
0.23130	34.52
0.24797	34.52
0.26463	34.52
0.28130	34.52
0.29797	34.52
0.31463	34.52
0.33130	34.52
0.34797	34.52
0.36463	34.52
0.38130	34.52
0.39797	34.52
0.41463	34.52
0.43130	34.52
0.44797	34.52
0.46463	34.52
0.48130	34.52
0.49797	34.52
0.51463	34.52
0.53130	34.52
0.54797	34.52
0.56463	34.52
0.58130	34.52
0.59797	34.52
0.61463	34.52
0.63130	34.52
0.64797	34.52
0.66463	34.52
0.68130	34.52
0.69797	34.52
0.71463	34.52
0.73130	34.52
0.74797	34.52
0.76463	34.52
0.78130	34.52
0.79797	34.52
0.81463	34.52
0.83130	34.52
0.84797	34.52
0.86463	34.52
0.88130	34.52
0.89797	34.52
0.91463	34.52
0.93130	34.52
0.94797	34.52
0.96463	34.52
0.98130	34.52
0.99797	34.52
1.01463	34.52
1.03130	34.52
1.04797	34.52
1.06463	34.52
1.08130	34.52
1.09797	34.52
1.11463	34.52
1.13130	34.52
1.14797	34.52
1.16463	34.52
1.18130	34.52
1.19797	34.52
1.21463	34.52
1.23130	34.52
1.24797	34.52
1.26463	34.52
1.28130	34.52
1.29797	34.52
1.31463	34.52
1.33130	34.52
1.34797	34.52
1.36463	34.52
1.38130	34.52
1.39797	34.52
1.41463	34.52
1.43130	34.52
1.44797	34.52
1.46463	34.52
1.48130	34.52
1.49797	34.52
1.51463	34.52
1.53130	34.52
1.54797	34.52
1.56463	34.52
1.58130	34.52
1.59797	34.52
1.61463	34.52
1.63130	34.52
1.64797	34.52
1.66463	34.52
1.68130	34.52
1.69797	34.52
1.71463	34.53
1.73130	34.52
1.74797	34.52
1.76463	34.52
1.78130	34.52
1.79797	34.52
1.81463	34.51
1.83130	34.52
1.84797	34.52
1.86463	34.52
1.88130	34.52
1.89797	34.51
1.91463	34.52
1.93130	34.52
1.94797	34.52
1.96463	34.52
1.98130	34.52
1.99797	34.52
2.01463	34.51
2.03130	34.53
2.04797	34.52
2.06463	34.52
2.08130	34.52
2.09797	34.52
2.11463	34.52
2.13130	34.52
2.14797	34.52
2.16463	34.52
2.18130	34.52
2.19797	34.53
2.21463	34.52
2.23130	34.52
2.24797	34.52
2.26463	34.51
2.28130	34.51
2.29797	34.52
2.31463	34.52
2.33130	34.52
2.34797	34.52
2.36463	34.52
2.38130	34.51
2.39797	34.51
2.41463	34.52
2.43130	34.52
2.44797	34.52
2.46463	34.52
2.48130	34.52
2.49797	34.52
2.51463	34.52
2.53130	34.52
2.54797	34.52
2.56463	34.52
2.58130	34.52
2.59797	34.52
2.61463	34.52
2.63130	34.52
2.64797	34.52
2.66463	34.52
2.68130	34.52
2.69797	34.52
2.71463	34.52
2.73130	34.52
2.74797	34.52
2.76463	34.52
2.78130	34.52
2.79797	34.52
2.81463	34.52
2.83130	34.52
2.84797	34.52
2.86463	34.52
2.88130	34.52
2.89797	34.52
2.91463	34.52
2.93130	34.52
2.94797	34.52
2.96463	34.52
2.98130	34.52
2.99797	34.52
3.01463	34.52
3.03130	34.52
3.04797	34.52
3.06463	34.52
3.08130	34.52
3.09797	34.52
3.11463	34.52
3.13130	34.52
3.14797	34.52
3.16463	34.52
3.18130	34.52
3.19797	34.52
3.21463	34.52
3.23130	34.52
3.24797	34.52
3.26463	34.52
3.28130	34.51
3.29797	34.52
3.31463	34.52
3.33130	34.53
3.34797	34.52
3.36463	34.51
3.38130	34.52
3.39797	34.52
3.41463	34.52
3.43130	34.52
3.44797	34.52
3.46463	34.52
3.48130	34.52
3.49797	34.52
3.51463	34.52
3.53130	34.52
3.54797	34.51
3.56463	34.51
3.58130	34.52
3.59797	34.52
3.61463	34.52
3.63130	34.54
3.64797	34.52
3.66463	34.52
3.68130	34.52
3.69797	34.51
3.71463	34.52
3.73130	34.52
3.74797	34.51
3.76463	34.51
3.78130	34.54
3.79797	34.52
3.81463	34.52
3.83130	34.52
3.84797	34.53
3.86463	34.52
3.88130	34.53
3.89797	34.51
3.91463	34.51
3.93130	34.52
3.94797	34.53
3.96463	34.52
3.98130	34.52
3.99797	34.54

[Status Trace (Column Flow)]
Interval(msec)	1000
# of Points	240
Start Time(min)	0.015
End Time(min)	3.998
Intensity Units	
Intensity Multiplier	1
R.Time (min)	Intensity
0.01463	5.43
0.03130	5.22
0.04797	5.48
0.06463	5.71
0.08130	5.58
0.09797	5.50
0.11463	5.50
0.13130	5.50
0.14797	5.50
0.16463	5.50
0.18130	5.50
0.19797	5.50
0.21463	5.50
0.23130	5.50
0.24797	5.50
0.26463	5.50
0.28130	5.50
0.29797	5.50
0.31463	5.50
0.33130	5.50
0.34797	5.50
0.36463	5.50
0.38130	5.50
0.39797	5.50
0.41463	5.50
0.43130	5.50
0.44797	5.50
0.46463	5.50
0.48130	5.50
0.49797	5.50
0.51463	5.50
0.53130	5.50
0.54797	5.50
0.56463	5.50
0.58130	5.50
0.59797	5.50
0.61463	5.50
0.63130	5.50
0.64797	5.50
0.66463	5.50
0.68130	5.50
0.69797	5.50
0.71463	5.50
0.73130	5.50
0.74797	5.50
0.76463	5.50
0.78130	5.50
0.79797	5.50
0.81463	5.50
0.83130	5.50
0.84797	5.50
0.86463	5.50
0.88130	5.50
0.89797	5.50
0.91463	5.50
0.93130	5.50
0.94797	5.50
0.96463	5.50
0.98130	5.50
0.99797	5.50
1.01463	5.50
1.03130	5.50
1.04797	5.50
1.06463	5.50
1.08130	5.50
1.09797	5.50
1.11463	5.50
1.13130	5.50
1.14797	5.50
1.16463	5.50
1.18130	5.50
1.19797	5.50
1.21463	5.50
1.23130	5.50
1.24797	5.50
1.26463	5.50
1.28130	5.50
1.29797	5.50
1.31463	5.50
1.33130	5.50
1.34797	5.50
1.36463	5.50
1.38130	5.50
1.39797	5.50
1.41463	5.50
1.43130	5.50
1.44797	5.50
1.46463	5.50
1.48130	5.50
1.49797	5.50
1.51463	5.50
1.53130	5.50
1.54797	5.50
1.56463	5.50
1.58130	5.50
1.59797	5.50
1.61463	5.50
1.63130	5.49
1.64797	5.48
1.66463	5.48
1.68130	5.46
1.69797	5.45
1.71463	5.44
1.73130	5.43
1.74797	5.42
1.76463	5.41
1.78130	5.40
1.79797	5.39
1.81463	5.38
1.83130	5.37
1.84797	5.36
1.86463	5.35
1.88130	5.34
1.89797	5.33
1.91463	5.32
1.93130	5.31
1.94797	5.30
1.96463	5.29
1.98130	5.28
1.99797	5.27
2.01463	5.26
2.03130	5.25
2.04797	5.24
2.06463	5.23
2.08130	5.23
2.09797	5.22
2.11463	5.21
2.13130	5.20
2.14797	5.19
2.16463	5.18
2.18130	5.17
2.19797	5.16
2.21463	5.15
2.23130	5.14
2.24797	5.13
2.26463	5.12
2.28130	5.11
2.29797	5.10
2.31463	5.10
2.33130	5.09
2.34797	5.08
2.36463	5.07
2.38130	5.07
2.39797	5.06
2.41463	5.07
2.43130	5.07
2.44797	5.07
2.46463	5.07
2.48130	5.06
2.49797	5.06
2.51463	5.06
2.53130	5.06
2.54797	5.06
2.56463	5.06
2.58130	5.06
2.59797	5.06
2.61463	5.06
2.63130	5.06
2.64797	5.06
2.66463	5.06
2.68130	5.06
2.69797	5.06
2.71463	5.06
2.73130	5.06
2.74797	5.06
2.76463	5.06
2.78130	5.06
2.79797	5.06
2.81463	5.06
2.83130	5.06
2.84797	5.06
2.86463	5.06
2.88130	5.06
2.89797	5.06
2.91463	5.06
2.93130	5.06
2.94797	5.06
2.96463	5.06
2.98130	5.06
2.99797	5.06
3.01463	5.06
3.03130	5.06
3.04797	5.06
3.06463	5.06
3.08130	5.06
3.09797	5.06
3.11463	5.05
3.13130	5.05
3.14797	5.05
3.16463	5.05
3.18130	5.05
3.19797	5.05
3.21463	5.05
3.23130	5.05
3.24797	5.05
3.26463	5.05
3.28130	5.05
3.29797	5.05
3.31463	5.05
3.33130	5.05
3.34797	5.06
3.36463	5.06
3.38130	5.06
3.39797	5.06
3.41463	5.06
3.43130	5.06
3.44797	5.06
3.46463	5.06
3.48130	5.06
3.49797	5.06
3.51463	5.06
3.53130	5.06
3.54797	5.06
3.56463	5.06
3.58130	5.06
3.59797	5.06
3.61463	5.06
3.63130	5.06
3.64797	5.06
3.66463	5.06
3.68130	5.06
3.69797	5.06
3.71463	5.06
3.73130	5.06
3.74797	5.06
3.76463	5.06
3.78130	5.06
3.79797	5.06
3.81463	5.06
3.83130	5.06
3.84797	5.06
3.86463	5.05
3.88130	5.05
3.89797	5.05
3.91463	5.05
3.93130	5.05
3.94797	5.05
3.96463	5.05
3.98130	5.05
3.99797	5.06

[Status Trace (Linear Velocity)]
Interval(msec)	1000
# of Points	240
Start Time(min)	0.015
End Time(min)	3.998
Intensity Units	
Intensity Multiplier	1
R.Time (min)	Intensity
0.01463	38.61
0.03130	37.42
0.04797	38.93
0.06463	40.20
0.08130	39.48
0.09797	39.00
0.11463	39.01
0.13130	39.02
0.14797	39.02
0.16463	39.02
0.18130	39.01
0.19797	39.02
0.21463	39.02
0.23130	39.01
0.24797	39.01
0.26463	39.01
0.28130	39.02
0.29797	39.01
0.31463	39.02
0.33130	39.02
0.34797	39.01
0.36463	39.01
0.38130	39.01
0.39797	39.01
0.41463	39.01
0.43130	39.01
0.44797	39.01
0.46463	39.01
0.48130	39.01
0.49797	39.01
0.51463	39.01
0.53130	39.01
0.54797	39.01
0.56463	39.01
0.58130	39.01
0.59797	39.01
0.61463	39.01
0.63130	39.01
0.64797	39.01
0.66463	39.01
0.68130	39.01
0.69797	39.02
0.71463	39.02
0.73130	39.02
0.74797	39.02
0.76463	39.02
0.78130	39.02
0.79797	39.01
0.81463	39.01
0.83130	39.01
0.84797	39.01
0.86463	39.01
0.88130	39.01
0.89797	39.01
0.91463	39.01
0.93130	39.01
0.94797	39.01
0.96463	39.01
0.98130	39.01
0.99797	39.01
1.01463	39.01
1.03130	39.01
1.04797	39.01
1.06463	39.01
1.08130	39.01
1.09797	39.01
1.11463	39.01
1.13130	39.01
1.14797	39.01
1.16463	39.01
1.18130	39.01
1.19797	39.01
1.21463	39.01
1.23130	39.01
1.24797	39.01
1.26463	39.01
1.28130	39.01
1.29797	39.01
1.31463	39.01
1.33130	39.01
1.34797	39.01
1.36463	39.01
1.38130	39.01
1.39797	39.01
1.41463	39.01
1.43130	39.01
1.44797	39.01
1.46463	39.01
1.48130	39.01
1.49797	39.01
1.51463	39.01
1.53130	39.01
1.54797	39.01
1.56463	39.01
1.58130	39.01
1.59797	39.01
1.61463	39.00
1.63130	38.99
1.64797	38.97
1.66463	38.94
1.68130	38.91
1.69797	38.87
1.71463	38.84
1.73130	38.81
1.74797	38.78
1.76463	38.74
1.78130	38.71
1.79797	38.68
1.81463	38.65
1.83130	38.62
1.84797	38.59
1.86463	38.56
1.88130	38.53
1.89797	38.49
1.91463	38.46
1.93130	38.43
1.94797	38.40
1.96463	38.37
1.98130	38.34
1.99797	38.31
2.01463	38.28
2.03130	38.25
2.04797	38.22
2.06463	38.19
2.08130	38.16
2.09797	38.13
2.11463	38.10
2.13130	38.07
2.14797	38.05
2.16463	38.02
2.18130	37.98
2.19797	37.96
2.21463	37.93
2.23130	37.90
2.24797	37.87
2.26463	37.84
2.28130	37.81
2.29797	37.78
2.31463	37.75
2.33130	37.72
2.34797	37.69
2.36463	37.67
2.38130	37.65
2.39797	37.65
2.41463	37.65
2.43130	37.65
2.44797	37.65
2.46463	37.65
2.48130	37.65
2.49797	37.65
2.51463	37.65
2.53130	37.64
2.54797	37.65
2.56463	37.65
2.58130	37.65
2.59797	37.65
2.61463	37.64
2.63130	37.64
2.64797	37.64
2.66463	37.64
2.68130	37.64
2.69797	37.64
2.71463	37.64
2.73130	37.64
2.74797	37.64
2.76463	37.64
2.78130	37.64
2.79797	37.64
2.81463	37.64
2.83130	37.64
2.84797	37.63
2.86463	37.63
2.88130	37.63
2.89797	37.63
2.91463	37.63
2.93130	37.63
2.94797	37.63
2.96463	37.63
2.98130	37.63
2.99797	37.62
3.01463	37.62
3.03130	37.63
3.04797	37.63
3.06463	37.62
3.08130	37.62
3.09797	37.62
3.11463	37.62
3.13130	37.62
3.14797	37.62
3.16463	37.62
3.18130	37.62
3.19797	37.62
3.21463	37.62
3.23130	37.62
3.24797	37.62
3.26463	37.62
3.28130	37.62
3.29797	37.62
3.31463	37.62
3.33130	37.62
3.34797	37.62
3.36463	37.62
3.38130	37.62
3.39797	37.62
3.41463	37.62
3.43130	37.63
3.44797	37.63
3.46463	37.63
3.48130	37.62
3.49797	37.63
3.51463	37.63
3.53130	37.62
3.54797	37.62
3.56463	37.62
3.58130	37.62
3.59797	37.62
3.61463	37.62
3.63130	37.62
3.64797	37.62
3.66463	37.62
3.68130	37.62
3.69797	37.62
3.71463	37.62
3.73130	37.62
3.74797	37.62
3.76463	37.62
3.78130	37.62
3.79797	37.62
3.81463	37.62
3.83130	37.62
3.84797	37.62
3.86463	37.62
3.88130	37.62
3.89797	37.62
3.91463	37.62
3.93130	37.62
3.94797	37.62
3.96463	37.62
3.98130	37.62
3.99797	37.62

