[Header]
Application Name	LabSolutions
Version	5.110
Data File Name	C:\Users\User\Desktop\GC Analyses\Jack\UIC Prairie Sampling\7.9.22\220909_018.gcd
Output Date	9/28/2022
Output Time	11:29:50 AM

[File Information]
Type	Data File
Generated	9/9/2022 3:31:41 PM
Generated by	System Administrator
Modified	9/9/2022 3:36:45 PM
Modified by	System Administrator

[Sample Information]
Operator Name	System Administrator
Acquired	9/9/2022 3:32:44 PM
Sample Type	1:Standard
Level	1
Sample Name	220909_Run
Sample ID	220909_Run
ISTD Amount1	1
ISTD Amount2	1
ISTD Amount3	1
ISTD Amount4	1
ISTD Amount5	1
ISTD Amount6	1
ISTD Amount7	1
ISTD Amount8	1
ISTD Amount9	1
ISTD Amount10	1
ISTD Amount11	1
ISTD Amount12	1
ISTD Amount13	1
ISTD Amount14	1
ISTD Amount15	1
ISTD Amount16	1
ISTD Amount17	1
ISTD Amount18	1
ISTD Amount19	1
ISTD Amount20	1
ISTD Amount21	1
ISTD Amount22	1
ISTD Amount23	1
ISTD Amount24	1
ISTD Amount25	1
ISTD Amount26	1
ISTD Amount27	1
ISTD Amount28	1
ISTD Amount29	1
ISTD Amount30	1
ISTD Amount31	1
ISTD Amount32	1
Sample Amount	1
Dilution Factor	1
Vial#	1
Injection Volume	1
Injection Count	1
Bar Code	

[Original Files]
Data File	C:\Users\User\Desktop\GC Analyses\Jack\220909\220909_018.gcd
Method File	C:\LabSolutions\Data\GHG_4min_2022\ghg3_togas_w_acet_4 min_new_int.gcm
Batch File	
Report Format File	c:\LabSolutions\System\DEFAULT.lsr

[File Description]


[Configuration]
Instrument Name	C0B7VH3-Instrument1
Instrument #	1
Line #	1
# of Detectors	3
Detector ID	DET#1	DET#2	DET#3
Detector Name	FID	PTCD	ECD
# of Channels	1	1	1

[Peak Table(Ch1)]
# of Peaks	3
Peak#	R.Time	I.Time	F.Time	Area	Height	A/H	Conc.	Mark	ID#	Name	k'	Plate #	Plate Ht.	Tailing	Resolution	Sep.Factor	Area Ratio	Height Ratio	Conc. %	Norm Conc.
1	1.472	1.428	1.538	17067	7808	2.186	100.000	   	1	CO	0.000	8639	17.364	1.281	0.000	0.000	0	0	16.667	16.667
2	1.567	1.538	1.619	4316	2235	1.931	100.000	 V 	2	CH4	0.065	11571	12.964	1.224	1.568	0.000	0	0	16.667	16.667
3	1.996	1.945	2.275	1214858	601425	2.020	400.000	   	3	CO2	0.356	18032	8.319	1.197	7.287	5.500	0	0	66.667	66.667

[Peak Table(Ch2)]
# of Peaks	0

[Peak Table(Ch3)]
# of Peaks	2
Peak#	R.Time	I.Time	F.Time	Area	Height	A/H	Conc.	Mark	ID#	Name	k'	Plate #	Plate Ht.	Tailing	Resolution	Sep.Factor	Area Ratio	Height Ratio	Conc. %	Norm Conc.
1	2.590	2.059	2.653	4264	401	10.624	0.000	   			0.000	2129	70.451	0.000	0.000	0.000	0	0	0.000	0.000
2	2.876	2.653	3.760	35912	5641	6.366	1.000	 V 	1	N2O	0.110	11923	12.581	2.110	1.734	0.000	0	0	100.000	100.000

[Compound Results(Ch1)]
# of IDs	6
ID#	Name	R.Time	Area	Height	Conc.	Curve	3rd	2nd	1st	Constant	Area Ratio	Height Ratio	Conc. %	Norm Conc.
1	CO	1.472	17067	7808	100.000	Linear	0.000000e+00	0.000000e+00	1.706693e+002	0.000000e+00	0	0	16.667	16.667
2	CH4	1.567	4316	2235	100.000	Linear	0.000000e+00	0.000000e+00	4.316064e+001	0.000000e+00	0	0	16.667	16.667
3	CO2	1.996	1214858	601425	400.000	Linear	0.000000e+00	0.000000e+00	3.037145e+003	0.000000e+00	0	0	66.667	66.667
4	Ethylene	0.000	0	0	0.000	Linear	0.000000e+00	0.000000e+00	0.000000e+00	0.000000e+00	0	0	0.000	0.000
5	Acetylene	0.000	0	0	0.000	Linear	0.000000e+00	0.000000e+00	0.000000e+00	0.000000e+00	0	0	0.000	0.000
6	Ethane	0.000	0	0	0.000	Linear	0.000000e+00	0.000000e+00	0.000000e+00	0.000000e+00	0	0	0.000	0.000

[Compound Results(Ch2)]
# of IDs	5
ID#	Name	R.Time	Area	Height	Conc.	Curve	3rd	2nd	1st	Constant	Area Ratio	Height Ratio	Conc. %	Norm Conc.
1	Hydrogen	0.000	0	0	0.000	Linear	0.000000e+00	0.000000e+00	0.000000e+00	0.000000e+00	0	0	0.000	0.000
2	Oxygen	0.000	0	0	0.000	Linear	0.000000e+00	0.000000e+00	0.000000e+00	0.000000e+00	0	0	0.000	0.000
3	Nitrogen	0.000	0	0	0.000	Linear	0.000000e+00	0.000000e+00	0.000000e+00	0.000000e+00	0	0	0.000	0.000
4	Methane	0.000	0	0	0.000	Linear	0.000000e+00	0.000000e+00	0.000000e+00	0.000000e+00	0	0	0.000	0.000
5	Carbon Monoxide	0.000	0	0	0.000	Linear	0.000000e+00	0.000000e+00	0.000000e+00	0.000000e+00	0	0	0.000	0.000

[Compound Results(Ch3)]
# of IDs	2
ID#	Name	R.Time	Area	Height	Conc.	Curve	3rd	2nd	1st	Constant	Area Ratio	Height Ratio	Conc. %	Norm Conc.
1	N2O	2.876	35912	5641	1.000	Linear	0.000000e+00	0.000000e+00	3.591164e+004	0.000000e+00	0	0	100.000	100.000
2	SF6	0.000	0	0	0.000	Linear	0.000000e+00	0.000000e+00	0.000000e+00	0.000000e+00	0	0	0.000	0.000

[Group Results(Ch1)]
# of Groups	0

[Group Results(Ch2)]
# of Groups	0

[Group Results(Ch3)]
# of Groups	0

[Chromatogram (Ch1)]
Interval(msec)	220
# of Points	1091
Start Time(min)	0.002
End Time(min)	3.998
R.Time (min)	Intensity
0.00167	4
0.00533	12
0.00900	21
0.01267	29
0.01633	31
0.02000	28
0.02367	26
0.02733	21
0.03100	20
0.03467	18
0.03833	18
0.04200	20
0.04567	20
0.04933	19
0.05300	16
0.05667	10
0.06033	3
0.06400	-3
0.06767	-8
0.07133	-11
0.07500	-11
0.07867	-10
0.08233	-7
0.08600	-2
0.08967	1
0.09333	2
0.09700	-0
0.10067	-2
0.10433	-0
0.10800	2
0.11167	7
0.11533	10
0.11900	12
0.12267	9
0.12633	5
0.13000	4
0.13367	4
0.13733	7
0.14100	9
0.14467	11
0.14833	15
0.15200	19
0.15567	20
0.15933	17
0.16300	10
0.16667	3
0.17033	1
0.17400	2
0.17767	3
0.18133	1
0.18500	0
0.18867	4
0.19233	8
0.19600	8
0.19967	5
0.20333	1
0.20700	-5
0.21067	-12
0.21433	-17
0.21800	-20
0.22167	-23
0.22533	-25
0.22900	-22
0.23267	-15
0.23633	-6
0.24000	2
0.24367	5
0.24733	4
0.25100	-0
0.25467	-6
0.25833	-13
0.26200	-17
0.26567	-20
0.26933	-23
0.27300	-27
0.27667	-29
0.28033	-27
0.28400	-23
0.28767	-20
0.29133	-17
0.29500	-13
0.29867	-10
0.30233	-10
0.30600	-10
0.30967	-10
0.31333	-9
0.31700	-9
0.32067	-13
0.32433	-19
0.32800	-22
0.33167	-20
0.33533	-18
0.33900	-14
0.34267	-9
0.34633	-6
0.35000	-5
0.35367	-7
0.35733	-15
0.36100	-24
0.36467	-32
0.36833	-33
0.37200	-29
0.37567	-19
0.37933	-8
0.38300	-2
0.38667	-2
0.39033	-8
0.39400	-13
0.39767	-22
0.40133	-31
0.40500	-35
0.40867	-32
0.41233	-25
0.41600	-18
0.41967	-16
0.42333	-17
0.42700	-15
0.43067	-14
0.43433	-14
0.43800	-18
0.44167	-21
0.44533	-19
0.44900	-15
0.45267	-13
0.45633	-11
0.46000	-11
0.46367	-13
0.46733	-10
0.47100	-6
0.47467	-4
0.47833	-3
0.48200	-7
0.48567	-13
0.48933	-22
0.49300	-26
0.49667	-25
0.50033	-23
0.50400	-20
0.50767	-18
0.51133	-12
0.51500	-4
0.51867	4
0.52233	12
0.52600	15
0.52967	11
0.53333	-2
0.53700	-15
0.54067	-25
0.54433	-31
0.54800	-34
0.55167	-34
0.55533	-34
0.55900	-34
0.56267	-35
0.56633	-38
0.57000	-41
0.57367	-42
0.57733	-43
0.58100	-45
0.58467	-45
0.58833	-44
0.59200	-45
0.59567	-47
0.59933	-50
0.60300	-51
0.60667	-47
0.61033	-40
0.61400	-33
0.61767	-26
0.62133	-23
0.62500	-23
0.62867	-26
0.63233	-27
0.63600	-23
0.63967	-20
0.64333	-23
0.64700	-34
0.65067	-44
0.65433	-49
0.65800	-50
0.66167	-47
0.66533	-45
0.66900	-44
0.67267	-43
0.67633	-42
0.68000	-38
0.68367	-35
0.68733	-36
0.69100	-39
0.69467	-43
0.69833	-47
0.70200	-49
0.70567	-46
0.70933	-42
0.71300	-45
0.71667	-52
0.72033	-58
0.72400	-59
0.72767	-56
0.73133	-53
0.73500	-51
0.73867	-54
0.74233	-59
0.74600	-59
0.74967	-56
0.75333	-52
0.75700	-45
0.76067	-38
0.76433	-33
0.76800	-33
0.77167	-36
0.77533	-42
0.77900	-48
0.78267	-50
0.78633	-50
0.79000	-49
0.79367	-48
0.79733	-50
0.80100	-49
0.80467	-45
0.80833	-40
0.81200	-36
0.81567	-33
0.81933	-33
0.82300	-37
0.82667	-43
0.83033	-44
0.83400	-41
0.83767	-38
0.84133	-37
0.84500	-41
0.84867	-47
0.85233	-49
0.85600	-49
0.85967	-49
0.86333	-48
0.86700	-46
0.87067	-45
0.87433	-44
0.87800	-44
0.88167	-46
0.88533	-50
0.88900	-56
0.89267	-55
0.89633	-52
0.90000	-54
0.90367	-52
0.90733	-44
0.91100	-36
0.91467	-36
0.91833	-38
0.92200	-41
0.92567	-45
0.92933	-46
0.93300	-45
0.93667	-47
0.94033	-45
0.94400	-40
0.94767	-35
0.95133	-32
0.95500	-33
0.95867	-34
0.96233	-37
0.96600	-42
0.96967	-45
0.97333	-47
0.97700	-48
0.98067	-53
0.98433	-57
0.98800	-61
0.99167	-61
0.99533	-58
0.99900	-56
1.00267	-56
1.00633	-56
1.01000	-57
1.01367	-60
1.01733	-62
1.02100	-63
1.02467	-63
1.02833	-65
1.03200	-66
1.03567	-62
1.03933	-58
1.04300	-53
1.04667	-47
1.05033	-44
1.05400	-46
1.05767	-51
1.06133	-54
1.06500	-55
1.06867	-54
1.07233	-52
1.07600	-50
1.07967	-52
1.08333	-55
1.08700	-55
1.09067	-56
1.09433	-54
1.09800	-49
1.10167	-45
1.10533	-47
1.10900	-52
1.11267	-56
1.11633	-60
1.12000	-64
1.12367	-65
1.12733	-61
1.13100	-58
1.13467	-58
1.13833	-60
1.14200	-66
1.14567	-70
1.14933	-70
1.15300	-67
1.15667	-64
1.16033	-65
1.16400	-67
1.16767	-70
1.17133	-70
1.17500	-68
1.17867	-64
1.18233	-59
1.18600	-54
1.18967	-54
1.19333	-59
1.19700	-66
1.20067	-70
1.20433	-70
1.20800	-71
1.21167	-71
1.21533	-69
1.21900	-64
1.22267	-59
1.22633	-56
1.23000	-58
1.23367	-64
1.23733	-75
1.24100	-89
1.24467	-98
1.24833	-102
1.25200	-103
1.25567	-101
1.25933	-97
1.26300	-88
1.26667	-78
1.27033	-69
1.27400	-66
1.27767	-68
1.28133	-75
1.28500	-79
1.28867	-85
1.29233	-92
1.29600	-99
1.29967	-104
1.30333	-107
1.30700	-109
1.31067	-106
1.31433	-99
1.31800	-91
1.32167	-83
1.32533	-78
1.32900	-74
1.33267	-73
1.33633	-74
1.34000	-76
1.34367	-80
1.34733	-81
1.35100	-84
1.35467	-87
1.35833	-87
1.36200	-84
1.36567	-79
1.36933	-75
1.37300	-69
1.37667	-67
1.38033	-69
1.38400	-71
1.38767	-72
1.39133	-72
1.39500	-75
1.39867	-74
1.40233	-74
1.40600	-78
1.40967	-84
1.41333	-86
1.41700	-84
1.42067	-81
1.42433	-80
1.42800	-78
1.43167	-75
1.43533	-64
1.43900	-11
1.44267	192
1.44633	679
1.45000	1511
1.45367	2716
1.45733	4161
1.46100	5579
1.46467	6730
1.46833	7467
1.47200	7720
1.47567	7501
1.47933	6878
1.48300	5961
1.48667	4895
1.49033	3831
1.49400	2885
1.49767	2110
1.50133	1511
1.50500	1060
1.50867	726
1.51233	483
1.51600	308
1.51967	182
1.52333	89
1.52700	20
1.53067	-28
1.53433	-61
1.53800	-66
1.54167	2
1.54533	202
1.54900	550
1.55267	983
1.55633	1410
1.56000	1767
1.56367	2017
1.56733	2128
1.57100	2071
1.57467	1847
1.57833	1513
1.58200	1143
1.58567	804
1.58933	530
1.59300	322
1.59667	173
1.60033	71
1.60400	1
1.60767	-46
1.61133	-80
1.61500	-104
1.61867	-118
1.62233	-119
1.62600	-115
1.62967	-115
1.63333	-117
1.63700	-115
1.64067	-112
1.64433	-113
1.64800	-121
1.65167	-129
1.65533	-133
1.65900	-135
1.66267	-133
1.66633	-131
1.67000	-129
1.67367	-126
1.67733	-124
1.68100	-124
1.68467	-128
1.68833	-133
1.69200	-139
1.69567	-142
1.69933	-141
1.70300	-137
1.70667	-133
1.71033	-130
1.71400	-129
1.71767	-129
1.72133	-127
1.72500	-126
1.72867	-125
1.73233	-123
1.73600	-121
1.73967	-119
1.74333	-118
1.74700	-120
1.75067	-123
1.75433	-126
1.75800	-128
1.76167	-130
1.76533	-130
1.76900	-130
1.77267	-134
1.77633	-137
1.78000	-138
1.78367	-138
1.78733	-135
1.79100	-128
1.79467	-121
1.79833	-118
1.80200	-118
1.80567	-118
1.80933	-118
1.81300	-118
1.81667	-120
1.82033	-124
1.82400	-128
1.82767	-131
1.83133	-129
1.83500	-126
1.83867	-121
1.84233	-116
1.84600	-110
1.84967	-106
1.85333	-104
1.85700	-105
1.86067	-107
1.86433	-109
1.86800	-111
1.87167	-109
1.87533	-104
1.87900	-102
1.88267	-103
1.88633	-107
1.89000	-114
1.89367	-119
1.89733	-122
1.90100	-123
1.90467	-119
1.90833	-117
1.91200	-117
1.91567	-117
1.91933	-115
1.92300	-114
1.92667	-112
1.93033	-112
1.93400	-114
1.93767	-118
1.94133	-123
1.94500	-118
1.94867	-95
1.95233	-58
1.95600	134
1.95967	1150
1.96333	5363
1.96700	18666
1.97067	50967
1.97433	112268
1.97800	204701
1.98167	317408
1.98533	430688
1.98900	524814
1.99267	584582
1.99633	601334
2.00000	573940
2.00367	509824
2.00733	423471
2.01100	331296
2.01467	246488
2.01833	176329
2.02200	122609
2.02567	83694
2.02933	56577
2.03300	38167
2.03667	25871
2.04033	17730
2.04400	12356
2.04767	8794
2.05133	6413
2.05500	4795
2.05867	3681
2.06233	2899
2.06600	2342
2.06967	1934
2.07333	1627
2.07700	1389
2.08067	1204
2.08433	1057
2.08800	930
2.09167	828
2.09533	745
2.09900	676
2.10267	614
2.10633	561
2.11000	517
2.11367	478
2.11733	444
2.12100	409
2.12467	373
2.12833	345
2.13200	323
2.13567	306
2.13933	295
2.14300	288
2.14667	280
2.15033	267
2.15400	254
2.15767	242
2.16133	230
2.16500	218
2.16867	206
2.17233	195
2.17600	182
2.17967	172
2.18333	164
2.18700	160
2.19067	158
2.19433	155
2.19800	149
2.20167	147
2.20533	148
2.20900	145
2.21267	138
2.21633	127
2.22000	115
2.22367	106
2.22733	99
2.23100	95
2.23467	91
2.23833	84
2.24200	76
2.24567	69
2.24933	63
2.25300	61
2.25667	61
2.26033	61
2.26400	61
2.26767	61
2.27133	61
2.27500	59
2.27867	55
2.28233	51
2.28600	47
2.28967	46
2.29333	44
2.29700	41
2.30067	42
2.30433	41
2.30800	38
2.31167	36
2.31533	36
2.31900	40
2.32267	44
2.32633	46
2.33000	45
2.33367	40
2.33733	34
2.34100	28
2.34467	26
2.34833	26
2.35200	27
2.35567	30
2.35933	30
2.36300	30
2.36667	33
2.37033	33
2.37400	30
2.37767	26
2.38133	24
2.38500	20
2.38867	16
2.39233	13
2.39600	12
2.39967	11
2.40333	10
2.40700	8
2.41067	5
2.41433	5
2.41800	5
2.42167	2
2.42533	5
2.42900	10
2.43267	12
2.43633	11
2.44000	6
2.44367	-1
2.44733	-5
2.45100	-9
2.45467	-8
2.45833	-2
2.46200	4
2.46567	9
2.46933	13
2.47300	12
2.47667	7
2.48033	0
2.48400	-11
2.48767	-18
2.49133	-19
2.49500	-14
2.49867	-5
2.50233	1
2.50600	5
2.50967	5
2.51333	7
2.51700	11
2.52067	13
2.52433	8
2.52800	2
2.53167	-7
2.53533	-13
2.53900	-15
2.54267	-15
2.54633	-9
2.55000	-9
2.55367	-6
2.55733	-7
2.56100	-8
2.56467	-11
2.56833	-17
2.57200	-17
2.57567	-12
2.57933	-6
2.58300	-3
2.58667	-2
2.59033	-6
2.59400	-14
2.59767	-20
2.60133	-21
2.60500	-20
2.60867	-17
2.61233	-16
2.61600	-14
2.61967	-9
2.62333	-4
2.62700	-2
2.63067	-1
2.63433	-1
2.63800	-2
2.64167	-5
2.64533	-11
2.64900	-18
2.65267	-22
2.65633	-20
2.66000	-16
2.66367	-14
2.66733	-12
2.67100	-12
2.67467	-11
2.67833	-7
2.68200	-5
2.68567	-4
2.68933	-3
2.69300	-5
2.69667	-7
2.70033	-7
2.70400	-9
2.70767	-12
2.71133	-11
2.71500	-7
2.71867	-4
2.72233	-4
2.72600	-5
2.72967	-9
2.73333	-14
2.73700	-17
2.74067	-20
2.74433	-25
2.74800	-30
2.75167	-31
2.75533	-30
2.75900	-29
2.76267	-26
2.76633	-22
2.77000	-19
2.77367	-18
2.77733	-18
2.78100	-20
2.78467	-22
2.78833	-22
2.79200	-23
2.79567	-22
2.79933	-17
2.80300	-10
2.80667	-6
2.81033	-6
2.81400	-6
2.81767	-7
2.82133	-10
2.82500	-12
2.82867	-10
2.83233	-9
2.83600	-14
2.83967	-25
2.84333	-35
2.84700	-40
2.85067	-40
2.85433	-39
2.85800	-40
2.86167	-41
2.86533	-39
2.86900	-35
2.87267	-27
2.87633	-17
2.88000	-12
2.88367	-12
2.88733	-16
2.89100	-20
2.89467	-25
2.89833	-29
2.90200	-32
2.90567	-34
2.90933	-33
2.91300	-32
2.91667	-33
2.92033	-37
2.92400	-39
2.92767	-39
2.93133	-39
2.93500	-35
2.93867	-27
2.94233	-18
2.94600	-13
2.94967	-15
2.95333	-21
2.95700	-27
2.96067	-29
2.96433	-29
2.96800	-25
2.97167	-23
2.97533	-24
2.97900	-24
2.98267	-20
2.98633	-15
2.99000	-10
2.99367	-7
2.99733	-4
3.00100	-4
3.00467	-8
3.00833	-8
3.01200	-7
3.01567	-6
3.01933	-7
3.02300	-7
3.02667	-7
3.03033	-8
3.03400	-12
3.03767	-17
3.04133	-23
3.04500	-33
3.04867	-43
3.05233	-48
3.05600	-47
3.05967	-46
3.06333	-42
3.06700	-38
3.07067	-31
3.07433	-26
3.07800	-25
3.08167	-27
3.08533	-30
3.08900	-33
3.09267	-34
3.09633	-34
3.10000	-31
3.10367	-25
3.10733	-19
3.11100	-16
3.11467	-18
3.11833	-26
3.12200	-38
3.12567	-49
3.12933	-59
3.13300	-66
3.13667	-71
3.14033	-72
3.14400	-68
3.14767	-63
3.15133	-59
3.15500	-45
3.15867	-34
3.16233	-32
3.16600	-35
3.16967	-38
3.17333	-40
3.17700	-44
3.18067	-48
3.18433	-51
3.18800	-54
3.19167	-53
3.19533	-48
3.19900	-40
3.20267	-34
3.20633	-33
3.21000	-33
3.21367	-35
3.21733	-40
3.22100	-44
3.22467	-44
3.22833	-43
3.23200	-44
3.23567	-47
3.23933	-52
3.24300	-57
3.24667	-62
3.25033	-60
3.25400	-62
3.25767	-62
3.26133	-60
3.26500	-56
3.26867	-52
3.27233	-50
3.27600	-46
3.27967	-40
3.28333	-35
3.28700	-30
3.29067	-29
3.29433	-31
3.29800	-35
3.30167	-39
3.30533	-41
3.30900	-45
3.31267	-49
3.31633	-51
3.32000	-53
3.32367	-54
3.32733	-56
3.33100	-54
3.33467	-49
3.33833	-42
3.34200	-38
3.34567	-38
3.34933	-38
3.35300	-39
3.35667	-42
3.36033	-47
3.36400	-52
3.36767	-57
3.37133	-60
3.37500	-61
3.37867	-60
3.38233	-59
3.38600	-58
3.38967	-62
3.39333	-66
3.39700	-64
3.40067	-57
3.40433	-48
3.40800	-45
3.41167	-45
3.41533	-47
3.41900	-49
3.42267	-51
3.42633	-54
3.43000	-55
3.43367	-54
3.43733	-53
3.44100	-56
3.44467	-58
3.44833	-54
3.45200	-48
3.45567	-44
3.45933	-43
3.46300	-46
3.46667	-46
3.47033	-48
3.47400	-50
3.47767	-53
3.48133	-58
3.48500	-61
3.48867	-61
3.49233	-59
3.49600	-59
3.49967	-60
3.50333	-58
3.50700	-58
3.51067	-53
3.51433	-46
3.51800	-41
3.52167	-34
3.52533	-30
3.52900	-30
3.53267	-37
3.53633	-46
3.54000	-54
3.54367	-59
3.54733	-57
3.55100	-52
3.55467	-48
3.55833	-49
3.56200	-53
3.56567	-59
3.56933	-64
3.57300	-68
3.57667	-72
3.58033	-74
3.58400	-73
3.58767	-69
3.59133	-67
3.59500	-70
3.59867	-71
3.60233	-70
3.60600	-68
3.60967	-66
3.61333	-64
3.61700	-59
3.62067	-51
3.62433	-45
3.62800	-39
3.63167	-33
3.63533	-34
3.63900	-42
3.64267	-52
3.64633	-61
3.65000	-65
3.65367	-63
3.65733	-59
3.66100	-54
3.66467	-50
3.66833	-48
3.67200	-52
3.67567	-56
3.67933	-61
3.68300	-65
3.68667	-70
3.69033	-76
3.69400	-79
3.69767	-78
3.70133	-77
3.70500	-75
3.70867	-70
3.71233	-65
3.71600	-60
3.71967	-62
3.72333	-70
3.72700	-74
3.73067	-73
3.73433	-66
3.73800	-58
3.74167	-53
3.74533	-49
3.74900	-47
3.75267	-46
3.75633	-43
3.76000	-39
3.76367	-39
3.76733	-37
3.77100	-34
3.77467	-34
3.77833	-34
3.78200	-37
3.78567	-43
3.78933	-51
3.79300	-60
3.79667	-67
3.80033	-70
3.80400	-69
3.80767	-63
3.81133	-57
3.81500	-54
3.81867	-59
3.82233	-64
3.82600	-71
3.82967	-75
3.83333	-74
3.83700	-72
3.84067	-71
3.84433	-68
3.84800	-63
3.85167	-57
3.85533	-49
3.85900	-41
3.86267	-36
3.86633	-37
3.87000	-43
3.87367	-50
3.87733	-56
3.88100	-57
3.88467	-57
3.88833	-57
3.89200	-55
3.89567	-58
3.89933	-62
3.90300	-64
3.90667	-68
3.91033	-73
3.91400	-79
3.91767	-83
3.92133	-85
3.92500	-85
3.92867	-84
3.93233	-80
3.93600	-77
3.93967	-72
3.94333	-70
3.94700	-70
3.95067	-68
3.95433	-64
3.95800	-63
3.96167	-62
3.96533	-61
3.96900	-58
3.97267	-54
3.97633	-50
3.98000	-48
3.98367	-49
3.98733	-54
3.99100	-60
3.99467	-65
3.99833	-64

[Chromatogram (Ch2)]
Interval(msec)	220
# of Points	1091
Start Time(min)	0.002
End Time(min)	3.998
R.Time (min)	Intensity
0.00167	-0
0.00533	-0
0.00900	-0
0.01267	-0
0.01633	-0
0.02000	-1
0.02367	-1
0.02733	-1
0.03100	-2
0.03467	-2
0.03833	-3
0.04200	-3
0.04567	-4
0.04933	-4
0.05300	-4
0.05667	-4
0.06033	-4
0.06400	-4
0.06767	-4
0.07133	-4
0.07500	-4
0.07867	-5
0.08233	-5
0.08600	-5
0.08967	-5
0.09333	-5
0.09700	-5
0.10067	-5
0.10433	-5
0.10800	-5
0.11167	-4
0.11533	-4
0.11900	-3
0.12267	-2
0.12633	-2
0.13000	-1
0.13367	-0
0.13733	0
0.14100	0
0.14467	1
0.14833	1
0.15200	1
0.15567	1
0.15933	1
0.16300	1
0.16667	1
0.17033	2
0.17400	2
0.17767	2
0.18133	2
0.18500	2
0.18867	2
0.19233	3
0.19600	3
0.19967	2
0.20333	2
0.20700	2
0.21067	2
0.21433	2
0.21800	2
0.22167	2
0.22533	2
0.22900	2
0.23267	2
0.23633	2
0.24000	2
0.24367	1
0.24733	1
0.25100	1
0.25467	1
0.25833	1
0.26200	1
0.26567	0
0.26933	0
0.27300	-0
0.27667	-1
0.28033	-1
0.28400	-1
0.28767	-2
0.29133	-2
0.29500	-3
0.29867	-3
0.30233	-3
0.30600	-3
0.30967	-3
0.31333	-3
0.31700	-3
0.32067	-4
0.32433	-4
0.32800	-4
0.33167	-4
0.33533	-4
0.33900	-4
0.34267	-4
0.34633	-3
0.35000	-3
0.35367	-3
0.35733	-3
0.36100	-3
0.36467	-3
0.36833	-3
0.37200	-3
0.37567	-3
0.37933	-3
0.38300	-3
0.38667	-3
0.39033	-3
0.39400	-3
0.39767	-4
0.40133	-4
0.40500	-4
0.40867	-4
0.41233	-4
0.41600	-4
0.41967	-4
0.42333	-3
0.42700	-3
0.43067	-3
0.43433	-3
0.43800	-2
0.44167	-2
0.44533	-2
0.44900	-2
0.45267	-2
0.45633	-2
0.46000	-1
0.46367	-1
0.46733	-0
0.47100	-0
0.47467	0
0.47833	1
0.48200	1
0.48567	1
0.48933	1
0.49300	1
0.49667	1
0.50033	1
0.50400	1
0.50767	1
0.51133	1
0.51500	1
0.51867	1
0.52233	1
0.52600	1
0.52967	2
0.53333	2
0.53700	1
0.54067	1
0.54433	1
0.54800	1
0.55167	1
0.55533	1
0.55900	1
0.56267	1
0.56633	1
0.57000	1
0.57367	1
0.57733	1
0.58100	2
0.58467	2
0.58833	2
0.59200	2
0.59567	2
0.59933	2
0.60300	2
0.60667	2
0.61033	2
0.61400	1
0.61767	1
0.62133	1
0.62500	1
0.62867	1
0.63233	0
0.63600	0
0.63967	-0
0.64333	-0
0.64700	-1
0.65067	-1
0.65433	-1
0.65800	-2
0.66167	-2
0.66533	-2
0.66900	-2
0.67267	-2
0.67633	-2
0.68000	-2
0.68367	-2
0.68733	-3
0.69100	-3
0.69467	-3
0.69833	-3
0.70200	-3
0.70567	-3
0.70933	-3
0.71300	-3
0.71667	-3
0.72033	-3
0.72400	-3
0.72767	-3
0.73133	-3
0.73500	-3
0.73867	-3
0.74233	-3
0.74600	-3
0.74967	-3
0.75333	-3
0.75700	-3
0.76067	-3
0.76433	-3
0.76800	-3
0.77167	-3
0.77533	-3
0.77900	-4
0.78267	-4
0.78633	-4
0.79000	-4
0.79367	-4
0.79733	-3
0.80100	-3
0.80467	-3
0.80833	-4
0.81200	-4
0.81567	-4
0.81933	-4
0.82300	-4
0.82667	-4
0.83033	-4
0.83400	-4
0.83767	-4
0.84133	-4
0.84500	-4
0.84867	-4
0.85233	-4
0.85600	-4
0.85967	-4
0.86333	-4
0.86700	-3
0.87067	-3
0.87433	-3
0.87800	-2
0.88167	-2
0.88533	-1
0.88900	-1
0.89267	-1
0.89633	-1
0.90000	-1
0.90367	-1
0.90733	-1
0.91100	-1
0.91467	-1
0.91833	-2
0.92200	-1
0.92567	-1
0.92933	-1
0.93300	-2
0.93667	-2
0.94033	-2
0.94400	-2
0.94767	-2
0.95133	-2
0.95500	-2
0.95867	-2
0.96233	-2
0.96600	-2
0.96967	-2
0.97333	-2
0.97700	-2
0.98067	-3
0.98433	-3
0.98800	-3
0.99167	-3
0.99533	-3
0.99900	-3
1.00267	-3
1.00633	-3
1.01000	-3
1.01367	-4
1.01733	-4
1.02100	-4
1.02467	-4
1.02833	-5
1.03200	-5
1.03567	-5
1.03933	-5
1.04300	-6
1.04667	-6
1.05033	-6
1.05400	-6
1.05767	-6
1.06133	-6
1.06500	-7
1.06867	-7
1.07233	-7
1.07600	-7
1.07967	-7
1.08333	-7
1.08700	-6
1.09067	-6
1.09433	-6
1.09800	-5
1.10167	-5
1.10533	-5
1.10900	-5
1.11267	-4
1.11633	-4
1.12000	-4
1.12367	-4
1.12733	-4
1.13100	-4
1.13467	-3
1.13833	-3
1.14200	-3
1.14567	-3
1.14933	-3
1.15300	-3
1.15667	-2
1.16033	-2
1.16400	-2
1.16767	-2
1.17133	-2
1.17500	-2
1.17867	-2
1.18233	-2
1.18600	-3
1.18967	-3
1.19333	-3
1.19700	-3
1.20067	-3
1.20433	-4
1.20800	-4
1.21167	-4
1.21533	-3
1.21900	-3
1.22267	-3
1.22633	-2
1.23000	-2
1.23367	-1
1.23733	-1
1.24100	-1
1.24467	-1
1.24833	-1
1.25200	-1
1.25567	-1
1.25933	-1
1.26300	-1
1.26667	-1
1.27033	-2
1.27400	-2
1.27767	-3
1.28133	-3
1.28500	-4
1.28867	-4
1.29233	-4
1.29600	-4
1.29967	-4
1.30333	-5
1.30700	-5
1.31067	-5
1.31433	-6
1.31800	-6
1.32167	-6
1.32533	-6
1.32900	-6
1.33267	-7
1.33633	-7
1.34000	-7
1.34367	-7
1.34733	-7
1.35100	-7
1.35467	-6
1.35833	-6
1.36200	-6
1.36567	-6
1.36933	-5
1.37300	-5
1.37667	-5
1.38033	-5
1.38400	-4
1.38767	-4
1.39133	-4
1.39500	-4
1.39867	-4
1.40233	-3
1.40600	-3
1.40967	-2
1.41333	-2
1.41700	-1
1.42067	-1
1.42433	-1
1.42800	-1
1.43167	-1
1.43533	-1
1.43900	-1
1.44267	-1
1.44633	-1
1.45000	-1
1.45367	-0
1.45733	-1
1.46100	-1
1.46467	-0
1.46833	-0
1.47200	-0
1.47567	-0
1.47933	0
1.48300	0
1.48667	0
1.49033	-0
1.49400	0
1.49767	-0
1.50133	-0
1.50500	-1
1.50867	-1
1.51233	-1
1.51600	-2
1.51967	-2
1.52333	-3
1.52700	-3
1.53067	-3
1.53433	-3
1.53800	-4
1.54167	-4
1.54533	-4
1.54900	-5
1.55267	-5
1.55633	-5
1.56000	-5
1.56367	-5
1.56733	-6
1.57100	-6
1.57467	-5
1.57833	-5
1.58200	-5
1.58567	-5
1.58933	-5
1.59300	-5
1.59667	-5
1.60033	-5
1.60400	-6
1.60767	-6
1.61133	-8
1.61500	-9
1.61867	-11
1.62233	-13
1.62600	-15
1.62967	-18
1.63333	-21
1.63700	-24
1.64067	-28
1.64433	-31
1.64800	-35
1.65167	-38
1.65533	-42
1.65900	-46
1.66267	-51
1.66633	-56
1.67000	-61
1.67367	-66
1.67733	-71
1.68100	-77
1.68467	-82
1.68833	-87
1.69200	-91
1.69567	-95
1.69933	-98
1.70300	-101
1.70667	-103
1.71033	-105
1.71400	-107
1.71767	-108
1.72133	-110
1.72500	-111
1.72867	-112
1.73233	-113
1.73600	-115
1.73967	-116
1.74333	-117
1.74700	-118
1.75067	-119
1.75433	-119
1.75800	-119
1.76167	-119
1.76533	-119
1.76900	-119
1.77267	-119
1.77633	-119
1.78000	-119
1.78367	-120
1.78733	-121
1.79100	-121
1.79467	-122
1.79833	-123
1.80200	-123
1.80567	-123
1.80933	-123
1.81300	-123
1.81667	-124
1.82033	-124
1.82400	-124
1.82767	-124
1.83133	-124
1.83500	-124
1.83867	-124
1.84233	-124
1.84600	-123
1.84967	-123
1.85333	-123
1.85700	-123
1.86067	-123
1.86433	-123
1.86800	-123
1.87167	-123
1.87533	-123
1.87900	-124
1.88267	-123
1.88633	-123
1.89000	-123
1.89367	-122
1.89733	-122
1.90100	-121
1.90467	-121
1.90833	-121
1.91200	-121
1.91567	-121
1.91933	-120
1.92300	-120
1.92667	-120
1.93033	-119
1.93400	-119
1.93767	-118
1.94133	-118
1.94500	-118
1.94867	-117
1.95233	-117
1.95600	-117
1.95967	-117
1.96333	-116
1.96700	-116
1.97067	-116
1.97433	-116
1.97800	-116
1.98167	-116
1.98533	-116
1.98900	-116
1.99267	-116
1.99633	-115
2.00000	-115
2.00367	-114
2.00733	-114
2.01100	-113
2.01467	-113
2.01833	-112
2.02200	-112
2.02567	-112
2.02933	-111
2.03300	-111
2.03667	-111
2.04033	-110
2.04400	-110
2.04767	-110
2.05133	-109
2.05500	-109
2.05867	-109
2.06233	-109
2.06600	-110
2.06967	-110
2.07333	-111
2.07700	-111
2.08067	-111
2.08433	-110
2.08800	-110
2.09167	-109
2.09533	-108
2.09900	-107
2.10267	-107
2.10633	-106
2.11000	-106
2.11367	-106
2.11733	-105
2.12100	-105
2.12467	-104
2.12833	-104
2.13200	-104
2.13567	-104
2.13933	-104
2.14300	-104
2.14667	-103
2.15033	-102
2.15400	-101
2.15767	-101
2.16133	-100
2.16500	-100
2.16867	-100
2.17233	-100
2.17600	-100
2.17967	-100
2.18333	-99
2.18700	-99
2.19067	-99
2.19433	-99
2.19800	-99
2.20167	-99
2.20533	-98
2.20900	-98
2.21267	-98
2.21633	-98
2.22000	-98
2.22367	-98
2.22733	-97
2.23100	-97
2.23467	-97
2.23833	-97
2.24200	-97
2.24567	-97
2.24933	-96
2.25300	-95
2.25667	-94
2.26033	-93
2.26400	-93
2.26767	-93
2.27133	-92
2.27500	-93
2.27867	-93
2.28233	-93
2.28600	-94
2.28967	-94
2.29333	-93
2.29700	-93
2.30067	-93
2.30433	-92
2.30800	-92
2.31167	-92
2.31533	-91
2.31900	-91
2.32267	-91
2.32633	-90
2.33000	-90
2.33367	-89
2.33733	-88
2.34100	-88
2.34467	-87
2.34833	-87
2.35200	-86
2.35567	-86
2.35933	-86
2.36300	-86
2.36667	-85
2.37033	-85
2.37400	-83
2.37767	-81
2.38133	-78
2.38500	-75
2.38867	-71
2.39233	-67
2.39600	-62
2.39967	-57
2.40333	-52
2.40700	-47
2.41067	-43
2.41433	-38
2.41800	-34
2.42167	-31
2.42533	-27
2.42900	-24
2.43267	-21
2.43633	-18
2.44000	-15
2.44367	-13
2.44733	-11
2.45100	-10
2.45467	-9
2.45833	-8
2.46200	-6
2.46567	-5
2.46933	-3
2.47300	-2
2.47667	-1
2.48033	1
2.48400	2
2.48767	3
2.49133	4
2.49500	5
2.49867	6
2.50233	7
2.50600	7
2.50967	8
2.51333	9
2.51700	10
2.52067	11
2.52433	12
2.52800	12
2.53167	13
2.53533	13
2.53900	14
2.54267	14
2.54633	14
2.55000	14
2.55367	14
2.55733	14
2.56100	14
2.56467	14
2.56833	14
2.57200	14
2.57567	14
2.57933	14
2.58300	14
2.58667	14
2.59033	14
2.59400	14
2.59767	13
2.60133	13
2.60500	14
2.60867	14
2.61233	15
2.61600	15
2.61967	16
2.62333	17
2.62700	17
2.63067	18
2.63433	19
2.63800	19
2.64167	19
2.64533	20
2.64900	20
2.65267	20
2.65633	21
2.66000	21
2.66367	22
2.66733	22
2.67100	22
2.67467	22
2.67833	22
2.68200	22
2.68567	22
2.68933	23
2.69300	23
2.69667	23
2.70033	23
2.70400	24
2.70767	24
2.71133	24
2.71500	24
2.71867	25
2.72233	24
2.72600	24
2.72967	24
2.73333	24
2.73700	23
2.74067	23
2.74433	23
2.74800	22
2.75167	22
2.75533	23
2.75900	23
2.76267	23
2.76633	23
2.77000	24
2.77367	24
2.77733	24
2.78100	24
2.78467	25
2.78833	25
2.79200	26
2.79567	26
2.79933	27
2.80300	27
2.80667	27
2.81033	28
2.81400	28
2.81767	28
2.82133	29
2.82500	29
2.82867	29
2.83233	28
2.83600	28
2.83967	28
2.84333	26
2.84700	23
2.85067	17
2.85433	9
2.85800	-2
2.86167	-17
2.86533	-36
2.86900	-59
2.87267	-87
2.87633	-118
2.88000	-152
2.88367	-191
2.88733	-232
2.89100	-276
2.89467	-323
2.89833	-371
2.90200	-421
2.90567	-471
2.90933	-521
2.91300	-572
2.91667	-622
2.92033	-671
2.92400	-719
2.92767	-766
2.93133	-814
2.93500	-867
2.93867	-926
2.94233	-989
2.94600	-1045
2.94967	-1083
2.95333	-1096
2.95700	-1082
2.96067	-1043
2.96433	-987
2.96800	-917
2.97167	-839
2.97533	-758
2.97900	-678
2.98267	-601
2.98633	-528
2.99000	-462
2.99367	-401
2.99733	-347
3.00100	-298
3.00467	-256
3.00833	-218
3.01200	-186
3.01567	-157
3.01933	-132
3.02300	-111
3.02667	-92
3.03033	-77
3.03400	-63
3.03767	-52
3.04133	-42
3.04500	-34
3.04867	-27
3.05233	-21
3.05600	-16
3.05967	-12
3.06333	-9
3.06700	-5
3.07067	-3
3.07433	-0
3.07800	2
3.08167	3
3.08533	5
3.08900	6
3.09267	7
3.09633	8
3.10000	9
3.10367	10
3.10733	11
3.11100	12
3.11467	13
3.11833	14
3.12200	15
3.12567	15
3.12933	16
3.13300	16
3.13667	17
3.14033	17
3.14400	17
3.14767	18
3.15133	18
3.15500	19
3.15867	19
3.16233	19
3.16600	20
3.16967	20
3.17333	20
3.17700	20
3.18067	20
3.18433	20
3.18800	21
3.19167	21
3.19533	21
3.19900	21
3.20267	21
3.20633	21
3.21000	22
3.21367	22
3.21733	22
3.22100	22
3.22467	22
3.22833	22
3.23200	22
3.23567	22
3.23933	23
3.24300	23
3.24667	23
3.25033	24
3.25400	24
3.25767	24
3.26133	24
3.26500	24
3.26867	24
3.27233	24
3.27600	25
3.27967	25
3.28333	25
3.28700	25
3.29067	25
3.29433	26
3.29800	26
3.30167	26
3.30533	26
3.30900	27
3.31267	27
3.31633	27
3.32000	27
3.32367	27
3.32733	27
3.33100	27
3.33467	27
3.33833	27
3.34200	27
3.34567	27
3.34933	27
3.35300	27
3.35667	27
3.36033	27
3.36400	28
3.36767	28
3.37133	28
3.37500	28
3.37867	28
3.38233	29
3.38600	29
3.38967	29
3.39333	29
3.39700	29
3.40067	29
3.40433	29
3.40800	29
3.41167	30
3.41533	30
3.41900	30
3.42267	30
3.42633	29
3.43000	29
3.43367	29
3.43733	29
3.44100	30
3.44467	30
3.44833	30
3.45200	30
3.45567	30
3.45933	30
3.46300	30
3.46667	30
3.47033	30
3.47400	30
3.47767	30
3.48133	30
3.48500	30
3.48867	29
3.49233	29
3.49600	29
3.49967	29
3.50333	30
3.50700	29
3.51067	29
3.51433	29
3.51800	29
3.52167	29
3.52533	29
3.52900	29
3.53267	29
3.53633	29
3.54000	28
3.54367	28
3.54733	28
3.55100	28
3.55467	27
3.55833	27
3.56200	27
3.56567	28
3.56933	28
3.57300	27
3.57667	27
3.58033	27
3.58400	27
3.58767	27
3.59133	28
3.59500	28
3.59867	28
3.60233	28
3.60600	28
3.60967	28
3.61333	28
3.61700	28
3.62067	28
3.62433	28
3.62800	28
3.63167	28
3.63533	28
3.63900	28
3.64267	28
3.64633	28
3.65000	28
3.65367	28
3.65733	28
3.66100	28
3.66467	28
3.66833	28
3.67200	28
3.67567	28
3.67933	28
3.68300	28
3.68667	28
3.69033	28
3.69400	29
3.69767	29
3.70133	29
3.70500	29
3.70867	29
3.71233	29
3.71600	29
3.71967	28
3.72333	28
3.72700	28
3.73067	28
3.73433	28
3.73800	28
3.74167	28
3.74533	28
3.74900	28
3.75267	28
3.75633	28
3.76000	28
3.76367	27
3.76733	27
3.77100	27
3.77467	27
3.77833	28
3.78200	28
3.78567	28
3.78933	28
3.79300	28
3.79667	28
3.80033	28
3.80400	28
3.80767	28
3.81133	28
3.81500	28
3.81867	28
3.82233	27
3.82600	27
3.82967	27
3.83333	27
3.83700	27
3.84067	27
3.84433	27
3.84800	28
3.85167	28
3.85533	28
3.85900	28
3.86267	28
3.86633	29
3.87000	29
3.87367	29
3.87733	30
3.88100	30
3.88467	31
3.88833	31
3.89200	32
3.89567	32
3.89933	32
3.90300	33
3.90667	33
3.91033	33
3.91400	33
3.91767	33
3.92133	33
3.92500	34
3.92867	34
3.93233	34
3.93600	34
3.93967	33
3.94333	33
3.94700	33
3.95067	33
3.95433	33
3.95800	33
3.96167	33
3.96533	33
3.96900	33
3.97267	33
3.97633	32
3.98000	32
3.98367	33
3.98733	33
3.99100	33
3.99467	33
3.99833	33

[Chromatogram (Ch3)]
Interval(msec)	220
# of Points	1091
Start Time(min)	0.002
End Time(min)	3.998
R.Time (min)	Intensity
0.00167	0
0.00533	1
0.00900	-1
0.01267	-2
0.01633	-2
0.02000	-2
0.02367	-3
0.02733	-4
0.03100	-2
0.03467	-2
0.03833	-1
0.04200	-2
0.04567	-0
0.04933	-0
0.05300	1
0.05667	1
0.06033	2
0.06400	1
0.06767	-1
0.07133	-1
0.07500	1
0.07867	3
0.08233	4
0.08600	4
0.08967	3
0.09333	2
0.09700	2
0.10067	2
0.10433	0
0.10800	-2
0.11167	-3
0.11533	-5
0.11900	-5
0.12267	-4
0.12633	-3
0.13000	-2
0.13367	-3
0.13733	-3
0.14100	-3
0.14467	-3
0.14833	-4
0.15200	-2
0.15567	-2
0.15933	-3
0.16300	-1
0.16667	1
0.17033	3
0.17400	2
0.17767	2
0.18133	-1
0.18500	-3
0.18867	-4
0.19233	-3
0.19600	-2
0.19967	1
0.20333	2
0.20700	2
0.21067	2
0.21433	4
0.21800	5
0.22167	5
0.22533	5
0.22900	4
0.23267	4
0.23633	5
0.24000	4
0.24367	2
0.24733	1
0.25100	0
0.25467	-0
0.25833	-2
0.26200	-4
0.26567	-5
0.26933	-4
0.27300	-2
0.27667	-2
0.28033	-2
0.28400	-1
0.28767	-1
0.29133	0
0.29500	2
0.29867	2
0.30233	3
0.30600	3
0.30967	3
0.31333	2
0.31700	1
0.32067	-1
0.32433	-0
0.32800	0
0.33167	1
0.33533	2
0.33900	2
0.34267	3
0.34633	3
0.35000	3
0.35367	3
0.35733	2
0.36100	-1
0.36467	-1
0.36833	0
0.37200	2
0.37567	3
0.37933	3
0.38300	3
0.38667	2
0.39033	2
0.39400	2
0.39767	3
0.40133	5
0.40500	7
0.40867	6
0.41233	5
0.41600	5
0.41967	5
0.42333	5
0.42700	5
0.43067	4
0.43433	5
0.43800	7
0.44167	8
0.44533	6
0.44900	8
0.45267	8
0.45633	9
0.46000	9
0.46367	6
0.46733	5
0.47100	5
0.47467	3
0.47833	4
0.48200	6
0.48567	6
0.48933	5
0.49300	4
0.49667	4
0.50033	5
0.50400	6
0.50767	8
0.51133	11
0.51500	9
0.51867	6
0.52233	5
0.52600	5
0.52967	5
0.53333	4
0.53700	3
0.54067	2
0.54433	2
0.54800	2
0.55167	2
0.55533	2
0.55900	3
0.56267	5
0.56633	5
0.57000	6
0.57367	7
0.57733	8
0.58100	8
0.58467	7
0.58833	6
0.59200	6
0.59567	7
0.59933	8
0.60300	8
0.60667	5
0.61033	2
0.61400	1
0.61767	2
0.62133	2
0.62500	3
0.62867	4
0.63233	4
0.63600	6
0.63967	7
0.64333	7
0.64700	7
0.65067	8
0.65433	10
0.65800	11
0.66167	8
0.66533	5
0.66900	1
0.67267	-0
0.67633	-0
0.68000	2
0.68367	4
0.68733	4
0.69100	5
0.69467	6
0.69833	6
0.70200	4
0.70567	3
0.70933	2
0.71300	1
0.71667	3
0.72033	5
0.72400	6
0.72767	5
0.73133	3
0.73500	2
0.73867	2
0.74233	5
0.74600	6
0.74967	5
0.75333	5
0.75700	4
0.76067	3
0.76433	4
0.76800	3
0.77167	3
0.77533	3
0.77900	4
0.78267	6
0.78633	7
0.79000	7
0.79367	6
0.79733	4
0.80100	3
0.80467	1
0.80833	0
0.81200	1
0.81567	4
0.81933	5
0.82300	4
0.82667	5
0.83033	7
0.83400	8
0.83767	9
0.84133	8
0.84500	6
0.84867	5
0.85233	5
0.85600	5
0.85967	5
0.86333	4
0.86700	3
0.87067	6
0.87433	9
0.87800	10
0.88167	9
0.88533	7
0.88900	7
0.89267	6
0.89633	5
0.90000	5
0.90367	4
0.90733	2
0.91100	2
0.91467	3
0.91833	5
0.92200	6
0.92567	6
0.92933	6
0.93300	7
0.93667	7
0.94033	7
0.94400	8
0.94767	9
0.95133	11
0.95500	13
0.95867	11
0.96233	10
0.96600	9
0.96967	9
0.97333	9
0.97700	11
0.98067	10
0.98433	9
0.98800	7
0.99167	8
0.99533	9
0.99900	10
1.00267	12
1.00633	13
1.01000	11
1.01367	11
1.01733	12
1.02100	15
1.02467	14
1.02833	12
1.03200	8
1.03567	7
1.03933	8
1.04300	11
1.04667	14
1.05033	15
1.05400	13
1.05767	11
1.06133	9
1.06500	8
1.06867	7
1.07233	8
1.07600	9
1.07967	9
1.08333	7
1.08700	5
1.09067	6
1.09433	8
1.09800	9
1.10167	11
1.10533	13
1.10900	11
1.11267	11
1.11633	11
1.12000	12
1.12367	11
1.12733	9
1.13100	7
1.13467	6
1.13833	6
1.14200	6
1.14567	6
1.14933	6
1.15300	9
1.15667	10
1.16033	10
1.16400	9
1.16767	6
1.17133	6
1.17500	8
1.17867	10
1.18233	13
1.18600	15
1.18967	14
1.19333	14
1.19700	15
1.20067	16
1.20433	16
1.20800	16
1.21167	15
1.21533	13
1.21900	11
1.22267	10
1.22633	10
1.23000	11
1.23367	14
1.23733	15
1.24100	15
1.24467	14
1.24833	15
1.25200	16
1.25567	17
1.25933	18
1.26300	19
1.26667	18
1.27033	17
1.27400	18
1.27767	17
1.28133	15
1.28500	14
1.28867	13
1.29233	14
1.29600	15
1.29967	16
1.30333	18
1.30700	17
1.31067	14
1.31433	12
1.31800	14
1.32167	14
1.32533	15
1.32900	16
1.33267	17
1.33633	17
1.34000	17
1.34367	17
1.34733	16
1.35100	16
1.35467	17
1.35833	17
1.36200	17
1.36567	17
1.36933	18
1.37300	18
1.37667	14
1.38033	14
1.38400	15
1.38767	16
1.39133	18
1.39500	19
1.39867	19
1.40233	19
1.40600	21
1.40967	21
1.41333	19
1.41700	16
1.42067	15
1.42433	17
1.42800	17
1.43167	19
1.43533	20
1.43900	18
1.44267	19
1.44633	20
1.45000	18
1.45367	16
1.45733	17
1.46100	17
1.46467	17
1.46833	16
1.47200	15
1.47567	15
1.47933	16
1.48300	17
1.48667	17
1.49033	14
1.49400	15
1.49767	16
1.50133	14
1.50500	12
1.50867	14
1.51233	14
1.51600	14
1.51967	13
1.52333	10
1.52700	8
1.53067	9
1.53433	12
1.53800	16
1.54167	17
1.54533	19
1.54900	22
1.55267	24
1.55633	22
1.56000	19
1.56367	15
1.56733	14
1.57100	15
1.57467	17
1.57833	16
1.58200	13
1.58567	14
1.58933	16
1.59300	15
1.59667	14
1.60033	14
1.60400	13
1.60767	13
1.61133	13
1.61500	13
1.61867	14
1.62233	15
1.62600	16
1.62967	16
1.63333	16
1.63700	15
1.64067	16
1.64433	18
1.64800	20
1.65167	20
1.65533	19
1.65900	20
1.66267	20
1.66633	22
1.67000	21
1.67367	21
1.67733	21
1.68100	22
1.68467	24
1.68833	26
1.69200	27
1.69567	27
1.69933	27
1.70300	28
1.70667	27
1.71033	25
1.71400	25
1.71767	26
1.72133	25
1.72500	26
1.72867	27
1.73233	27
1.73600	29
1.73967	28
1.74333	28
1.74700	28
1.75067	30
1.75433	31
1.75800	30
1.76167	29
1.76533	29
1.76900	31
1.77267	31
1.77633	29
1.78000	28
1.78367	28
1.78733	29
1.79100	32
1.79467	36
1.79833	36
1.80200	36
1.80567	39
1.80933	41
1.81300	43
1.81667	43
1.82033	44
1.82400	45
1.82767	44
1.83133	45
1.83500	46
1.83867	45
1.84233	45
1.84600	47
1.84967	48
1.85333	51
1.85700	51
1.86067	50
1.86433	52
1.86800	54
1.87167	54
1.87533	55
1.87900	54
1.88267	52
1.88633	55
1.89000	57
1.89367	58
1.89733	58
1.90100	56
1.90467	54
1.90833	55
1.91200	56
1.91567	58
1.91933	61
1.92300	62
1.92667	64
1.93033	63
1.93400	63
1.93767	63
1.94133	62
1.94500	62
1.94867	62
1.95233	63
1.95600	64
1.95967	66
1.96333	67
1.96700	68
1.97067	69
1.97433	71
1.97800	72
1.98167	74
1.98533	75
1.98900	75
1.99267	75
1.99633	73
2.00000	73
2.00367	73
2.00733	74
2.01100	75
2.01467	77
2.01833	79
2.02200	79
2.02567	78
2.02933	81
2.03300	84
2.03667	87
2.04033	87
2.04400	84
2.04767	82
2.05133	83
2.05500	85
2.05867	86
2.06233	88
2.06600	91
2.06967	92
2.07333	93
2.07700	95
2.08067	97
2.08433	98
2.08800	100
2.09167	102
2.09533	101
2.09900	102
2.10267	103
2.10633	104
2.11000	106
2.11367	108
2.11733	108
2.12100	108
2.12467	110
2.12833	112
2.13200	111
2.13567	111
2.13933	114
2.14300	117
2.14667	117
2.15033	116
2.15400	116
2.15767	118
2.16133	119
2.16500	122
2.16867	126
2.17233	129
2.17600	131
2.17967	131
2.18333	133
2.18700	135
2.19067	135
2.19433	135
2.19800	134
2.20167	133
2.20533	134
2.20900	137
2.21267	139
2.21633	140
2.22000	142
2.22367	143
2.22733	143
2.23100	145
2.23467	147
2.23833	147
2.24200	147
2.24567	148
2.24933	148
2.25300	149
2.25667	152
2.26033	154
2.26400	156
2.26767	156
2.27133	158
2.27500	161
2.27867	163
2.28233	163
2.28600	165
2.28967	166
2.29333	166
2.29700	167
2.30067	169
2.30433	172
2.30800	177
2.31167	181
2.31533	183
2.31900	182
2.32267	180
2.32633	179
2.33000	179
2.33367	180
2.33733	180
2.34100	181
2.34467	183
2.34833	187
2.35200	189
2.35567	190
2.35933	190
2.36300	189
2.36667	188
2.37033	189
2.37400	191
2.37767	193
2.38133	195
2.38500	193
2.38867	191
2.39233	190
2.39600	195
2.39967	202
2.40333	208
2.40700	211
2.41067	216
2.41433	221
2.41800	228
2.42167	235
2.42533	241
2.42900	245
2.43267	247
2.43633	248
2.44000	249
2.44367	251
2.44733	251
2.45100	253
2.45467	255
2.45833	256
2.46200	257
2.46567	264
2.46933	275
2.47300	289
2.47667	308
2.48033	327
2.48400	344
2.48767	361
2.49133	376
2.49500	392
2.49867	409
2.50233	423
2.50600	437
2.50967	447
2.51333	456
2.51700	463
2.52067	470
2.52433	476
2.52800	484
2.53167	491
2.53533	495
2.53900	500
2.54267	506
2.54633	514
2.55000	522
2.55367	530
2.55733	537
2.56100	542
2.56467	545
2.56833	550
2.57200	555
2.57567	559
2.57933	563
2.58300	568
2.58667	573
2.59033	576
2.59400	576
2.59767	573
2.60133	565
2.60500	553
2.60867	537
2.61233	515
2.61600	490
2.61967	464
2.62333	441
2.62700	421
2.63067	401
2.63433	383
2.63800	370
2.64167	360
2.64533	353
2.64900	350
2.65267	349
2.65633	351
2.66000	354
2.66367	357
2.66733	362
2.67100	369
2.67467	374
2.67833	375
2.68200	378
2.68567	385
2.68933	393
2.69300	396
2.69667	402
2.70033	409
2.70400	416
2.70767	421
2.71133	426
2.71500	434
2.71867	440
2.72233	446
2.72600	453
2.72967	457
2.73333	461
2.73700	467
2.74067	472
2.74433	475
2.74800	480
2.75167	484
2.75533	489
2.75900	495
2.76267	497
2.76633	499
2.77000	504
2.77367	510
2.77733	514
2.78100	517
2.78467	520
2.78833	525
2.79200	530
2.79567	532
2.79933	535
2.80300	536
2.80667	538
2.81033	541
2.81400	545
2.81767	557
2.82133	581
2.82500	624
2.82867	701
2.83233	834
2.83600	1050
2.83967	1370
2.84333	1804
2.84700	2346
2.85067	2967
2.85433	3627
2.85800	4275
2.86167	4860
2.86533	5335
2.86900	5668
2.87267	5844
2.87633	5863
2.88000	5744
2.88367	5519
2.88733	5213
2.89100	4856
2.89467	4475
2.89833	4094
2.90200	3724
2.90567	3372
2.90933	3042
2.91300	2741
2.91667	2469
2.92033	2226
2.92400	2014
2.92767	1829
2.93133	1667
2.93500	1524
2.93867	1400
2.94233	1292
2.94600	1199
2.94967	1118
2.95333	1050
2.95700	992
2.96067	940
2.96433	895
2.96800	859
2.97167	829
2.97533	803
2.97900	780
2.98267	758
2.98633	735
2.99000	713
2.99367	699
2.99733	690
3.00100	684
3.00467	677
3.00833	670
3.01200	665
3.01567	660
3.01933	655
3.02300	650
3.02667	646
3.03033	643
3.03400	638
3.03767	636
3.04133	636
3.04500	636
3.04867	633
3.05233	631
3.05600	631
3.05967	630
3.06333	627
3.06700	626
3.07067	625
3.07433	623
3.07800	619
3.08167	617
3.08533	617
3.08900	616
3.09267	616
3.09633	618
3.10000	617
3.10367	616
3.10733	615
3.11100	614
3.11467	614
3.11833	613
3.12200	614
3.12567	614
3.12933	614
3.13300	614
3.13667	610
3.14033	606
3.14400	604
3.14767	605
3.15133	605
3.15500	604
3.15867	603
3.16233	602
3.16600	604
3.16967	605
3.17333	604
3.17700	600
3.18067	599
3.18433	598
3.18800	596
3.19167	592
3.19533	590
3.19900	590
3.20267	590
3.20633	589
3.21000	590
3.21367	589
3.21733	584
3.22100	582
3.22467	583
3.22833	584
3.23200	584
3.23567	584
3.23933	583
3.24300	584
3.24667	585
3.25033	584
3.25400	582
3.25767	582
3.26133	582
3.26500	584
3.26867	581
3.27233	578
3.27600	574
3.27967	571
3.28333	568
3.28700	566
3.29067	567
3.29433	567
3.29800	568
3.30167	569
3.30533	567
3.30900	565
3.31267	563
3.31633	560
3.32000	556
3.32367	556
3.32733	556
3.33100	556
3.33467	557
3.33833	555
3.34200	552
3.34567	549
3.34933	546
3.35300	544
3.35667	542
3.36033	542
3.36400	541
3.36767	538
3.37133	536
3.37500	531
3.37867	528
3.38233	527
3.38600	526
3.38967	523
3.39333	521
3.39700	519
3.40067	519
3.40433	519
3.40800	517
3.41167	514
3.41533	515
3.41900	514
3.42267	511
3.42633	508
3.43000	504
3.43367	502
3.43733	501
3.44100	500
3.44467	499
3.44833	500
3.45200	499
3.45567	497
3.45933	495
3.46300	492
3.46667	490
3.47033	489
3.47400	489
3.47767	486
3.48133	485
3.48500	485
3.48867	484
3.49233	484
3.49600	482
3.49967	481
3.50333	479
3.50700	475
3.51067	471
3.51433	468
3.51800	467
3.52167	465
3.52533	465
3.52900	464
3.53267	465
3.53633	465
3.54000	464
3.54367	460
3.54733	457
3.55100	457
3.55467	456
3.55833	451
3.56200	449
3.56567	448
3.56933	446
3.57300	445
3.57667	443
3.58033	444
3.58400	443
3.58767	440
3.59133	438
3.59500	435
3.59867	431
3.60233	429
3.60600	429
3.60967	427
3.61333	427
3.61700	425
3.62067	423
3.62433	420
3.62800	418
3.63167	418
3.63533	415
3.63900	412
3.64267	407
3.64633	405
3.65000	404
3.65367	402
3.65733	400
3.66100	399
3.66467	400
3.66833	399
3.67200	396
3.67567	394
3.67933	391
3.68300	392
3.68667	394
3.69033	394
3.69400	391
3.69767	390
3.70133	387
3.70500	385
3.70867	384
3.71233	385
3.71600	385
3.71967	382
3.72333	379
3.72700	378
3.73067	377
3.73433	376
3.73800	376
3.74167	375
3.74533	373
3.74900	372
3.75267	372
3.75633	371
3.76000	369
3.76367	367
3.76733	364
3.77100	360
3.77467	357
3.77833	355
3.78200	353
3.78567	352
3.78933	347
3.79300	345
3.79667	343
3.80033	341
3.80400	338
3.80767	336
3.81133	335
3.81500	334
3.81867	333
3.82233	330
3.82600	328
3.82967	325
3.83333	322
3.83700	319
3.84067	319
3.84433	319
3.84800	318
3.85167	317
3.85533	316
3.85900	313
3.86267	308
3.86633	305
3.87000	304
3.87367	304
3.87733	303
3.88100	301
3.88467	301
3.88833	299
3.89200	296
3.89567	295
3.89933	293
3.90300	291
3.90667	292
3.91033	291
3.91400	289
3.91767	287
3.92133	285
3.92500	281
3.92867	278
3.93233	278
3.93600	277
3.93967	277
3.94333	276
3.94700	273
3.95067	269
3.95433	266
3.95800	264
3.96167	262
3.96533	261
3.96900	258
3.97267	256
3.97633	254
3.98000	253
3.98367	254
3.98733	255
3.99100	254
3.99467	250
3.99833	242

[Status Trace (Column Oven Temperature)]
Interval(msec)	1000
# of Points	240
Start Time(min)	0.004
End Time(min)	3.988
Intensity Units	
Intensity Multiplier	1
R.Time (min)	Intensity
0.00427	34.97
0.02093	34.97
0.03760	34.99
0.05427	35.00
0.07093	35.02
0.08760	35.04
0.10427	35.05
0.12093	35.04
0.13760	35.03
0.15427	35.03
0.17093	35.02
0.18760	35.00
0.20427	34.99
0.22093	34.99
0.23760	34.98
0.25427	34.97
0.27093	34.98
0.28760	34.99
0.30427	35.00
0.32093	35.01
0.33760	35.02
0.35427	35.02
0.37093	35.02
0.38760	35.03
0.40427	35.03
0.42093	35.02
0.43760	35.02
0.45427	35.01
0.47093	34.99
0.48760	34.98
0.50427	34.98
0.52093	34.98
0.53760	34.96
0.55427	34.96
0.57093	34.95
0.58760	34.95
0.60427	34.94
0.62093	34.94
0.63760	34.94
0.65427	34.95
0.67093	34.94
0.68760	34.95
0.70427	34.96
0.72093	34.96
0.73760	34.97
0.75427	34.97
0.77093	34.97
0.78760	34.97
0.80427	34.98
0.82093	34.98
0.83760	34.97
0.85427	34.96
0.87093	34.96
0.88760	34.95
0.90427	34.94
0.92093	34.95
0.93760	34.95
0.95427	34.96
0.97093	34.96
0.98760	34.97
1.00427	34.98
1.02093	34.99
1.03760	35.01
1.05427	35.02
1.07093	35.03
1.08760	35.02
1.10427	35.02
1.12093	35.02
1.13760	35.00
1.15427	35.00
1.17093	35.00
1.18760	35.00
1.20427	35.01
1.22093	34.98
1.23760	34.98
1.25427	34.97
1.27093	34.98
1.28760	34.99
1.30427	35.01
1.32093	35.02
1.33760	35.03
1.35427	35.03
1.37093	35.04
1.38760	35.03
1.40427	35.02
1.42093	35.00
1.43760	34.98
1.45427	34.97
1.47093	34.96
1.48760	34.95
1.50427	34.96
1.52093	34.97
1.53760	34.98
1.55427	34.99
1.57093	35.00
1.58760	35.01
1.60427	35.04
1.62093	35.13
1.63760	35.30
1.65427	35.52
1.67093	35.85
1.68760	36.22
1.70427	36.57
1.72093	36.91
1.73760	37.26
1.75427	37.60
1.77093	37.93
1.78760	38.27
1.80427	38.60
1.82093	38.93
1.83760	39.26
1.85427	39.58
1.87093	39.91
1.88760	40.24
1.90427	40.57
1.92093	40.90
1.93760	41.22
1.95427	41.55
1.97093	41.88
1.98760	42.20
2.00427	42.52
2.02093	42.85
2.03760	43.16
2.05427	43.48
2.07093	43.83
2.08760	44.15
2.10427	44.47
2.12093	44.79
2.13760	45.13
2.15427	45.44
2.17093	45.78
2.18760	46.11
2.20427	46.43
2.22093	46.76
2.23760	47.10
2.25427	47.40
2.27093	47.74
2.28760	48.11
2.30427	48.43
2.32093	48.75
2.33760	49.06
2.35427	49.38
2.37093	49.62
2.38760	49.70
2.40427	49.70
2.42093	49.71
2.43760	49.69
2.45427	49.71
2.47093	49.72
2.48760	49.73
2.50427	49.74
2.52093	49.75
2.53760	49.75
2.55427	49.78
2.57093	49.79
2.58760	49.82
2.60427	49.83
2.62093	49.84
2.63760	49.84
2.65427	49.85
2.67093	49.85
2.68760	49.85
2.70427	49.85
2.72093	49.86
2.73760	49.88
2.75427	49.88
2.77093	49.89
2.78760	49.87
2.80427	49.87
2.82093	49.86
2.83760	49.86
2.85427	49.87
2.87093	49.88
2.88760	49.90
2.90427	49.92
2.92093	49.94
2.93760	49.95
2.95427	49.96
2.97093	49.98
2.98760	49.99
3.00427	50.00
3.02093	50.00
3.03760	50.01
3.05427	50.03
3.07093	50.04
3.08760	50.05
3.10427	50.05
3.12093	50.06
3.13760	50.07
3.15427	50.07
3.17093	50.08
3.18760	50.09
3.20427	50.09
3.22093	50.09
3.23760	50.10
3.25427	50.10
3.27093	50.11
3.28760	50.11
3.30427	50.10
3.32093	50.10
3.33760	50.09
3.35427	50.08
3.37093	50.07
3.38760	50.06
3.40427	50.05
3.42093	50.05
3.43760	50.05
3.45427	50.04
3.47093	50.04
3.48760	50.03
3.50427	50.04
3.52093	50.04
3.53760	50.05
3.55427	50.06
3.57093	50.07
3.58760	50.07
3.60427	50.06
3.62093	50.07
3.63760	50.07
3.65427	50.07
3.67093	50.07
3.68760	50.07
3.70427	50.07
3.72093	50.07
3.73760	50.08
3.75427	50.09
3.77093	50.09
3.78760	50.09
3.80427	50.10
3.82093	50.11
3.83760	50.11
3.85427	50.11
3.87093	50.09
3.88760	50.06
3.90427	50.04
3.92093	50.02
3.93760	50.00
3.95427	49.99
3.97093	49.98
3.98760	49.97

[Status Trace (Injection Unit Temperature)]
Interval(msec)	1000
# of Points	240
Start Time(min)	0.004
End Time(min)	3.988
Intensity Units	
Intensity Multiplier	1
R.Time (min)	Intensity
0.00427	99.99
0.02093	99.99
0.03760	99.99
0.05427	99.99
0.07093	99.99
0.08760	99.99
0.10427	99.99
0.12093	99.99
0.13760	99.99
0.15427	99.99
0.17093	99.99
0.18760	99.99
0.20427	99.99
0.22093	99.99
0.23760	99.99
0.25427	99.99
0.27093	99.99
0.28760	99.99
0.30427	99.99
0.32093	99.99
0.33760	99.99
0.35427	99.99
0.37093	99.99
0.38760	99.99
0.40427	99.99
0.42093	99.99
0.43760	99.99
0.45427	99.99
0.47093	99.99
0.48760	99.99
0.50427	99.99
0.52093	99.99
0.53760	99.99
0.55427	99.99
0.57093	99.99
0.58760	99.99
0.60427	99.98
0.62093	99.98
0.63760	99.98
0.65427	99.99
0.67093	99.99
0.68760	99.99
0.70427	99.99
0.72093	99.99
0.73760	99.99
0.75427	99.99
0.77093	99.99
0.78760	99.99
0.80427	99.99
0.82093	99.99
0.83760	99.99
0.85427	99.98
0.87093	99.98
0.88760	99.99
0.90427	99.99
0.92093	99.99
0.93760	99.99
0.95427	99.99
0.97093	99.99
0.98760	99.98
1.00427	99.98
1.02093	99.99
1.03760	99.99
1.05427	99.98
1.07093	99.99
1.08760	99.99
1.10427	99.99
1.12093	99.99
1.13760	99.98
1.15427	99.98
1.17093	99.99
1.18760	99.98
1.20427	99.98
1.22093	99.99
1.23760	99.99
1.25427	99.99
1.27093	99.99
1.28760	99.98
1.30427	99.99
1.32093	99.99
1.33760	99.98
1.35427	99.98
1.37093	99.99
1.38760	99.99
1.40427	99.99
1.42093	99.99
1.43760	99.99
1.45427	99.99
1.47093	99.99
1.48760	99.99
1.50427	99.99
1.52093	99.99
1.53760	99.99
1.55427	99.99
1.57093	99.99
1.58760	99.99
1.60427	99.99
1.62093	99.99
1.63760	99.99
1.65427	99.99
1.67093	99.99
1.68760	99.99
1.70427	99.99
1.72093	99.99
1.73760	99.99
1.75427	99.99
1.77093	99.99
1.78760	99.99
1.80427	99.99
1.82093	99.99
1.83760	99.99
1.85427	99.99
1.87093	99.99
1.88760	99.98
1.90427	99.99
1.92093	99.98
1.93760	99.99
1.95427	99.98
1.97093	99.98
1.98760	99.98
2.00427	99.98
2.02093	99.98
2.03760	99.98
2.05427	99.98
2.07093	99.98
2.08760	99.98
2.10427	99.98
2.12093	99.98
2.13760	99.98
2.15427	99.98
2.17093	99.97
2.18760	99.97
2.20427	99.97
2.22093	99.97
2.23760	99.97
2.25427	99.97
2.27093	99.97
2.28760	99.97
2.30427	99.97
2.32093	99.97
2.33760	99.96
2.35427	99.97
2.37093	99.96
2.38760	99.97
2.40427	99.97
2.42093	99.97
2.43760	99.97
2.45427	99.97
2.47093	99.96
2.48760	99.97
2.50427	99.97
2.52093	99.97
2.53760	99.97
2.55427	99.97
2.57093	99.97
2.58760	99.97
2.60427	99.97
2.62093	99.98
2.63760	99.97
2.65427	99.98
2.67093	99.98
2.68760	99.98
2.70427	99.98
2.72093	99.98
2.73760	99.99
2.75427	99.99
2.77093	99.99
2.78760	99.99
2.80427	99.99
2.82093	99.99
2.83760	100.00
2.85427	100.00
2.87093	100.00
2.88760	100.00
2.90427	100.01
2.92093	100.01
2.93760	100.01
2.95427	100.01
2.97093	100.01
2.98760	100.02
3.00427	100.01
3.02093	100.01
3.03760	100.02
3.05427	100.02
3.07093	100.02
3.08760	100.02
3.10427	100.03
3.12093	100.02
3.13760	100.02
3.15427	100.03
3.17093	100.03
3.18760	100.03
3.20427	100.03
3.22093	100.03
3.23760	100.03
3.25427	100.03
3.27093	100.03
3.28760	100.03
3.30427	100.03
3.32093	100.04
3.33760	100.04
3.35427	100.04
3.37093	100.03
3.38760	100.04
3.40427	100.04
3.42093	100.04
3.43760	100.04
3.45427	100.04
3.47093	100.04
3.48760	100.04
3.50427	100.04
3.52093	100.05
3.53760	100.05
3.55427	100.05
3.57093	100.04
3.58760	100.05
3.60427	100.05
3.62093	100.05
3.63760	100.05
3.65427	100.05
3.67093	100.05
3.68760	100.05
3.70427	100.05
3.72093	100.05
3.73760	100.05
3.75427	100.05
3.77093	100.05
3.78760	100.05
3.80427	100.05
3.82093	100.05
3.83760	100.06
3.85427	100.05
3.87093	100.06
3.88760	100.06
3.90427	100.06
3.92093	100.06
3.93760	100.06
3.95427	100.06
3.97093	100.06
3.98760	100.05

[Status Trace (Carrier Gas Pressure)]
Interval(msec)	1000
# of Points	240
Start Time(min)	0.004
End Time(min)	3.988
Intensity Units	
Intensity Multiplier	1
R.Time (min)	Intensity
0.00427	58.00
0.02093	55.93
0.03760	56.58
0.05427	58.67
0.07093	59.85
0.08760	58.23
0.10427	57.97
0.12093	58.01
0.13760	58.01
0.15427	58.01
0.17093	58.00
0.18760	58.00
0.20427	58.00
0.22093	58.00
0.23760	58.00
0.25427	58.00
0.27093	58.00
0.28760	58.00
0.30427	58.00
0.32093	58.00
0.33760	58.00
0.35427	58.00
0.37093	58.00
0.38760	58.00
0.40427	58.00
0.42093	58.00
0.43760	58.00
0.45427	58.00
0.47093	58.00
0.48760	58.00
0.50427	58.00
0.52093	58.00
0.53760	58.00
0.55427	58.00
0.57093	58.00
0.58760	58.00
0.60427	58.00
0.62093	58.00
0.63760	58.00
0.65427	58.00
0.67093	58.00
0.68760	58.00
0.70427	58.00
0.72093	58.00
0.73760	58.00
0.75427	58.00
0.77093	58.00
0.78760	58.00
0.80427	58.00
0.82093	58.00
0.83760	58.00
0.85427	58.00
0.87093	58.00
0.88760	58.00
0.90427	58.00
0.92093	58.00
0.93760	58.00
0.95427	58.00
0.97093	58.00
0.98760	58.00
1.00427	58.00
1.02093	58.00
1.03760	58.00
1.05427	58.00
1.07093	58.00
1.08760	58.00
1.10427	58.00
1.12093	58.00
1.13760	58.00
1.15427	58.00
1.17093	58.00
1.18760	58.00
1.20427	58.00
1.22093	58.00
1.23760	58.00
1.25427	58.00
1.27093	58.00
1.28760	58.00
1.30427	58.00
1.32093	58.00
1.33760	58.00
1.35427	58.00
1.37093	58.00
1.38760	58.00
1.40427	58.00
1.42093	58.00
1.43760	58.00
1.45427	58.00
1.47093	58.00
1.48760	58.00
1.50427	58.00
1.52093	58.00
1.53760	58.00
1.55427	58.00
1.57093	58.00
1.58760	58.00
1.60427	58.00
1.62093	58.00
1.63760	58.00
1.65427	58.00
1.67093	58.01
1.68760	58.01
1.70427	58.00
1.72093	58.00
1.73760	58.00
1.75427	58.00
1.77093	58.00
1.78760	58.00
1.80427	58.00
1.82093	58.00
1.83760	58.00
1.85427	58.00
1.87093	58.00
1.88760	58.00
1.90427	58.00
1.92093	58.00
1.93760	58.00
1.95427	58.00
1.97093	58.00
1.98760	58.00
2.00427	58.00
2.02093	58.00
2.03760	58.00
2.05427	58.00
2.07093	58.00
2.08760	58.00
2.10427	58.00
2.12093	58.00
2.13760	58.00
2.15427	58.00
2.17093	58.00
2.18760	58.00
2.20427	58.00
2.22093	58.00
2.23760	58.00
2.25427	58.00
2.27093	58.00
2.28760	58.00
2.30427	58.00
2.32093	58.00
2.33760	58.00
2.35427	58.00
2.37093	58.00
2.38760	57.99
2.40427	57.99
2.42093	58.00
2.43760	58.00
2.45427	58.00
2.47093	58.00
2.48760	58.00
2.50427	57.98
2.52093	57.99
2.53760	58.00
2.55427	58.00
2.57093	58.00
2.58760	58.00
2.60427	58.00
2.62093	58.00
2.63760	58.00
2.65427	58.00
2.67093	58.00
2.68760	58.00
2.70427	58.00
2.72093	58.00
2.73760	58.00
2.75427	58.00
2.77093	58.00
2.78760	58.00
2.80427	58.00
2.82093	58.00
2.83760	58.00
2.85427	58.00
2.87093	58.00
2.88760	58.00
2.90427	58.00
2.92093	58.00
2.93760	58.00
2.95427	58.00
2.97093	58.00
2.98760	58.00
3.00427	58.00
3.02093	58.00
3.03760	58.00
3.05427	58.00
3.07093	58.00
3.08760	58.00
3.10427	58.00
3.12093	58.00
3.13760	58.00
3.15427	58.00
3.17093	58.00
3.18760	58.00
3.20427	58.00
3.22093	58.00
3.23760	58.00
3.25427	58.00
3.27093	58.00
3.28760	58.00
3.30427	58.00
3.32093	58.00
3.33760	58.00
3.35427	58.00
3.37093	58.00
3.38760	58.00
3.40427	58.00
3.42093	58.00
3.43760	58.00
3.45427	58.00
3.47093	58.00
3.48760	58.00
3.50427	58.00
3.52093	58.00
3.53760	58.00
3.55427	58.00
3.57093	58.00
3.58760	58.00
3.60427	58.00
3.62093	58.00
3.63760	58.00
3.65427	58.00
3.67093	58.00
3.68760	58.00
3.70427	58.00
3.72093	58.00
3.73760	58.00
3.75427	58.00
3.77093	58.00
3.78760	58.00
3.80427	58.00
3.82093	58.00
3.83760	58.00
3.85427	58.00
3.87093	58.00
3.88760	58.00
3.90427	58.00
3.92093	58.00
3.93760	58.00
3.95427	58.00
3.97093	58.00
3.98760	58.00

[Status Trace (Carrier Gas Flow)]
Interval(msec)	1000
# of Points	240
Start Time(min)	0.004
End Time(min)	3.988
Intensity Units	
Intensity Multiplier	1
R.Time (min)	Intensity
0.00427	34.52
0.02093	34.57
0.03760	34.54
0.05427	34.54
0.07093	34.49
0.08760	34.51
0.10427	34.52
0.12093	34.52
0.13760	34.52
0.15427	34.52
0.17093	34.52
0.18760	34.52
0.20427	34.52
0.22093	34.52
0.23760	34.52
0.25427	34.52
0.27093	34.52
0.28760	34.52
0.30427	34.52
0.32093	34.52
0.33760	34.52
0.35427	34.52
0.37093	34.52
0.38760	34.52
0.40427	34.52
0.42093	34.52
0.43760	34.52
0.45427	34.52
0.47093	34.52
0.48760	34.52
0.50427	34.51
0.52093	34.52
0.53760	34.52
0.55427	34.52
0.57093	34.52
0.58760	34.52
0.60427	34.52
0.62093	34.53
0.63760	34.53
0.65427	34.53
0.67093	34.52
0.68760	34.52
0.70427	34.52
0.72093	34.53
0.73760	34.52
0.75427	34.52
0.77093	34.52
0.78760	34.51
0.80427	34.51
0.82093	34.52
0.83760	34.51
0.85427	34.52
0.87093	34.52
0.88760	34.52
0.90427	34.52
0.92093	34.52
0.93760	34.51
0.95427	34.52
0.97093	34.51
0.98760	34.52
1.00427	34.52
1.02093	34.52
1.03760	34.52
1.05427	34.52
1.07093	34.52
1.08760	34.52
1.10427	34.52
1.12093	34.52
1.13760	34.52
1.15427	34.52
1.17093	34.52
1.18760	34.52
1.20427	34.52
1.22093	34.52
1.23760	34.52
1.25427	34.52
1.27093	34.52
1.28760	34.52
1.30427	34.52
1.32093	34.52
1.33760	34.52
1.35427	34.52
1.37093	34.52
1.38760	34.52
1.40427	34.52
1.42093	34.52
1.43760	34.52
1.45427	34.52
1.47093	34.52
1.48760	34.52
1.50427	34.52
1.52093	34.52
1.53760	34.52
1.55427	34.52
1.57093	34.52
1.58760	34.52
1.60427	34.52
1.62093	34.52
1.63760	34.52
1.65427	34.52
1.67093	34.52
1.68760	34.52
1.70427	34.52
1.72093	34.52
1.73760	34.52
1.75427	34.52
1.77093	34.52
1.78760	34.52
1.80427	34.52
1.82093	34.52
1.83760	34.52
1.85427	34.52
1.87093	34.52
1.88760	34.52
1.90427	34.52
1.92093	34.52
1.93760	34.52
1.95427	34.52
1.97093	34.52
1.98760	34.52
2.00427	34.52
2.02093	34.52
2.03760	34.52
2.05427	34.52
2.07093	34.52
2.08760	34.52
2.10427	34.52
2.12093	34.52
2.13760	34.52
2.15427	34.52
2.17093	34.52
2.18760	34.52
2.20427	34.52
2.22093	34.52
2.23760	34.52
2.25427	34.52
2.27093	34.52
2.28760	34.52
2.30427	34.52
2.32093	34.52
2.33760	34.52
2.35427	34.52
2.37093	34.52
2.38760	34.52
2.40427	34.52
2.42093	34.52
2.43760	34.52
2.45427	34.52
2.47093	34.52
2.48760	34.52
2.50427	34.64
2.52093	34.52
2.53760	34.52
2.55427	34.52
2.57093	34.52
2.58760	34.52
2.60427	34.52
2.62093	34.52
2.63760	34.52
2.65427	34.52
2.67093	34.52
2.68760	34.52
2.70427	34.52
2.72093	34.52
2.73760	34.52
2.75427	34.52
2.77093	34.52
2.78760	34.52
2.80427	34.52
2.82093	34.52
2.83760	34.52
2.85427	34.52
2.87093	34.52
2.88760	34.52
2.90427	34.52
2.92093	34.52
2.93760	34.52
2.95427	34.52
2.97093	34.52
2.98760	34.52
3.00427	34.52
3.02093	34.52
3.03760	34.52
3.05427	34.52
3.07093	34.52
3.08760	34.52
3.10427	34.52
3.12093	34.52
3.13760	34.52
3.15427	34.52
3.17093	34.52
3.18760	34.52
3.20427	34.52
3.22093	34.52
3.23760	34.52
3.25427	34.52
3.27093	34.52
3.28760	34.52
3.30427	34.52
3.32093	34.52
3.33760	34.52
3.35427	34.52
3.37093	34.52
3.38760	34.52
3.40427	34.52
3.42093	34.52
3.43760	34.52
3.45427	34.52
3.47093	34.52
3.48760	34.52
3.50427	34.52
3.52093	34.52
3.53760	34.52
3.55427	34.52
3.57093	34.52
3.58760	34.52
3.60427	34.52
3.62093	34.52
3.63760	34.52
3.65427	34.52
3.67093	34.52
3.68760	34.52
3.70427	34.52
3.72093	34.52
3.73760	34.52
3.75427	34.52
3.77093	34.52
3.78760	34.52
3.80427	34.52
3.82093	34.52
3.83760	34.52
3.85427	34.52
3.87093	34.52
3.88760	34.52
3.90427	34.52
3.92093	34.52
3.93760	34.52
3.95427	34.52
3.97093	34.52
3.98760	34.52

[Status Trace (Column Flow)]
Interval(msec)	1000
# of Points	240
Start Time(min)	0.004
End Time(min)	3.988
Intensity Units	
Intensity Multiplier	1
R.Time (min)	Intensity
0.00427	5.49
0.02093	5.26
0.03760	5.33
0.05427	5.57
0.07093	5.71
0.08760	5.52
0.10427	5.49
0.12093	5.49
0.13760	5.49
0.15427	5.49
0.17093	5.49
0.18760	5.49
0.20427	5.49
0.22093	5.49
0.23760	5.49
0.25427	5.50
0.27093	5.49
0.28760	5.49
0.30427	5.49
0.32093	5.49
0.33760	5.49
0.35427	5.49
0.37093	5.49
0.38760	5.49
0.40427	5.49
0.42093	5.49
0.43760	5.49
0.45427	5.49
0.47093	5.49
0.48760	5.49
0.50427	5.49
0.52093	5.49
0.53760	5.50
0.55427	5.50
0.57093	5.50
0.58760	5.50
0.60427	5.50
0.62093	5.50
0.63760	5.50
0.65427	5.50
0.67093	5.50
0.68760	5.50
0.70427	5.50
0.72093	5.49
0.73760	5.49
0.75427	5.49
0.77093	5.49
0.78760	5.49
0.80427	5.49
0.82093	5.49
0.83760	5.49
0.85427	5.49
0.87093	5.50
0.88760	5.50
0.90427	5.50
0.92093	5.50
0.93760	5.50
0.95427	5.50
0.97093	5.49
0.98760	5.49
1.00427	5.49
1.02093	5.49
1.03760	5.49
1.05427	5.49
1.07093	5.49
1.08760	5.49
1.10427	5.49
1.12093	5.49
1.13760	5.49
1.15427	5.49
1.17093	5.49
1.18760	5.49
1.20427	5.49
1.22093	5.49
1.23760	5.49
1.25427	5.49
1.27093	5.49
1.28760	5.49
1.30427	5.49
1.32093	5.49
1.33760	5.49
1.35427	5.49
1.37093	5.49
1.38760	5.49
1.40427	5.49
1.42093	5.49
1.43760	5.49
1.45427	5.49
1.47093	5.50
1.48760	5.50
1.50427	5.49
1.52093	5.49
1.53760	5.49
1.55427	5.49
1.57093	5.49
1.58760	5.49
1.60427	5.49
1.62093	5.49
1.63760	5.49
1.65427	5.48
1.67093	5.47
1.68760	5.46
1.70427	5.45
1.72093	5.43
1.73760	5.42
1.75427	5.41
1.77093	5.40
1.78760	5.39
1.80427	5.38
1.82093	5.37
1.83760	5.36
1.85427	5.35
1.87093	5.34
1.88760	5.33
1.90427	5.32
1.92093	5.31
1.93760	5.30
1.95427	5.29
1.97093	5.28
1.98760	5.28
2.00427	5.27
2.02093	5.26
2.03760	5.25
2.05427	5.24
2.07093	5.23
2.08760	5.22
2.10427	5.21
2.12093	5.20
2.13760	5.19
2.15427	5.18
2.17093	5.17
2.18760	5.16
2.20427	5.15
2.22093	5.14
2.23760	5.13
2.25427	5.13
2.27093	5.12
2.28760	5.11
2.30427	5.10
2.32093	5.09
2.33760	5.08
2.35427	5.07
2.37093	5.06
2.38760	5.06
2.40427	5.06
2.42093	5.06
2.43760	5.06
2.45427	5.06
2.47093	5.06
2.48760	5.06
2.50427	5.06
2.52093	5.06
2.53760	5.06
2.55427	5.06
2.57093	5.06
2.58760	5.06
2.60427	5.06
2.62093	5.06
2.63760	5.06
2.65427	5.06
2.67093	5.06
2.68760	5.06
2.70427	5.06
2.72093	5.06
2.73760	5.06
2.75427	5.06
2.77093	5.06
2.78760	5.06
2.80427	5.06
2.82093	5.06
2.83760	5.06
2.85427	5.06
2.87093	5.06
2.88760	5.06
2.90427	5.06
2.92093	5.05
2.93760	5.05
2.95427	5.05
2.97093	5.05
2.98760	5.05
3.00427	5.05
3.02093	5.05
3.03760	5.05
3.05427	5.05
3.07093	5.05
3.08760	5.05
3.10427	5.05
3.12093	5.05
3.13760	5.05
3.15427	5.05
3.17093	5.05
3.18760	5.05
3.20427	5.05
3.22093	5.05
3.23760	5.05
3.25427	5.05
3.27093	5.05
3.28760	5.05
3.30427	5.05
3.32093	5.05
3.33760	5.05
3.35427	5.05
3.37093	5.05
3.38760	5.05
3.40427	5.05
3.42093	5.05
3.43760	5.05
3.45427	5.05
3.47093	5.05
3.48760	5.05
3.50427	5.05
3.52093	5.05
3.53760	5.05
3.55427	5.05
3.57093	5.05
3.58760	5.05
3.60427	5.05
3.62093	5.05
3.63760	5.05
3.65427	5.05
3.67093	5.05
3.68760	5.05
3.70427	5.05
3.72093	5.05
3.73760	5.05
3.75427	5.05
3.77093	5.05
3.78760	5.05
3.80427	5.05
3.82093	5.05
3.83760	5.05
3.85427	5.05
3.87093	5.05
3.88760	5.05
3.90427	5.05
3.92093	5.05
3.93760	5.05
3.95427	5.05
3.97093	5.05
3.98760	5.05

[Status Trace (Linear Velocity)]
Interval(msec)	1000
# of Points	240
Start Time(min)	0.004
End Time(min)	3.988
Intensity Units	
Intensity Multiplier	1
R.Time (min)	Intensity
0.00427	39.01
0.02093	37.66
0.03760	38.08
0.05427	39.45
0.07093	40.22
0.08760	39.16
0.10427	38.98
0.12093	39.01
0.13760	39.02
0.15427	39.01
0.17093	39.01
0.18760	39.01
0.20427	39.01
0.22093	39.01
0.23760	39.01
0.25427	39.01
0.27093	39.01
0.28760	39.01
0.30427	39.01
0.32093	39.01
0.33760	39.01
0.35427	39.01
0.37093	39.01
0.38760	39.01
0.40427	39.01
0.42093	39.01
0.43760	39.01
0.45427	39.01
0.47093	39.01
0.48760	39.01
0.50427	39.01
0.52093	39.01
0.53760	39.01
0.55427	39.01
0.57093	39.02
0.58760	39.02
0.60427	39.02
0.62093	39.02
0.63760	39.02
0.65427	39.02
0.67093	39.02
0.68760	39.02
0.70427	39.01
0.72093	39.01
0.73760	39.01
0.75427	39.01
0.77093	39.01
0.78760	39.01
0.80427	39.01
0.82093	39.01
0.83760	39.01
0.85427	39.01
0.87093	39.01
0.88760	39.02
0.90427	39.02
0.92093	39.01
0.93760	39.01
0.95427	39.01
0.97093	39.01
0.98760	39.01
1.00427	39.01
1.02093	39.01
1.03760	39.01
1.05427	39.01
1.07093	39.01
1.08760	39.01
1.10427	39.01
1.12093	39.01
1.13760	39.01
1.15427	39.01
1.17093	39.01
1.18760	39.01
1.20427	39.01
1.22093	39.01
1.23760	39.01
1.25427	39.01
1.27093	39.01
1.28760	39.01
1.30427	39.01
1.32093	39.01
1.33760	39.01
1.35427	39.01
1.37093	39.01
1.38760	39.01
1.40427	39.01
1.42093	39.01
1.43760	39.01
1.45427	39.01
1.47093	39.01
1.48760	39.02
1.50427	39.01
1.52093	39.01
1.53760	39.01
1.55427	39.01
1.57093	39.01
1.58760	39.01
1.60427	39.01
1.62093	39.00
1.63760	38.98
1.65427	38.96
1.67093	38.93
1.68760	38.90
1.70427	38.86
1.72093	38.83
1.73760	38.80
1.75427	38.76
1.77093	38.73
1.78760	38.70
1.80427	38.67
1.82093	38.64
1.83760	38.60
1.85427	38.57
1.87093	38.54
1.88760	38.51
1.90427	38.48
1.92093	38.45
1.93760	38.42
1.95427	38.39
1.97093	38.36
1.98760	38.33
2.00427	38.30
2.02093	38.27
2.03760	38.24
2.05427	38.21
2.07093	38.18
2.08760	38.15
2.10427	38.12
2.12093	38.09
2.13760	38.06
2.15427	38.03
2.17093	38.00
2.18760	37.97
2.20427	37.94
2.22093	37.91
2.23760	37.88
2.25427	37.86
2.27093	37.83
2.28760	37.80
2.30427	37.77
2.32093	37.74
2.33760	37.71
2.35427	37.68
2.37093	37.66
2.38760	37.65
2.40427	37.65
2.42093	37.65
2.43760	37.65
2.45427	37.65
2.47093	37.65
2.48760	37.65
2.50427	37.64
2.52093	37.64
2.53760	37.65
2.55427	37.65
2.57093	37.64
2.58760	37.64
2.60427	37.64
2.62093	37.64
2.63760	37.64
2.65427	37.64
2.67093	37.64
2.68760	37.64
2.70427	37.64
2.72093	37.64
2.73760	37.64
2.75427	37.64
2.77093	37.64
2.78760	37.64
2.80427	37.64
2.82093	37.64
2.83760	37.64
2.85427	37.64
2.87093	37.64
2.88760	37.64
2.90427	37.63
2.92093	37.63
2.93760	37.63
2.95427	37.63
2.97093	37.63
2.98760	37.63
3.00427	37.63
3.02093	37.63
3.03760	37.63
3.05427	37.62
3.07093	37.62
3.08760	37.62
3.10427	37.62
3.12093	37.62
3.13760	37.62
3.15427	37.62
3.17093	37.62
3.18760	37.62
3.20427	37.62
3.22093	37.62
3.23760	37.62
3.25427	37.62
3.27093	37.62
3.28760	37.62
3.30427	37.62
3.32093	37.62
3.33760	37.62
3.35427	37.62
3.37093	37.62
3.38760	37.62
3.40427	37.62
3.42093	37.62
3.43760	37.62
3.45427	37.62
3.47093	37.62
3.48760	37.62
3.50427	37.62
3.52093	37.62
3.53760	37.62
3.55427	37.62
3.57093	37.62
3.58760	37.62
3.60427	37.62
3.62093	37.62
3.63760	37.62
3.65427	37.62
3.67093	37.62
3.68760	37.62
3.70427	37.62
3.72093	37.62
3.73760	37.62
3.75427	37.62
3.77093	37.62
3.78760	37.62
3.80427	37.62
3.82093	37.62
3.83760	37.62
3.85427	37.62
3.87093	37.62
3.88760	37.62
3.90427	37.62
3.92093	37.62
3.93760	37.63
3.95427	37.63
3.97093	37.63
3.98760	37.63

