[Header]
Application Name	LabSolutions
Version	5.110
Data File Name	C:\Users\User\Desktop\GC Analyses\Jack\UIC Prairie Sampling\7.9.22\220909_060.gcd
Output Date	9/28/2022
Output Time	11:29:53 AM

[File Information]
Type	Data File
Generated	9/14/2022 12:36:47 PM
Generated by	System Administrator
Modified	9/14/2022 12:42:04 PM
Modified by	System Administrator

[Sample Information]
Operator Name	System Administrator
Acquired	9/14/2022 12:38:03 PM
Sample Type	1:Standard
Level	1
Sample Name	220909_Run
Sample ID	220909_Run
ISTD Amount1	1
ISTD Amount2	1
ISTD Amount3	1
ISTD Amount4	1
ISTD Amount5	1
ISTD Amount6	1
ISTD Amount7	1
ISTD Amount8	1
ISTD Amount9	1
ISTD Amount10	1
ISTD Amount11	1
ISTD Amount12	1
ISTD Amount13	1
ISTD Amount14	1
ISTD Amount15	1
ISTD Amount16	1
ISTD Amount17	1
ISTD Amount18	1
ISTD Amount19	1
ISTD Amount20	1
ISTD Amount21	1
ISTD Amount22	1
ISTD Amount23	1
ISTD Amount24	1
ISTD Amount25	1
ISTD Amount26	1
ISTD Amount27	1
ISTD Amount28	1
ISTD Amount29	1
ISTD Amount30	1
ISTD Amount31	1
ISTD Amount32	1
Sample Amount	1
Dilution Factor	1
Vial#	1
Injection Volume	1
Injection Count	1
Bar Code	

[Original Files]
Data File	C:\Users\User\Desktop\GC Analyses\Jack\220909\220909_060.gcd
Method File	C:\LabSolutions\Data\GHG_4min_2022\ghg3_togas_w_acet_4 min_new_int.gcm
Batch File	
Report Format File	c:\LabSolutions\System\DEFAULT.lsr

[File Description]


[Configuration]
Instrument Name	C0B7VH3-Instrument1
Instrument #	1
Line #	1
# of Detectors	3
Detector ID	DET#1	DET#2	DET#3
Detector Name	FID	PTCD	ECD
# of Channels	1	1	1

[Peak Table(Ch1)]
# of Peaks	3
Peak#	R.Time	I.Time	F.Time	Area	Height	A/H	Conc.	Mark	ID#	Name	k'	Plate #	Plate Ht.	Tailing	Resolution	Sep.Factor	Area Ratio	Height Ratio	Conc. %	Norm Conc.
1	1.476	1.435	1.538	18485	8270	2.235	100.000	   	1	CO	0.000	8306	18.059	1.186	0.000	0.000	0	0	16.667	16.667
2	1.571	1.538	1.615	4095	2119	1.933	100.000	 V 	2	CH4	0.065	11806	12.705	1.084	1.555	0.000	0	0	16.667	16.667
3	1.996	1.949	2.400	2908310	1422944	2.044	400.000	   	3	CO2	0.353	17508	8.568	1.252	7.198	5.462	0	0	66.667	66.667

[Peak Table(Ch2)]
# of Peaks	0

[Peak Table(Ch3)]
# of Peaks	2
Peak#	R.Time	I.Time	F.Time	Area	Height	A/H	Conc.	Mark	ID#	Name	k'	Plate #	Plate Ht.	Tailing	Resolution	Sep.Factor	Area Ratio	Height Ratio	Conc. %	Norm Conc.
1	2.590	2.088	2.645	4450	396	11.226	0.000	   			0.000	2466	60.817	0.553	0.000	0.000	0	0	0.000	0.000
2	2.880	2.653	3.947	33203	5316	6.245	1.000	   	1	N2O	0.112	11719	12.800	1.999	1.839	0.000	0	0	100.000	100.000

[Compound Results(Ch1)]
# of IDs	6
ID#	Name	R.Time	Area	Height	Conc.	Curve	3rd	2nd	1st	Constant	Area Ratio	Height Ratio	Conc. %	Norm Conc.
1	CO	1.476	18485	8270	100.000	Linear	0.000000e+00	0.000000e+00	1.848528e+002	0.000000e+00	0	0	16.667	16.667
2	CH4	1.571	4095	2119	100.000	Linear	0.000000e+00	0.000000e+00	4.095300e+001	0.000000e+00	0	0	16.667	16.667
3	CO2	1.996	2908310	1422944	400.000	Linear	0.000000e+00	0.000000e+00	7.270774e+003	0.000000e+00	0	0	66.667	66.667
4	Ethylene	0.000	0	0	0.000	Linear	0.000000e+00	0.000000e+00	0.000000e+00	0.000000e+00	0	0	0.000	0.000
5	Acetylene	0.000	0	0	0.000	Linear	0.000000e+00	0.000000e+00	0.000000e+00	0.000000e+00	0	0	0.000	0.000
6	Ethane	0.000	0	0	0.000	Linear	0.000000e+00	0.000000e+00	0.000000e+00	0.000000e+00	0	0	0.000	0.000

[Compound Results(Ch2)]
# of IDs	5
ID#	Name	R.Time	Area	Height	Conc.	Curve	3rd	2nd	1st	Constant	Area Ratio	Height Ratio	Conc. %	Norm Conc.
1	Hydrogen	0.000	0	0	0.000	Linear	0.000000e+00	0.000000e+00	0.000000e+00	0.000000e+00	0	0	0.000	0.000
2	Oxygen	0.000	0	0	0.000	Linear	0.000000e+00	0.000000e+00	0.000000e+00	0.000000e+00	0	0	0.000	0.000
3	Nitrogen	0.000	0	0	0.000	Linear	0.000000e+00	0.000000e+00	0.000000e+00	0.000000e+00	0	0	0.000	0.000
4	Methane	0.000	0	0	0.000	Linear	0.000000e+00	0.000000e+00	0.000000e+00	0.000000e+00	0	0	0.000	0.000
5	Carbon Monoxide	0.000	0	0	0.000	Linear	0.000000e+00	0.000000e+00	0.000000e+00	0.000000e+00	0	0	0.000	0.000

[Compound Results(Ch3)]
# of IDs	2
ID#	Name	R.Time	Area	Height	Conc.	Curve	3rd	2nd	1st	Constant	Area Ratio	Height Ratio	Conc. %	Norm Conc.
1	N2O	2.880	33203	5316	1.000	Linear	0.000000e+00	0.000000e+00	3.320332e+004	0.000000e+00	0	0	100.000	100.000
2	SF6	0.000	0	0	0.000	Linear	0.000000e+00	0.000000e+00	0.000000e+00	0.000000e+00	0	0	0.000	0.000

[Group Results(Ch1)]
# of Groups	0

[Group Results(Ch2)]
# of Groups	0

[Group Results(Ch3)]
# of Groups	0

[Chromatogram (Ch1)]
Interval(msec)	220
# of Points	1091
Start Time(min)	0.002
End Time(min)	3.998
R.Time (min)	Intensity
0.00167	14
0.00533	26
0.00900	30
0.01267	27
0.01633	25
0.02000	23
0.02367	22
0.02733	23
0.03100	22
0.03467	17
0.03833	11
0.04200	8
0.04567	7
0.04933	7
0.05300	3
0.05667	0
0.06033	-1
0.06400	-2
0.06767	-3
0.07133	-1
0.07500	0
0.07867	-1
0.08233	-2
0.08600	3
0.08967	11
0.09333	17
0.09700	20
0.10067	16
0.10433	8
0.10800	-2
0.11167	-12
0.11533	-20
0.11900	-23
0.12267	-23
0.12633	-22
0.13000	-19
0.13367	-15
0.13733	-12
0.14100	-7
0.14467	-3
0.14833	-1
0.15200	-0
0.15567	2
0.15933	7
0.16300	10
0.16667	10
0.17033	8
0.17400	9
0.17767	11
0.18133	12
0.18500	13
0.18867	11
0.19233	10
0.19600	12
0.19967	15
0.20333	15
0.20700	13
0.21067	12
0.21433	11
0.21800	11
0.22167	15
0.22533	22
0.22900	28
0.23267	27
0.23633	21
0.24000	14
0.24367	8
0.24733	3
0.25100	-1
0.25467	-2
0.25833	-2
0.26200	-4
0.26567	-6
0.26933	-7
0.27300	-8
0.27667	-10
0.28033	-13
0.28400	-16
0.28767	-15
0.29133	-11
0.29500	-4
0.29867	1
0.30233	6
0.30600	11
0.30967	12
0.31333	9
0.31700	6
0.32067	7
0.32433	13
0.32800	18
0.33167	18
0.33533	14
0.33900	9
0.34267	6
0.34633	0
0.35000	-6
0.35367	-8
0.35733	-6
0.36100	-7
0.36467	-8
0.36833	-6
0.37200	-4
0.37567	-3
0.37933	-5
0.38300	-4
0.38667	-0
0.39033	4
0.39400	6
0.39767	6
0.40133	6
0.40500	6
0.40867	3
0.41233	-2
0.41600	-6
0.41967	-8
0.42333	-11
0.42700	-14
0.43067	-17
0.43433	-20
0.43800	-19
0.44167	-13
0.44533	-5
0.44900	2
0.45267	4
0.45633	3
0.46000	1
0.46367	-2
0.46733	-5
0.47100	-6
0.47467	-6
0.47833	-10
0.48200	-14
0.48567	-16
0.48933	-15
0.49300	-14
0.49667	-14
0.50033	-14
0.50400	-12
0.50767	-9
0.51133	-8
0.51500	-11
0.51867	-13
0.52233	-13
0.52600	-12
0.52967	-13
0.53333	-14
0.53700	-14
0.54067	-11
0.54433	-5
0.54800	1
0.55167	2
0.55533	-2
0.55900	-5
0.56267	-9
0.56633	-12
0.57000	-13
0.57367	-9
0.57733	-3
0.58100	-1
0.58467	-2
0.58833	-6
0.59200	-10
0.59567	-13
0.59933	-19
0.60300	-28
0.60667	-33
0.61033	-34
0.61400	-31
0.61767	-26
0.62133	-22
0.62500	-22
0.62867	-26
0.63233	-34
0.63600	-39
0.63967	-39
0.64333	-36
0.64700	-33
0.65067	-28
0.65433	-23
0.65800	-20
0.66167	-32
0.66533	-39
0.66900	-31
0.67267	-24
0.67633	-20
0.68000	-15
0.68367	-11
0.68733	-8
0.69100	-8
0.69467	-10
0.69833	-17
0.70200	-25
0.70567	-31
0.70933	-36
0.71300	-37
0.71667	-34
0.72033	-36
0.72400	-40
0.72767	-44
0.73133	-45
0.73500	-43
0.73867	-41
0.74233	-39
0.74600	-37
0.74967	-34
0.75333	-33
0.75700	-35
0.76067	-39
0.76433	-40
0.76800	-37
0.77167	-35
0.77533	-33
0.77900	-27
0.78267	-22
0.78633	-22
0.79000	-27
0.79367	-33
0.79733	-38
0.80100	-42
0.80467	-45
0.80833	-47
0.81200	-44
0.81567	-40
0.81933	-36
0.82300	-31
0.82667	-27
0.83033	-25
0.83400	-27
0.83767	-29
0.84133	-33
0.84500	-35
0.84867	-37
0.85233	-38
0.85600	-35
0.85967	-32
0.86333	-30
0.86700	-29
0.87067	-27
0.87433	-26
0.87800	-31
0.88167	-41
0.88533	-51
0.88900	-60
0.89267	-67
0.89633	-70
0.90000	-69
0.90367	-65
0.90733	-59
0.91100	-55
0.91467	-54
0.91833	-54
0.92200	-50
0.92567	-43
0.92933	-38
0.93300	-38
0.93667	-40
0.94033	-44
0.94400	-52
0.94767	-60
0.95133	-64
0.95500	-67
0.95867	-67
0.96233	-63
0.96600	-59
0.96967	-56
0.97333	-55
0.97700	-54
0.98067	-52
0.98433	-51
0.98800	-51
0.99167	-52
0.99533	-53
0.99900	-54
1.00267	-57
1.00633	-60
1.01000	-61
1.01367	-60
1.01733	-58
1.02100	-58
1.02467	-59
1.02833	-61
1.03200	-64
1.03567	-65
1.03933	-65
1.04300	-66
1.04667	-67
1.05033	-70
1.05400	-68
1.05767	-62
1.06133	-57
1.06500	-56
1.06867	-58
1.07233	-61
1.07600	-61
1.07967	-60
1.08333	-58
1.08700	-57
1.09067	-56
1.09433	-54
1.09800	-51
1.10167	-50
1.10533	-53
1.10900	-61
1.11267	-71
1.11633	-75
1.12000	-72
1.12367	-67
1.12733	-61
1.13100	-60
1.13467	-64
1.13833	-71
1.14200	-78
1.14567	-83
1.14933	-82
1.15300	-79
1.15667	-76
1.16033	-73
1.16400	-70
1.16767	-66
1.17133	-63
1.17500	-64
1.17867	-67
1.18233	-72
1.18600	-77
1.18967	-80
1.19333	-81
1.19700	-83
1.20067	-85
1.20433	-85
1.20800	-79
1.21167	-68
1.21533	-56
1.21900	-52
1.22267	-56
1.22633	-67
1.23000	-79
1.23367	-89
1.23733	-90
1.24100	-87
1.24467	-85
1.24833	-84
1.25200	-81
1.25567	-76
1.25933	-72
1.26300	-72
1.26667	-73
1.27033	-72
1.27400	-72
1.27767	-76
1.28133	-82
1.28500	-86
1.28867	-85
1.29233	-80
1.29600	-77
1.29967	-76
1.30333	-75
1.30700	-71
1.31067	-64
1.31433	-60
1.31800	-60
1.32167	-63
1.32533	-67
1.32900	-71
1.33267	-78
1.33633	-87
1.34000	-93
1.34367	-96
1.34733	-95
1.35100	-90
1.35467	-84
1.35833	-75
1.36200	-66
1.36567	-66
1.36933	-73
1.37300	-78
1.37667	-78
1.38033	-78
1.38400	-81
1.38767	-84
1.39133	-84
1.39500	-83
1.39867	-80
1.40233	-77
1.40600	-75
1.40967	-74
1.41333	-74
1.41700	-76
1.42067	-85
1.42433	-96
1.42800	-103
1.43167	-105
1.43533	-99
1.43900	-65
1.44267	85
1.44633	504
1.45000	1256
1.45367	2365
1.45733	3774
1.46100	5254
1.46467	6549
1.46833	7509
1.47200	8062
1.47567	8167
1.47933	7811
1.48300	7042
1.48667	5981
1.49033	4808
1.49400	3689
1.49767	2725
1.50133	1953
1.50500	1365
1.50867	932
1.51233	619
1.51600	399
1.51967	244
1.52333	137
1.52700	61
1.53067	5
1.53433	-38
1.53800	-63
1.54167	-39
1.54533	92
1.54900	367
1.55267	757
1.55633	1175
1.56000	1545
1.56367	1826
1.56733	1989
1.57100	2007
1.57467	1864
1.57833	1585
1.58200	1236
1.58567	889
1.58933	592
1.59300	360
1.59667	192
1.60033	74
1.60400	-8
1.60767	-64
1.61133	-98
1.61500	-116
1.61867	-122
1.62233	-121
1.62600	-118
1.62967	-119
1.63333	-126
1.63700	-136
1.64067	-139
1.64433	-138
1.64800	-137
1.65167	-138
1.65533	-139
1.65900	-138
1.66267	-138
1.66633	-141
1.67000	-142
1.67367	-142
1.67733	-142
1.68100	-143
1.68467	-144
1.68833	-142
1.69200	-137
1.69567	-133
1.69933	-129
1.70300	-129
1.70667	-131
1.71033	-132
1.71400	-130
1.71767	-129
1.72133	-129
1.72500	-127
1.72867	-123
1.73233	-119
1.73600	-114
1.73967	-113
1.74333	-113
1.74700	-112
1.75067	-109
1.75433	-108
1.75800	-113
1.76167	-120
1.76533	-124
1.76900	-124
1.77267	-122
1.77633	-118
1.78000	-112
1.78367	-107
1.78733	-106
1.79100	-108
1.79467	-112
1.79833	-113
1.80200	-111
1.80567	-110
1.80933	-110
1.81300	-111
1.81667	-110
1.82033	-107
1.82400	-104
1.82767	-107
1.83133	-114
1.83500	-119
1.83867	-121
1.84233	-120
1.84600	-112
1.84967	-106
1.85333	-106
1.85700	-111
1.86067	-118
1.86433	-124
1.86800	-125
1.87167	-122
1.87533	-117
1.87900	-113
1.88267	-110
1.88633	-110
1.89000	-111
1.89367	-111
1.89733	-108
1.90100	-101
1.90467	-95
1.90833	-93
1.91200	-96
1.91567	-103
1.91933	-112
1.92300	-120
1.92667	-123
1.93033	-121
1.93400	-116
1.93767	-115
1.94133	-118
1.94500	-120
1.94867	-115
1.95233	-84
1.95600	135
1.95967	1449
1.96333	7642
1.96700	29789
1.97067	90322
1.97433	217375
1.97800	423444
1.98167	687413
1.98533	962455
1.98900	1199181
1.99267	1359654
1.99633	1422852
2.00000	1384651
2.00367	1258195
2.00733	1071384
2.01100	859373
2.01467	654008
2.01833	476595
2.02200	335956
2.02567	231339
2.02933	157007
2.03300	105865
2.03667	71425
2.04033	48530
2.04400	33402
2.04767	23412
2.05133	16781
2.05500	12335
2.05867	9311
2.06233	7213
2.06600	5729
2.06967	4661
2.07333	3874
2.07700	3278
2.08067	2818
2.08433	2451
2.08800	2153
2.09167	1911
2.09533	1716
2.09900	1561
2.10267	1432
2.10633	1319
2.11000	1220
2.11367	1131
2.11733	1052
2.12100	982
2.12467	921
2.12833	868
2.13200	817
2.13567	768
2.13933	725
2.14300	687
2.14667	654
2.15033	624
2.15400	599
2.15767	579
2.16133	559
2.16500	539
2.16867	517
2.17233	494
2.17600	475
2.17967	457
2.18333	441
2.18700	422
2.19067	403
2.19433	384
2.19800	368
2.20167	358
2.20533	352
2.20900	343
2.21267	333
2.21633	325
2.22000	321
2.22367	317
2.22733	312
2.23100	310
2.23467	305
2.23833	297
2.24200	288
2.24567	277
2.24933	265
2.25300	255
2.25667	247
2.26033	243
2.26400	237
2.26767	224
2.27133	209
2.27500	196
2.27867	185
2.28233	181
2.28600	180
2.28967	177
2.29333	173
2.29700	169
2.30067	166
2.30433	164
2.30800	164
2.31167	165
2.31533	165
2.31900	163
2.32267	159
2.32633	153
2.33000	150
2.33367	149
2.33733	147
2.34100	144
2.34467	141
2.34833	138
2.35200	138
2.35567	139
2.35933	141
2.36300	142
2.36667	139
2.37033	131
2.37400	122
2.37767	120
2.38133	125
2.38500	125
2.38867	120
2.39233	113
2.39600	109
2.39967	104
2.40333	100
2.40700	100
2.41067	101
2.41433	103
2.41800	105
2.42167	108
2.42533	109
2.42900	109
2.43267	106
2.43633	104
2.44000	106
2.44367	105
2.44733	102
2.45100	98
2.45467	93
2.45833	84
2.46200	75
2.46567	71
2.46933	73
2.47300	75
2.47667	76
2.48033	76
2.48400	75
2.48767	75
2.49133	74
2.49500	73
2.49867	71
2.50233	65
2.50600	60
2.50967	56
2.51333	52
2.51700	49
2.52067	50
2.52433	55
2.52800	59
2.53167	61
2.53533	62
2.53900	60
2.54267	57
2.54633	54
2.55000	52
2.55367	48
2.55733	41
2.56100	39
2.56467	42
2.56833	45
2.57200	45
2.57567	43
2.57933	43
2.58300	42
2.58667	39
2.59033	37
2.59400	35
2.59767	32
2.60133	29
2.60500	26
2.60867	23
2.61233	22
2.61600	21
2.61967	17
2.62333	10
2.62700	3
2.63067	4
2.63433	12
2.63800	23
2.64167	33
2.64533	39
2.64900	38
2.65267	30
2.65633	19
2.66000	10
2.66367	3
2.66733	-4
2.67100	-10
2.67467	-14
2.67833	-16
2.68200	-17
2.68567	-18
2.68933	-16
2.69300	-14
2.69667	-9
2.70033	-7
2.70400	-7
2.70767	-3
2.71133	2
2.71500	6
2.71867	6
2.72233	7
2.72600	7
2.72967	4
2.73333	1
2.73700	2
2.74067	4
2.74433	2
2.74800	2
2.75167	1
2.75533	-2
2.75900	-6
2.76267	-6
2.76633	-4
2.77000	-1
2.77367	1
2.77733	-0
2.78100	-6
2.78467	-11
2.78833	-15
2.79200	-15
2.79567	-11
2.79933	-7
2.80300	-8
2.80667	-10
2.81033	-12
2.81400	-13
2.81767	-13
2.82133	-11
2.82500	-8
2.82867	-6
2.83233	-6
2.83600	-6
2.83967	-7
2.84333	-9
2.84700	-11
2.85067	-16
2.85433	-22
2.85800	-27
2.86167	-30
2.86533	-29
2.86900	-27
2.87267	-23
2.87633	-19
2.88000	-19
2.88367	-22
2.88733	-23
2.89100	-24
2.89467	-26
2.89833	-28
2.90200	-30
2.90567	-29
2.90933	-26
2.91300	-22
2.91667	-17
2.92033	-16
2.92400	-15
2.92767	-13
2.93133	-14
2.93500	-19
2.93867	-27
2.94233	-33
2.94600	-34
2.94967	-31
2.95333	-30
2.95700	-29
2.96067	-31
2.96433	-30
2.96800	-28
2.97167	-30
2.97533	-32
2.97900	-33
2.98267	-33
2.98633	-29
2.99000	-23
2.99367	-17
2.99733	-13
3.00100	-14
3.00467	-17
3.00833	-17
3.01200	-14
3.01567	-13
3.01933	-13
3.02300	-12
3.02667	-13
3.03033	-13
3.03400	-17
3.03767	-26
3.04133	-25
3.04500	-22
3.04867	-23
3.05233	-23
3.05600	-22
3.05967	-17
3.06333	-10
3.06700	-7
3.07067	-12
3.07433	-19
3.07800	-25
3.08167	-28
3.08533	-30
3.08900	-30
3.09267	-30
3.09633	-29
3.10000	-29
3.10367	-29
3.10733	-30
3.11100	-30
3.11467	-29
3.11833	-29
3.12200	-31
3.12567	-37
3.12933	-43
3.13300	-43
3.13667	-40
3.14033	-34
3.14400	-29
3.14767	-28
3.15133	-28
3.15500	-28
3.15867	-24
3.16233	-24
3.16600	-29
3.16967	-34
3.17333	-36
3.17700	-36
3.18067	-36
3.18433	-38
3.18800	-42
3.19167	-43
3.19533	-44
3.19900	-44
3.20267	-44
3.20633	-43
3.21000	-43
3.21367	-46
3.21733	-51
3.22100	-56
3.22467	-57
3.22833	-54
3.23200	-49
3.23567	-44
3.23933	-40
3.24300	-37
3.24667	-39
3.25033	-41
3.25400	-38
3.25767	-31
3.26133	-24
3.26500	-23
3.26867	-26
3.27233	-29
3.27600	-31
3.27967	-35
3.28333	-38
3.28700	-40
3.29067	-42
3.29433	-44
3.29800	-45
3.30167	-47
3.30533	-48
3.30900	-46
3.31267	-42
3.31633	-37
3.32000	-35
3.32367	-37
3.32733	-41
3.33100	-43
3.33467	-45
3.33833	-49
3.34200	-50
3.34567	-50
3.34933	-49
3.35300	-48
3.35667	-47
3.36033	-45
3.36400	-44
3.36767	-41
3.37133	-37
3.37500	-36
3.37867	-34
3.38233	-32
3.38600	-27
3.38967	-26
3.39333	-27
3.39700	-29
3.40067	-33
3.40433	-39
3.40800	-43
3.41167	-43
3.41533	-42
3.41900	-40
3.42267	-38
3.42633	-38
3.43000	-38
3.43367	-38
3.43733	-38
3.44100	-41
3.44467	-44
3.44833	-47
3.45200	-53
3.45567	-61
3.45933	-63
3.46300	-60
3.46667	-59
3.47033	-59
3.47400	-58
3.47767	-55
3.48133	-54
3.48500	-53
3.48867	-51
3.49233	-50
3.49600	-46
3.49967	-41
3.50333	-38
3.50700	-40
3.51067	-41
3.51433	-42
3.51800	-43
3.52167	-41
3.52533	-34
3.52900	-27
3.53267	-22
3.53633	-18
3.54000	-14
3.54367	-13
3.54733	-17
3.55100	-27
3.55467	-40
3.55833	-52
3.56200	-59
3.56567	-63
3.56933	-66
3.57300	-66
3.57667	-62
3.58033	-55
3.58400	-43
3.58767	-32
3.59133	-29
3.59500	-34
3.59867	-41
3.60233	-47
3.60600	-51
3.60967	-53
3.61333	-54
3.61700	-56
3.62067	-57
3.62433	-55
3.62800	-50
3.63167	-46
3.63533	-43
3.63900	-41
3.64267	-40
3.64633	-39
3.65000	-39
3.65367	-40
3.65733	-44
3.66100	-50
3.66467	-58
3.66833	-67
3.67200	-73
3.67567	-74
3.67933	-71
3.68300	-66
3.68667	-58
3.69033	-51
3.69400	-49
3.69767	-49
3.70133	-48
3.70500	-45
3.70867	-42
3.71233	-39
3.71600	-38
3.71967	-42
3.72333	-47
3.72700	-49
3.73067	-48
3.73433	-46
3.73800	-48
3.74167	-52
3.74533	-55
3.74900	-53
3.75267	-52
3.75633	-54
3.76000	-55
3.76367	-55
3.76733	-52
3.77100	-47
3.77467	-43
3.77833	-40
3.78200	-36
3.78567	-35
3.78933	-39
3.79300	-45
3.79667	-48
3.80033	-47
3.80400	-47
3.80767	-46
3.81133	-40
3.81500	-34
3.81867	-29
3.82233	-24
3.82600	-17
3.82967	-16
3.83333	-24
3.83700	-35
3.84067	-45
3.84433	-50
3.84800	-51
3.85167	-50
3.85533	-48
3.85900	-50
3.86267	-54
3.86633	-56
3.87000	-54
3.87367	-55
3.87733	-58
3.88100	-57
3.88467	-54
3.88833	-52
3.89200	-53
3.89567	-54
3.89933	-53
3.90300	-52
3.90667	-48
3.91033	-40
3.91400	-34
3.91767	-32
3.92133	-32
3.92500	-33
3.92867	-36
3.93233	-38
3.93600	-39
3.93967	-36
3.94333	-32
3.94700	-28
3.95067	-27
3.95433	-28
3.95800	-35
3.96167	-45
3.96533	-56
3.96900	-64
3.97267	-67
3.97633	-64
3.98000	-60
3.98367	-58
3.98733	-55
3.99100	-49
3.99467	-40
3.99833	-32

[Chromatogram (Ch2)]
Interval(msec)	220
# of Points	1091
Start Time(min)	0.002
End Time(min)	3.998
R.Time (min)	Intensity
0.00167	0
0.00533	0
0.00900	-0
0.01267	-0
0.01633	-0
0.02000	-1
0.02367	-1
0.02733	-1
0.03100	-2
0.03467	-3
0.03833	-3
0.04200	-4
0.04567	-4
0.04933	-5
0.05300	-5
0.05667	-5
0.06033	-6
0.06400	-6
0.06767	-6
0.07133	-6
0.07500	-7
0.07867	-7
0.08233	-7
0.08600	-8
0.08967	-8
0.09333	-8
0.09700	-8
0.10067	-7
0.10433	-6
0.10800	-6
0.11167	-5
0.11533	-4
0.11900	-4
0.12267	-4
0.12633	-3
0.13000	-3
0.13367	-3
0.13733	-2
0.14100	-2
0.14467	-2
0.14833	-2
0.15200	-2
0.15567	-2
0.15933	-2
0.16300	-2
0.16667	-2
0.17033	-2
0.17400	-2
0.17767	-2
0.18133	-2
0.18500	-1
0.18867	-1
0.19233	-1
0.19600	-1
0.19967	-1
0.20333	-1
0.20700	-1
0.21067	-1
0.21433	-1
0.21800	-1
0.22167	-1
0.22533	-2
0.22900	-2
0.23267	-2
0.23633	-3
0.24000	-3
0.24367	-4
0.24733	-4
0.25100	-5
0.25467	-5
0.25833	-6
0.26200	-6
0.26567	-6
0.26933	-6
0.27300	-6
0.27667	-7
0.28033	-7
0.28400	-6
0.28767	-6
0.29133	-6
0.29500	-6
0.29867	-6
0.30233	-5
0.30600	-5
0.30967	-5
0.31333	-5
0.31700	-6
0.32067	-6
0.32433	-6
0.32800	-7
0.33167	-7
0.33533	-7
0.33900	-7
0.34267	-7
0.34633	-7
0.35000	-6
0.35367	-6
0.35733	-6
0.36100	-6
0.36467	-6
0.36833	-6
0.37200	-5
0.37567	-5
0.37933	-5
0.38300	-4
0.38667	-4
0.39033	-4
0.39400	-4
0.39767	-3
0.40133	-3
0.40500	-3
0.40867	-3
0.41233	-3
0.41600	-3
0.41967	-3
0.42333	-3
0.42700	-3
0.43067	-3
0.43433	-3
0.43800	-3
0.44167	-3
0.44533	-3
0.44900	-3
0.45267	-3
0.45633	-3
0.46000	-3
0.46367	-4
0.46733	-4
0.47100	-4
0.47467	-4
0.47833	-4
0.48200	-4
0.48567	-4
0.48933	-4
0.49300	-4
0.49667	-3
0.50033	-3
0.50400	-3
0.50767	-3
0.51133	-3
0.51500	-3
0.51867	-3
0.52233	-4
0.52600	-4
0.52967	-4
0.53333	-4
0.53700	-4
0.54067	-5
0.54433	-5
0.54800	-5
0.55167	-5
0.55533	-6
0.55900	-6
0.56267	-6
0.56633	-6
0.57000	-7
0.57367	-7
0.57733	-7
0.58100	-7
0.58467	-8
0.58833	-8
0.59200	-8
0.59567	-8
0.59933	-8
0.60300	-8
0.60667	-8
0.61033	-8
0.61400	-7
0.61767	-7
0.62133	-7
0.62500	-7
0.62867	-7
0.63233	-7
0.63600	-7
0.63967	-7
0.64333	-7
0.64700	-7
0.65067	-7
0.65433	-7
0.65800	-6
0.66167	-6
0.66533	-6
0.66900	-6
0.67267	-6
0.67633	-6
0.68000	-6
0.68367	-6
0.68733	-6
0.69100	-6
0.69467	-6
0.69833	-6
0.70200	-6
0.70567	-7
0.70933	-7
0.71300	-7
0.71667	-7
0.72033	-7
0.72400	-7
0.72767	-8
0.73133	-8
0.73500	-8
0.73867	-8
0.74233	-8
0.74600	-7
0.74967	-7
0.75333	-7
0.75700	-7
0.76067	-7
0.76433	-7
0.76800	-8
0.77167	-8
0.77533	-8
0.77900	-9
0.78267	-9
0.78633	-10
0.79000	-10
0.79367	-10
0.79733	-10
0.80100	-10
0.80467	-9
0.80833	-9
0.81200	-9
0.81567	-9
0.81933	-9
0.82300	-8
0.82667	-8
0.83033	-8
0.83400	-8
0.83767	-8
0.84133	-8
0.84500	-7
0.84867	-7
0.85233	-7
0.85600	-7
0.85967	-7
0.86333	-7
0.86700	-7
0.87067	-7
0.87433	-7
0.87800	-7
0.88167	-7
0.88533	-7
0.88900	-7
0.89267	-7
0.89633	-7
0.90000	-7
0.90367	-7
0.90733	-7
0.91100	-7
0.91467	-7
0.91833	-7
0.92200	-7
0.92567	-7
0.92933	-6
0.93300	-6
0.93667	-6
0.94033	-6
0.94400	-6
0.94767	-6
0.95133	-6
0.95500	-6
0.95867	-6
0.96233	-6
0.96600	-6
0.96967	-6
0.97333	-6
0.97700	-6
0.98067	-5
0.98433	-5
0.98800	-6
0.99167	-6
0.99533	-6
0.99900	-6
1.00267	-6
1.00633	-7
1.01000	-7
1.01367	-7
1.01733	-7
1.02100	-7
1.02467	-7
1.02833	-7
1.03200	-7
1.03567	-7
1.03933	-8
1.04300	-8
1.04667	-8
1.05033	-8
1.05400	-8
1.05767	-7
1.06133	-7
1.06500	-7
1.06867	-7
1.07233	-7
1.07600	-6
1.07967	-6
1.08333	-6
1.08700	-6
1.09067	-6
1.09433	-6
1.09800	-6
1.10167	-6
1.10533	-6
1.10900	-5
1.11267	-5
1.11633	-5
1.12000	-5
1.12367	-5
1.12733	-5
1.13100	-6
1.13467	-6
1.13833	-6
1.14200	-6
1.14567	-6
1.14933	-6
1.15300	-6
1.15667	-6
1.16033	-5
1.16400	-5
1.16767	-5
1.17133	-5
1.17500	-5
1.17867	-5
1.18233	-6
1.18600	-6
1.18967	-6
1.19333	-6
1.19700	-6
1.20067	-6
1.20433	-7
1.20800	-7
1.21167	-7
1.21533	-7
1.21900	-7
1.22267	-8
1.22633	-8
1.23000	-7
1.23367	-8
1.23733	-8
1.24100	-8
1.24467	-8
1.24833	-9
1.25200	-9
1.25567	-9
1.25933	-9
1.26300	-10
1.26667	-10
1.27033	-11
1.27400	-11
1.27767	-11
1.28133	-11
1.28500	-11
1.28867	-11
1.29233	-11
1.29600	-11
1.29967	-11
1.30333	-10
1.30700	-10
1.31067	-10
1.31433	-10
1.31800	-9
1.32167	-9
1.32533	-8
1.32900	-8
1.33267	-8
1.33633	-7
1.34000	-7
1.34367	-6
1.34733	-6
1.35100	-6
1.35467	-5
1.35833	-5
1.36200	-5
1.36567	-5
1.36933	-5
1.37300	-5
1.37667	-5
1.38033	-6
1.38400	-6
1.38767	-6
1.39133	-6
1.39500	-6
1.39867	-6
1.40233	-6
1.40600	-6
1.40967	-6
1.41333	-6
1.41700	-6
1.42067	-6
1.42433	-6
1.42800	-6
1.43167	-6
1.43533	-6
1.43900	-6
1.44267	-6
1.44633	-6
1.45000	-6
1.45367	-6
1.45733	-6
1.46100	-6
1.46467	-6
1.46833	-6
1.47200	-6
1.47567	-6
1.47933	-6
1.48300	-6
1.48667	-6
1.49033	-6
1.49400	-7
1.49767	-7
1.50133	-7
1.50500	-8
1.50867	-8
1.51233	-8
1.51600	-9
1.51967	-9
1.52333	-9
1.52700	-8
1.53067	-8
1.53433	-8
1.53800	-7
1.54167	-7
1.54533	-7
1.54900	-7
1.55267	-7
1.55633	-7
1.56000	-7
1.56367	-7
1.56733	-7
1.57100	-7
1.57467	-7
1.57833	-7
1.58200	-7
1.58567	-7
1.58933	-7
1.59300	-8
1.59667	-8
1.60033	-9
1.60400	-10
1.60767	-11
1.61133	-13
1.61500	-14
1.61867	-16
1.62233	-19
1.62600	-22
1.62967	-25
1.63333	-29
1.63700	-32
1.64067	-36
1.64433	-40
1.64800	-44
1.65167	-48
1.65533	-52
1.65900	-56
1.66267	-59
1.66633	-63
1.67000	-68
1.67367	-72
1.67733	-77
1.68100	-82
1.68467	-87
1.68833	-92
1.69200	-96
1.69567	-99
1.69933	-102
1.70300	-105
1.70667	-107
1.71033	-109
1.71400	-110
1.71767	-111
1.72133	-113
1.72500	-114
1.72867	-114
1.73233	-115
1.73600	-116
1.73967	-117
1.74333	-118
1.74700	-119
1.75067	-120
1.75433	-121
1.75800	-122
1.76167	-123
1.76533	-124
1.76900	-124
1.77267	-125
1.77633	-125
1.78000	-126
1.78367	-126
1.78733	-126
1.79100	-125
1.79467	-125
1.79833	-124
1.80200	-124
1.80567	-124
1.80933	-125
1.81300	-125
1.81667	-126
1.82033	-126
1.82400	-127
1.82767	-127
1.83133	-128
1.83500	-129
1.83867	-130
1.84233	-130
1.84600	-130
1.84967	-130
1.85333	-130
1.85700	-130
1.86067	-129
1.86433	-129
1.86800	-129
1.87167	-129
1.87533	-129
1.87900	-128
1.88267	-128
1.88633	-127
1.89000	-127
1.89367	-126
1.89733	-126
1.90100	-125
1.90467	-125
1.90833	-125
1.91200	-125
1.91567	-125
1.91933	-125
1.92300	-124
1.92667	-123
1.93033	-123
1.93400	-122
1.93767	-122
1.94133	-122
1.94500	-122
1.94867	-123
1.95233	-123
1.95600	-123
1.95967	-123
1.96333	-122
1.96700	-122
1.97067	-121
1.97433	-121
1.97800	-121
1.98167	-121
1.98533	-122
1.98900	-123
1.99267	-123
1.99633	-123
2.00000	-122
2.00367	-122
2.00733	-122
2.01100	-121
2.01467	-120
2.01833	-120
2.02200	-120
2.02567	-120
2.02933	-119
2.03300	-119
2.03667	-118
2.04033	-118
2.04400	-117
2.04767	-117
2.05133	-116
2.05500	-116
2.05867	-115
2.06233	-115
2.06600	-115
2.06967	-116
2.07333	-116
2.07700	-116
2.08067	-115
2.08433	-115
2.08800	-114
2.09167	-113
2.09533	-112
2.09900	-112
2.10267	-111
2.10633	-110
2.11000	-110
2.11367	-110
2.11733	-111
2.12100	-111
2.12467	-111
2.12833	-111
2.13200	-110
2.13567	-110
2.13933	-109
2.14300	-109
2.14667	-108
2.15033	-108
2.15400	-107
2.15767	-107
2.16133	-106
2.16500	-106
2.16867	-106
2.17233	-106
2.17600	-106
2.17967	-106
2.18333	-106
2.18700	-106
2.19067	-105
2.19433	-104
2.19800	-104
2.20167	-103
2.20533	-103
2.20900	-103
2.21267	-103
2.21633	-103
2.22000	-103
2.22367	-103
2.22733	-103
2.23100	-103
2.23467	-103
2.23833	-102
2.24200	-101
2.24567	-101
2.24933	-101
2.25300	-101
2.25667	-102
2.26033	-102
2.26400	-103
2.26767	-103
2.27133	-102
2.27500	-102
2.27867	-101
2.28233	-100
2.28600	-100
2.28967	-100
2.29333	-100
2.29700	-100
2.30067	-100
2.30433	-99
2.30800	-99
2.31167	-98
2.31533	-98
2.31900	-98
2.32267	-97
2.32633	-96
2.33000	-96
2.33367	-95
2.33733	-95
2.34100	-95
2.34467	-94
2.34833	-94
2.35200	-94
2.35567	-93
2.35933	-92
2.36300	-91
2.36667	-90
2.37033	-88
2.37400	-86
2.37767	-83
2.38133	-80
2.38500	-77
2.38867	-73
2.39233	-69
2.39600	-64
2.39967	-60
2.40333	-55
2.40700	-50
2.41067	-46
2.41433	-42
2.41800	-39
2.42167	-35
2.42533	-32
2.42900	-29
2.43267	-26
2.43633	-23
2.44000	-21
2.44367	-19
2.44733	-16
2.45100	-14
2.45467	-13
2.45833	-12
2.46200	-10
2.46567	-10
2.46933	-9
2.47300	-8
2.47667	-7
2.48033	-5
2.48400	-4
2.48767	-2
2.49133	-1
2.49500	0
2.49867	1
2.50233	1
2.50600	2
2.50967	2
2.51333	3
2.51700	4
2.52067	4
2.52433	5
2.52800	5
2.53167	5
2.53533	5
2.53900	5
2.54267	6
2.54633	6
2.55000	7
2.55367	8
2.55733	8
2.56100	8
2.56467	8
2.56833	8
2.57200	7
2.57567	7
2.57933	6
2.58300	6
2.58667	6
2.59033	6
2.59400	7
2.59767	8
2.60133	9
2.60500	10
2.60867	11
2.61233	11
2.61600	12
2.61967	12
2.62333	12
2.62700	12
2.63067	12
2.63433	12
2.63800	13
2.64167	13
2.64533	14
2.64900	14
2.65267	15
2.65633	15
2.66000	15
2.66367	15
2.66733	15
2.67100	15
2.67467	14
2.67833	14
2.68200	14
2.68567	14
2.68933	14
2.69300	15
2.69667	15
2.70033	16
2.70400	16
2.70767	17
2.71133	17
2.71500	18
2.71867	18
2.72233	19
2.72600	19
2.72967	20
2.73333	20
2.73700	20
2.74067	20
2.74433	19
2.74800	18
2.75167	18
2.75533	17
2.75900	16
2.76267	16
2.76633	16
2.77000	16
2.77367	16
2.77733	16
2.78100	16
2.78467	16
2.78833	16
2.79200	17
2.79567	17
2.79933	18
2.80300	18
2.80667	18
2.81033	18
2.81400	19
2.81767	19
2.82133	19
2.82500	19
2.82867	19
2.83233	20
2.83600	20
2.83967	19
2.84333	18
2.84700	16
2.85067	13
2.85433	6
2.85800	-3
2.86167	-16
2.86533	-32
2.86900	-53
2.87267	-78
2.87633	-106
2.88000	-139
2.88367	-175
2.88733	-215
2.89100	-257
2.89467	-302
2.89833	-349
2.90200	-398
2.90567	-448
2.90933	-498
2.91300	-548
2.91667	-598
2.92033	-648
2.92400	-697
2.92767	-745
2.93133	-793
2.93500	-843
2.93867	-898
2.94233	-959
2.94600	-1021
2.94967	-1072
2.95333	-1102
2.95700	-1104
2.96067	-1081
2.96433	-1035
2.96800	-972
2.97167	-899
2.97533	-819
2.97900	-738
2.98267	-659
2.98633	-583
2.99000	-512
2.99367	-447
2.99733	-388
3.00100	-336
3.00467	-289
3.00833	-248
3.01200	-212
3.01567	-181
3.01933	-154
3.02300	-131
3.02667	-111
3.03033	-93
3.03400	-78
3.03767	-66
3.04133	-55
3.04500	-46
3.04867	-38
3.05233	-31
3.05600	-25
3.05967	-20
3.06333	-16
3.06700	-13
3.07067	-10
3.07433	-7
3.07800	-4
3.08167	-2
3.08533	-1
3.08900	1
3.09267	2
3.09633	3
3.10000	4
3.10367	5
3.10733	6
3.11100	6
3.11467	7
3.11833	8
3.12200	9
3.12567	9
3.12933	9
3.13300	9
3.13667	9
3.14033	10
3.14400	10
3.14767	10
3.15133	10
3.15500	10
3.15867	11
3.16233	11
3.16600	11
3.16967	12
3.17333	12
3.17700	13
3.18067	13
3.18433	14
3.18800	14
3.19167	15
3.19533	15
3.19900	15
3.20267	16
3.20633	16
3.21000	16
3.21367	17
3.21733	17
3.22100	18
3.22467	18
3.22833	19
3.23200	19
3.23567	19
3.23933	19
3.24300	20
3.24667	20
3.25033	20
3.25400	20
3.25767	20
3.26133	20
3.26500	20
3.26867	20
3.27233	21
3.27600	21
3.27967	21
3.28333	21
3.28700	22
3.29067	22
3.29433	22
3.29800	22
3.30167	22
3.30533	23
3.30900	23
3.31267	23
3.31633	23
3.32000	22
3.32367	22
3.32733	21
3.33100	21
3.33467	21
3.33833	21
3.34200	20
3.34567	20
3.34933	20
3.35300	20
3.35667	20
3.36033	20
3.36400	20
3.36767	20
3.37133	20
3.37500	21
3.37867	21
3.38233	21
3.38600	21
3.38967	21
3.39333	22
3.39700	22
3.40067	22
3.40433	22
3.40800	22
3.41167	23
3.41533	23
3.41900	23
3.42267	22
3.42633	22
3.43000	22
3.43367	22
3.43733	22
3.44100	22
3.44467	22
3.44833	21
3.45200	21
3.45567	21
3.45933	21
3.46300	21
3.46667	21
3.47033	20
3.47400	20
3.47767	20
3.48133	20
3.48500	20
3.48867	20
3.49233	20
3.49600	20
3.49967	20
3.50333	20
3.50700	20
3.51067	20
3.51433	20
3.51800	20
3.52167	20
3.52533	20
3.52900	20
3.53267	20
3.53633	20
3.54000	20
3.54367	20
3.54733	20
3.55100	20
3.55467	20
3.55833	20
3.56200	20
3.56567	20
3.56933	20
3.57300	20
3.57667	20
3.58033	20
3.58400	20
3.58767	21
3.59133	21
3.59500	21
3.59867	21
3.60233	21
3.60600	21
3.60967	21
3.61333	21
3.61700	21
3.62067	21
3.62433	21
3.62800	21
3.63167	21
3.63533	21
3.63900	21
3.64267	21
3.64633	21
3.65000	21
3.65367	20
3.65733	20
3.66100	21
3.66467	21
3.66833	21
3.67200	21
3.67567	21
3.67933	21
3.68300	21
3.68667	21
3.69033	21
3.69400	21
3.69767	21
3.70133	20
3.70500	20
3.70867	20
3.71233	20
3.71600	20
3.71967	20
3.72333	20
3.72700	20
3.73067	20
3.73433	20
3.73800	20
3.74167	20
3.74533	20
3.74900	20
3.75267	20
3.75633	21
3.76000	21
3.76367	21
3.76733	21
3.77100	21
3.77467	21
3.77833	21
3.78200	21
3.78567	21
3.78933	21
3.79300	21
3.79667	20
3.80033	20
3.80400	20
3.80767	20
3.81133	20
3.81500	20
3.81867	20
3.82233	21
3.82600	21
3.82967	21
3.83333	20
3.83700	20
3.84067	20
3.84433	20
3.84800	20
3.85167	20
3.85533	20
3.85900	20
3.86267	20
3.86633	20
3.87000	20
3.87367	20
3.87733	20
3.88100	20
3.88467	20
3.88833	20
3.89200	20
3.89567	20
3.89933	21
3.90300	20
3.90667	21
3.91033	21
3.91400	21
3.91767	21
3.92133	21
3.92500	21
3.92867	21
3.93233	21
3.93600	21
3.93967	21
3.94333	21
3.94700	21
3.95067	22
3.95433	22
3.95800	22
3.96167	22
3.96533	22
3.96900	22
3.97267	22
3.97633	22
3.98000	22
3.98367	22
3.98733	22
3.99100	22
3.99467	22
3.99833	22

[Chromatogram (Ch3)]
Interval(msec)	220
# of Points	1091
Start Time(min)	0.002
End Time(min)	3.998
R.Time (min)	Intensity
0.00167	-0
0.00533	-1
0.00900	-3
0.01267	-3
0.01633	-4
0.02000	-4
0.02367	-2
0.02733	-1
0.03100	0
0.03467	3
0.03833	4
0.04200	3
0.04567	1
0.04933	1
0.05300	1
0.05667	4
0.06033	4
0.06400	4
0.06767	3
0.07133	3
0.07500	3
0.07867	3
0.08233	4
0.08600	2
0.08967	-1
0.09333	-1
0.09700	1
0.10067	-1
0.10433	-3
0.10800	-4
0.11167	-4
0.11533	-3
0.11900	-2
0.12267	1
0.12633	0
0.13000	-0
0.13367	-0
0.13733	1
0.14100	0
0.14467	-1
0.14833	-1
0.15200	-1
0.15567	0
0.15933	3
0.16300	4
0.16667	4
0.17033	5
0.17400	4
0.17767	4
0.18133	2
0.18500	2
0.18867	2
0.19233	3
0.19600	4
0.19967	4
0.20333	3
0.20700	4
0.21067	5
0.21433	4
0.21800	5
0.22167	5
0.22533	6
0.22900	9
0.23267	9
0.23633	8
0.24000	7
0.24367	8
0.24733	6
0.25100	5
0.25467	7
0.25833	10
0.26200	12
0.26567	9
0.26933	6
0.27300	5
0.27667	6
0.28033	8
0.28400	9
0.28767	7
0.29133	8
0.29500	9
0.29867	11
0.30233	10
0.30600	8
0.30967	7
0.31333	6
0.31700	6
0.32067	9
0.32433	13
0.32800	14
0.33167	14
0.33533	12
0.33900	11
0.34267	10
0.34633	9
0.35000	8
0.35367	8
0.35733	8
0.36100	8
0.36467	8
0.36833	7
0.37200	6
0.37567	8
0.37933	9
0.38300	11
0.38667	11
0.39033	9
0.39400	9
0.39767	10
0.40133	13
0.40500	14
0.40867	14
0.41233	13
0.41600	11
0.41967	9
0.42333	8
0.42700	9
0.43067	11
0.43433	13
0.43800	15
0.44167	17
0.44533	17
0.44900	17
0.45267	15
0.45633	16
0.46000	14
0.46367	14
0.46733	14
0.47100	15
0.47467	17
0.47833	19
0.48200	21
0.48567	21
0.48933	18
0.49300	16
0.49667	12
0.50033	11
0.50400	12
0.50767	14
0.51133	16
0.51500	17
0.51867	18
0.52233	18
0.52600	18
0.52967	19
0.53333	18
0.53700	16
0.54067	14
0.54433	16
0.54800	19
0.55167	20
0.55533	21
0.55900	20
0.56267	19
0.56633	20
0.57000	20
0.57367	20
0.57733	20
0.58100	21
0.58467	20
0.58833	19
0.59200	20
0.59567	22
0.59933	21
0.60300	18
0.60667	17
0.61033	17
0.61400	16
0.61767	16
0.62133	17
0.62500	18
0.62867	17
0.63233	17
0.63600	19
0.63967	21
0.64333	21
0.64700	20
0.65067	20
0.65433	19
0.65800	17
0.66167	18
0.66533	18
0.66900	15
0.67267	14
0.67633	16
0.68000	16
0.68367	15
0.68733	15
0.69100	16
0.69467	18
0.69833	19
0.70200	17
0.70567	17
0.70933	19
0.71300	20
0.71667	22
0.72033	21
0.72400	20
0.72767	20
0.73133	23
0.73500	23
0.73867	22
0.74233	24
0.74600	25
0.74967	25
0.75333	24
0.75700	23
0.76067	22
0.76433	22
0.76800	23
0.77167	23
0.77533	24
0.77900	24
0.78267	23
0.78633	22
0.79000	23
0.79367	24
0.79733	25
0.80100	27
0.80467	27
0.80833	26
0.81200	23
0.81567	22
0.81933	22
0.82300	22
0.82667	21
0.83033	20
0.83400	20
0.83767	22
0.84133	25
0.84500	27
0.84867	28
0.85233	26
0.85600	26
0.85967	26
0.86333	26
0.86700	23
0.87067	22
0.87433	22
0.87800	23
0.88167	26
0.88533	28
0.88900	29
0.89267	29
0.89633	28
0.90000	27
0.90367	25
0.90733	25
0.91100	24
0.91467	23
0.91833	25
0.92200	27
0.92567	27
0.92933	27
0.93300	27
0.93667	28
0.94033	28
0.94400	29
0.94767	30
0.95133	28
0.95500	27
0.95867	27
0.96233	27
0.96600	28
0.96967	27
0.97333	27
0.97700	27
0.98067	29
0.98433	30
0.98800	30
0.99167	29
0.99533	29
0.99900	29
1.00267	29
1.00633	28
1.01000	28
1.01367	30
1.01733	32
1.02100	31
1.02467	29
1.02833	29
1.03200	31
1.03567	33
1.03933	32
1.04300	31
1.04667	29
1.05033	29
1.05400	30
1.05767	29
1.06133	28
1.06500	30
1.06867	30
1.07233	30
1.07600	30
1.07967	31
1.08333	30
1.08700	30
1.09067	31
1.09433	31
1.09800	32
1.10167	31
1.10533	32
1.10900	32
1.11267	31
1.11633	31
1.12000	30
1.12367	29
1.12733	29
1.13100	30
1.13467	32
1.13833	34
1.14200	35
1.14567	35
1.14933	35
1.15300	33
1.15667	33
1.16033	33
1.16400	35
1.16767	33
1.17133	30
1.17500	28
1.17867	27
1.18233	28
1.18600	29
1.18967	31
1.19333	31
1.19700	32
1.20067	33
1.20433	34
1.20800	36
1.21167	35
1.21533	34
1.21900	33
1.22267	33
1.22633	34
1.23000	34
1.23367	33
1.23733	31
1.24100	30
1.24467	30
1.24833	31
1.25200	31
1.25567	32
1.25933	34
1.26300	35
1.26667	36
1.27033	37
1.27400	36
1.27767	33
1.28133	32
1.28500	34
1.28867	36
1.29233	36
1.29600	35
1.29967	34
1.30333	35
1.30700	35
1.31067	35
1.31433	33
1.31800	33
1.32167	33
1.32533	32
1.32900	31
1.33267	30
1.33633	30
1.34000	31
1.34367	32
1.34733	32
1.35100	32
1.35467	32
1.35833	33
1.36200	34
1.36567	35
1.36933	36
1.37300	36
1.37667	36
1.38033	35
1.38400	34
1.38767	35
1.39133	38
1.39500	39
1.39867	40
1.40233	40
1.40600	39
1.40967	39
1.41333	39
1.41700	39
1.42067	38
1.42433	37
1.42800	36
1.43167	38
1.43533	38
1.43900	37
1.44267	36
1.44633	35
1.45000	37
1.45367	38
1.45733	37
1.46100	36
1.46467	37
1.46833	37
1.47200	34
1.47567	31
1.47933	32
1.48300	32
1.48667	33
1.49033	33
1.49400	35
1.49767	34
1.50133	33
1.50500	31
1.50867	30
1.51233	32
1.51600	33
1.51967	35
1.52333	37
1.52700	37
1.53067	37
1.53433	36
1.53800	34
1.54167	33
1.54533	34
1.54900	36
1.55267	36
1.55633	37
1.56000	39
1.56367	40
1.56733	39
1.57100	37
1.57467	36
1.57833	36
1.58200	35
1.58567	36
1.58933	38
1.59300	39
1.59667	38
1.60033	37
1.60400	36
1.60767	37
1.61133	38
1.61500	37
1.61867	39
1.62233	39
1.62600	39
1.62967	39
1.63333	40
1.63700	39
1.64067	42
1.64433	43
1.64800	42
1.65167	45
1.65533	47
1.65900	46
1.66267	45
1.66633	45
1.67000	46
1.67367	47
1.67733	47
1.68100	47
1.68467	47
1.68833	46
1.69200	47
1.69567	50
1.69933	51
1.70300	51
1.70667	52
1.71033	54
1.71400	57
1.71767	59
1.72133	63
1.72500	64
1.72867	66
1.73233	65
1.73600	65
1.73967	63
1.74333	61
1.74700	62
1.75067	62
1.75433	62
1.75800	62
1.76167	62
1.76533	62
1.76900	63
1.77267	65
1.77633	69
1.78000	72
1.78367	71
1.78733	72
1.79100	74
1.79467	76
1.79833	75
1.80200	74
1.80567	75
1.80933	76
1.81300	75
1.81667	75
1.82033	78
1.82400	78
1.82767	77
1.83133	78
1.83500	79
1.83867	79
1.84233	78
1.84600	77
1.84967	78
1.85333	79
1.85700	81
1.86067	81
1.86433	82
1.86800	83
1.87167	82
1.87533	82
1.87900	81
1.88267	82
1.88633	82
1.89000	82
1.89367	82
1.89733	84
1.90100	85
1.90467	84
1.90833	86
1.91200	90
1.91567	92
1.91933	93
1.92300	94
1.92667	93
1.93033	90
1.93400	89
1.93767	89
1.94133	88
1.94500	89
1.94867	91
1.95233	91
1.95600	92
1.95967	93
1.96333	93
1.96700	94
1.97067	94
1.97433	94
1.97800	94
1.98167	93
1.98533	94
1.98900	94
1.99267	93
1.99633	95
2.00000	98
2.00367	100
2.00733	102
2.01100	105
2.01467	108
2.01833	111
2.02200	113
2.02567	114
2.02933	114
2.03300	113
2.03667	115
2.04033	116
2.04400	117
2.04767	117
2.05133	119
2.05500	120
2.05867	120
2.06233	122
2.06600	124
2.06967	125
2.07333	126
2.07700	126
2.08067	127
2.08433	128
2.08800	129
2.09167	131
2.09533	132
2.09900	132
2.10267	134
2.10633	136
2.11000	138
2.11367	140
2.11733	141
2.12100	141
2.12467	141
2.12833	143
2.13200	144
2.13567	147
2.13933	150
2.14300	154
2.14667	158
2.15033	160
2.15400	160
2.15767	163
2.16133	165
2.16500	164
2.16867	164
2.17233	165
2.17600	167
2.17967	169
2.18333	171
2.18700	172
2.19067	173
2.19433	172
2.19800	174
2.20167	174
2.20533	173
2.20900	172
2.21267	173
2.21633	175
2.22000	177
2.22367	180
2.22733	183
2.23100	185
2.23467	186
2.23833	183
2.24200	182
2.24567	184
2.24933	189
2.25300	192
2.25667	192
2.26033	191
2.26400	192
2.26767	193
2.27133	192
2.27500	193
2.27867	192
2.28233	194
2.28600	197
2.28967	199
2.29333	199
2.29700	201
2.30067	203
2.30433	204
2.30800	205
2.31167	206
2.31533	205
2.31900	204
2.32267	206
2.32633	207
2.33000	206
2.33367	206
2.33733	207
2.34100	207
2.34467	207
2.34833	209
2.35200	209
2.35567	207
2.35933	209
2.36300	210
2.36667	211
2.37033	211
2.37400	211
2.37767	212
2.38133	213
2.38500	211
2.38867	210
2.39233	210
2.39600	212
2.39967	217
2.40333	224
2.40700	227
2.41067	228
2.41433	228
2.41800	230
2.42167	232
2.42533	236
2.42900	238
2.43267	237
2.43633	238
2.44000	241
2.44367	244
2.44733	247
2.45100	250
2.45467	251
2.45833	250
2.46200	251
2.46567	255
2.46933	262
2.47300	271
2.47667	282
2.48033	295
2.48400	309
2.48767	322
2.49133	335
2.49500	347
2.49867	360
2.50233	371
2.50600	383
2.50967	392
2.51333	400
2.51700	408
2.52067	412
2.52433	419
2.52800	426
2.53167	433
2.53533	439
2.53900	444
2.54267	451
2.54633	459
2.55000	466
2.55367	473
2.55733	479
2.56100	484
2.56467	488
2.56833	492
2.57200	497
2.57567	501
2.57933	502
2.58300	505
2.58667	507
2.59033	509
2.59400	506
2.59767	498
2.60133	480
2.60500	456
2.60867	423
2.61233	383
2.61600	339
2.61967	294
2.62333	250
2.62700	210
2.63067	178
2.63433	154
2.63800	132
2.64167	118
2.64533	110
2.64900	105
2.65267	105
2.65633	111
2.66000	117
2.66367	121
2.66733	127
2.67100	137
2.67467	150
2.67833	164
2.68200	175
2.68567	185
2.68933	194
2.69300	204
2.69667	213
2.70033	222
2.70400	233
2.70767	244
2.71133	255
2.71500	265
2.71867	274
2.72233	284
2.72600	293
2.72967	303
2.73333	314
2.73700	322
2.74067	329
2.74433	334
2.74800	339
2.75167	345
2.75533	352
2.75900	358
2.76267	363
2.76633	372
2.77000	381
2.77367	388
2.77733	392
2.78100	396
2.78467	401
2.78833	406
2.79200	411
2.79567	413
2.79933	413
2.80300	414
2.80667	417
2.81033	421
2.81400	426
2.81767	430
2.82133	438
2.82500	452
2.82867	480
2.83233	540
2.83600	648
2.83967	826
2.84333	1092
2.84700	1460
2.85067	1930
2.85433	2484
2.85800	3089
2.86167	3699
2.86533	4268
2.86900	4752
2.87267	5119
2.87633	5345
2.88000	5423
2.88367	5365
2.88733	5192
2.89100	4934
2.89467	4620
2.89833	4273
2.90200	3912
2.90567	3554
2.90933	3214
2.91300	2897
2.91667	2605
2.92033	2340
2.92400	2100
2.92767	1886
2.93133	1698
2.93500	1532
2.93867	1387
2.94233	1261
2.94600	1152
2.94967	1054
2.95333	970
2.95700	898
2.96067	836
2.96433	782
2.96800	737
2.97167	697
2.97533	664
2.97900	636
2.98267	610
2.98633	588
2.99000	569
2.99367	552
2.99733	536
3.00100	522
3.00467	513
3.00833	506
3.01200	499
3.01567	494
3.01933	489
3.02300	484
3.02667	478
3.03033	474
3.03400	470
3.03767	464
3.04133	459
3.04500	455
3.04867	451
3.05233	449
3.05600	447
3.05967	446
3.06333	444
3.06700	442
3.07067	438
3.07433	437
3.07800	436
3.08167	436
3.08533	435
3.08900	433
3.09267	429
3.09633	426
3.10000	423
3.10367	421
3.10733	418
3.11100	416
3.11467	414
3.11833	412
3.12200	410
3.12567	412
3.12933	409
3.13300	406
3.13667	406
3.14033	405
3.14400	403
3.14767	402
3.15133	400
3.15500	398
3.15867	396
3.16233	394
3.16600	392
3.16967	390
3.17333	389
3.17700	389
3.18067	391
3.18433	393
3.18800	393
3.19167	392
3.19533	388
3.19900	384
3.20267	381
3.20633	379
3.21000	378
3.21367	378
3.21733	376
3.22100	374
3.22467	374
3.22833	374
3.23200	376
3.23567	378
3.23933	376
3.24300	374
3.24667	371
3.25033	370
3.25400	367
3.25767	367
3.26133	368
3.26500	367
3.26867	363
3.27233	361
3.27600	360
3.27967	358
3.28333	357
3.28700	353
3.29067	351
3.29433	348
3.29800	345
3.30167	343
3.30533	342
3.30900	340
3.31267	339
3.31633	338
3.32000	336
3.32367	335
3.32733	333
3.33100	330
3.33467	330
3.33833	329
3.34200	327
3.34567	323
3.34933	319
3.35300	315
3.35667	314
3.36033	314
3.36400	312
3.36767	311
3.37133	310
3.37500	309
3.37867	306
3.38233	305
3.38600	302
3.38967	299
3.39333	294
3.39700	291
3.40067	290
3.40433	289
3.40800	289
3.41167	289
3.41533	287
3.41900	284
3.42267	282
3.42633	280
3.43000	278
3.43367	276
3.43733	275
3.44100	273
3.44467	270
3.44833	268
3.45200	266
3.45567	262
3.45933	259
3.46300	257
3.46667	257
3.47033	258
3.47400	257
3.47767	255
3.48133	252
3.48500	249
3.48867	248
3.49233	247
3.49600	245
3.49967	243
3.50333	240
3.50700	237
3.51067	235
3.51433	235
3.51800	233
3.52167	232
3.52533	230
3.52900	229
3.53267	225
3.53633	222
3.54000	221
3.54367	219
3.54733	218
3.55100	216
3.55467	214
3.55833	211
3.56200	209
3.56567	206
3.56933	205
3.57300	206
3.57667	207
3.58033	206
3.58400	205
3.58767	202
3.59133	198
3.59500	194
3.59867	193
3.60233	193
3.60600	193
3.60967	193
3.61333	194
3.61700	194
3.62067	193
3.62433	192
3.62800	191
3.63167	189
3.63533	186
3.63900	183
3.64267	179
3.64633	176
3.65000	173
3.65367	173
3.65733	175
3.66100	176
3.66467	176
3.66833	175
3.67200	174
3.67567	172
3.67933	172
3.68300	170
3.68667	169
3.69033	167
3.69400	165
3.69767	163
3.70133	164
3.70500	163
3.70867	162
3.71233	161
3.71600	161
3.71967	160
3.72333	160
3.72700	158
3.73067	157
3.73433	157
3.73800	156
3.74167	156
3.74533	155
3.74900	152
3.75267	151
3.75633	152
3.76000	153
3.76367	153
3.76733	151
3.77100	151
3.77467	149
3.77833	145
3.78200	142
3.78567	140
3.78933	140
3.79300	141
3.79667	141
3.80033	141
3.80400	140
3.80767	138
3.81133	137
3.81500	136
3.81867	135
3.82233	135
3.82600	135
3.82967	134
3.83333	135
3.83700	135
3.84067	133
3.84433	134
3.84800	133
3.85167	133
3.85533	131
3.85900	128
3.86267	128
3.86633	130
3.87000	131
3.87367	132
3.87733	131
3.88100	130
3.88467	127
3.88833	125
3.89200	127
3.89567	128
3.89933	124
3.90300	121
3.90667	119
3.91033	119
3.91400	119
3.91767	121
3.92133	123
3.92500	124
3.92867	121
3.93233	117
3.93600	116
3.93967	114
3.94333	114
3.94700	112
3.95067	111
3.95433	111
3.95800	112
3.96167	112
3.96533	112
3.96900	110
3.97267	110
3.97633	111
3.98000	110
3.98367	107
3.98733	107
3.99100	106
3.99467	104
3.99833	104

[Status Trace (Column Oven Temperature)]
Interval(msec)	1000
# of Points	240
Start Time(min)	0.003
End Time(min)	3.986
Intensity Units	
Intensity Multiplier	1
R.Time (min)	Intensity
0.00305	35.00
0.01972	35.00
0.03638	35.02
0.05305	35.02
0.06972	35.04
0.08638	35.05
0.10305	35.04
0.11972	35.03
0.13638	35.02
0.15305	35.01
0.16972	35.00
0.18638	34.98
0.20305	34.97
0.21972	34.96
0.23638	34.97
0.25305	34.98
0.26972	35.00
0.28638	35.00
0.30305	35.00
0.31972	35.01
0.33638	35.02
0.35305	35.01
0.36972	35.00
0.38638	35.00
0.40305	34.99
0.41972	34.99
0.43638	34.97
0.45305	34.96
0.46972	34.96
0.48638	34.94
0.50305	34.94
0.51972	34.94
0.53638	34.94
0.55305	34.94
0.56972	34.96
0.58638	34.97
0.60305	34.96
0.61972	34.97
0.63638	34.97
0.65305	34.97
0.66972	34.96
0.68638	34.95
0.70305	34.96
0.71972	34.96
0.73638	34.97
0.75305	34.97
0.76972	34.98
0.78638	34.99
0.80305	35.00
0.81972	35.00
0.83638	34.99
0.85305	34.98
0.86972	34.98
0.88638	34.99
0.90305	34.98
0.91972	34.98
0.93638	34.97
0.95305	34.97
0.96972	34.96
0.98638	34.97
1.00305	34.97
1.01972	34.98
1.03638	34.98
1.05305	34.98
1.06972	34.98
1.08638	34.98
1.10305	34.97
1.11972	34.98
1.13638	34.97
1.15305	34.96
1.16972	34.95
1.18638	34.96
1.20305	34.96
1.21972	34.98
1.23638	34.99
1.25305	35.01
1.26972	35.02
1.28638	35.04
1.30305	35.03
1.31972	35.03
1.33638	35.03
1.35305	35.02
1.36972	35.01
1.38638	35.01
1.40305	35.01
1.41972	35.00
1.43638	34.98
1.45305	34.98
1.46972	34.98
1.48638	34.98
1.50305	35.00
1.51972	35.00
1.53638	34.99
1.55305	34.99
1.56972	34.99
1.58638	35.00
1.60305	35.04
1.61972	35.14
1.63638	35.33
1.65305	35.56
1.66972	35.87
1.68638	36.23
1.70305	36.58
1.71972	36.92
1.73638	37.26
1.75305	37.59
1.76972	37.93
1.78638	38.25
1.80305	38.59
1.81972	38.91
1.83638	39.26
1.85305	39.58
1.86972	39.90
1.88638	40.23
1.90305	40.55
1.91972	40.87
1.93638	41.19
1.95305	41.53
1.96972	41.82
1.98638	42.17
2.00305	42.49
2.01972	42.82
2.03638	43.15
2.05305	43.47
2.06972	43.82
2.08638	44.13
2.10305	44.43
2.11972	44.78
2.13638	45.10
2.15305	45.42
2.16972	45.77
2.18638	46.08
2.20305	46.41
2.21972	46.74
2.23638	47.05
2.25305	47.43
2.26972	47.75
2.28638	48.09
2.30305	48.42
2.31972	48.75
2.33638	49.08
2.35305	49.37
2.36972	49.57
2.38638	49.66
2.40305	49.66
2.41972	49.68
2.43638	49.69
2.45305	49.71
2.46972	49.73
2.48638	49.73
2.50305	49.74
2.51972	49.75
2.53638	49.77
2.55305	49.78
2.56972	49.83
2.58638	49.84
2.60305	49.82
2.61972	49.84
2.63638	49.84
2.65305	49.85
2.66972	49.87
2.68638	49.88
2.70305	49.87
2.71972	49.85
2.73638	49.85
2.75305	49.88
2.76972	49.89
2.78638	49.89
2.80305	49.89
2.81972	49.90
2.83638	49.90
2.85305	49.91
2.86972	49.92
2.88638	49.94
2.90305	49.95
2.91972	49.97
2.93638	49.99
2.95305	50.01
2.96972	50.03
2.98638	50.03
3.00305	50.03
3.01972	50.04
3.03638	50.05
3.05305	50.06
3.06972	50.08
3.08638	50.08
3.10305	50.08
3.11972	50.09
3.13638	50.10
3.15305	50.11
3.16972	50.11
3.18638	50.10
3.20305	50.10
3.21972	50.09
3.23638	50.07
3.25305	50.06
3.26972	50.05
3.28638	50.03
3.30305	50.02
3.31972	50.03
3.33638	50.03
3.35305	50.03
3.36972	50.03
3.38638	50.02
3.40305	50.01
3.41972	50.01
3.43638	50.00
3.45305	50.00
3.46972	50.01
3.48638	50.02
3.50305	50.02
3.51972	50.02
3.53638	50.02
3.55305	50.03
3.56972	50.02
3.58638	50.02
3.60305	50.02
3.61972	50.02
3.63638	50.02
3.65305	50.02
3.66972	50.03
3.68638	50.03
3.70305	50.04
3.71972	50.04
3.73638	50.04
3.75305	50.04
3.76972	50.04
3.78638	50.05
3.80305	50.05
3.81972	50.06
3.83638	50.08
3.85305	50.08
3.86972	50.08
3.88638	50.08
3.90305	50.08
3.91972	50.09
3.93638	50.08
3.95305	50.08
3.96972	50.08
3.98638	50.08

[Status Trace (Injection Unit Temperature)]
Interval(msec)	1000
# of Points	240
Start Time(min)	0.003
End Time(min)	3.986
Intensity Units	
Intensity Multiplier	1
R.Time (min)	Intensity
0.00305	99.99
0.01972	99.99
0.03638	99.99
0.05305	99.99
0.06972	99.99
0.08638	99.99
0.10305	99.99
0.11972	99.99
0.13638	99.99
0.15305	99.99
0.16972	99.99
0.18638	99.99
0.20305	99.99
0.21972	99.99
0.23638	99.99
0.25305	99.99
0.26972	99.99
0.28638	99.99
0.30305	99.99
0.31972	99.98
0.33638	99.99
0.35305	99.99
0.36972	99.99
0.38638	99.99
0.40305	99.99
0.41972	99.99
0.43638	99.99
0.45305	99.99
0.46972	99.99
0.48638	99.99
0.50305	99.99
0.51972	99.99
0.53638	99.99
0.55305	99.99
0.56972	99.99
0.58638	99.99
0.60305	99.99
0.61972	99.99
0.63638	99.99
0.65305	99.99
0.66972	99.99
0.68638	99.99
0.70305	99.99
0.71972	99.99
0.73638	99.99
0.75305	99.99
0.76972	99.99
0.78638	99.99
0.80305	99.99
0.81972	99.99
0.83638	99.99
0.85305	99.99
0.86972	99.99
0.88638	99.99
0.90305	99.99
0.91972	99.99
0.93638	99.99
0.95305	99.99
0.96972	99.99
0.98638	99.99
1.00305	99.99
1.01972	100.00
1.03638	99.99
1.05305	99.99
1.06972	99.99
1.08638	99.99
1.10305	99.99
1.11972	99.99
1.13638	99.99
1.15305	100.00
1.16972	99.99
1.18638	99.99
1.20305	99.99
1.21972	100.00
1.23638	99.99
1.25305	99.99
1.26972	99.99
1.28638	99.99
1.30305	100.00
1.31972	99.99
1.33638	99.99
1.35305	99.99
1.36972	99.99
1.38638	99.99
1.40305	99.99
1.41972	99.99
1.43638	99.99
1.45305	99.99
1.46972	99.99
1.48638	99.99
1.50305	99.99
1.51972	99.99
1.53638	99.99
1.55305	99.99
1.56972	99.99
1.58638	99.99
1.60305	99.99
1.61972	99.99
1.63638	100.00
1.65305	99.99
1.66972	99.99
1.68638	99.99
1.70305	99.99
1.71972	99.99
1.73638	99.99
1.75305	99.99
1.76972	99.99
1.78638	100.00
1.80305	100.00
1.81972	99.99
1.83638	99.99
1.85305	99.99
1.86972	99.99
1.88638	99.98
1.90305	99.99
1.91972	99.99
1.93638	99.99
1.95305	99.99
1.96972	99.99
1.98638	99.99
2.00305	99.99
2.01972	99.98
2.03638	99.99
2.05305	99.99
2.06972	99.98
2.08638	99.98
2.10305	99.98
2.11972	99.98
2.13638	99.98
2.15305	99.98
2.16972	99.98
2.18638	99.97
2.20305	99.98
2.21972	99.98
2.23638	99.98
2.25305	99.98
2.26972	99.98
2.28638	99.97
2.30305	99.97
2.31972	99.97
2.33638	99.97
2.35305	99.97
2.36972	99.97
2.38638	99.97
2.40305	99.97
2.41972	99.97
2.43638	99.97
2.45305	99.97
2.46972	99.97
2.48638	99.98
2.50305	99.97
2.51972	99.97
2.53638	99.98
2.55305	99.97
2.56972	99.97
2.58638	99.98
2.60305	99.98
2.61972	99.98
2.63638	99.98
2.65305	99.98
2.66972	99.98
2.68638	99.99
2.70305	99.98
2.71972	99.99
2.73638	99.98
2.75305	99.99
2.76972	99.99
2.78638	99.99
2.80305	99.99
2.81972	99.99
2.83638	99.99
2.85305	100.00
2.86972	100.00
2.88638	100.00
2.90305	100.00
2.91972	100.00
2.93638	100.01
2.95305	100.01
2.96972	100.00
2.98638	100.01
3.00305	100.01
3.01972	100.01
3.03638	100.01
3.05305	100.02
3.06972	100.02
3.08638	100.02
3.10305	100.01
3.11972	100.02
3.13638	100.02
3.15305	100.02
3.16972	100.02
3.18638	100.03
3.20305	100.02
3.21972	100.03
3.23638	100.03
3.25305	100.03
3.26972	100.02
3.28638	100.03
3.30305	100.03
3.31972	100.04
3.33638	100.04
3.35305	100.04
3.36972	100.04
3.38638	100.04
3.40305	100.03
3.41972	100.04
3.43638	100.04
3.45305	100.04
3.46972	100.04
3.48638	100.04
3.50305	100.04
3.51972	100.04
3.53638	100.05
3.55305	100.05
3.56972	100.04
3.58638	100.05
3.60305	100.04
3.61972	100.04
3.63638	100.05
3.65305	100.05
3.66972	100.05
3.68638	100.05
3.70305	100.05
3.71972	100.05
3.73638	100.05
3.75305	100.05
3.76972	100.05
3.78638	100.05
3.80305	100.06
3.81972	100.05
3.83638	100.05
3.85305	100.05
3.86972	100.06
3.88638	100.05
3.90305	100.06
3.91972	100.05
3.93638	100.05
3.95305	100.05
3.96972	100.05
3.98638	100.06

[Status Trace (Carrier Gas Pressure)]
Interval(msec)	1000
# of Points	240
Start Time(min)	0.003
End Time(min)	3.986
Intensity Units	
Intensity Multiplier	1
R.Time (min)	Intensity
0.00305	58.00
0.01972	56.25
0.03638	56.33
0.05305	58.58
0.06972	59.91
0.08638	58.34
0.10305	57.97
0.11972	58.00
0.13638	58.01
0.15305	58.01
0.16972	58.00
0.18638	58.00
0.20305	58.00
0.21972	58.00
0.23638	58.00
0.25305	58.00
0.26972	58.00
0.28638	58.00
0.30305	58.00
0.31972	58.00
0.33638	58.00
0.35305	58.00
0.36972	58.00
0.38638	58.00
0.40305	58.00
0.41972	58.00
0.43638	58.00
0.45305	58.00
0.46972	58.00
0.48638	58.00
0.50305	58.00
0.51972	58.00
0.53638	58.00
0.55305	58.00
0.56972	58.00
0.58638	58.00
0.60305	58.00
0.61972	58.00
0.63638	58.00
0.65305	58.00
0.66972	58.00
0.68638	58.00
0.70305	58.00
0.71972	58.00
0.73638	58.00
0.75305	58.00
0.76972	58.00
0.78638	58.00
0.80305	58.00
0.81972	58.00
0.83638	58.00
0.85305	58.00
0.86972	58.00
0.88638	58.00
0.90305	58.00
0.91972	58.00
0.93638	58.00
0.95305	58.00
0.96972	58.00
0.98638	58.00
1.00305	58.00
1.01972	58.00
1.03638	58.00
1.05305	58.00
1.06972	58.00
1.08638	58.00
1.10305	58.00
1.11972	58.00
1.13638	58.00
1.15305	58.00
1.16972	58.00
1.18638	58.00
1.20305	58.00
1.21972	58.00
1.23638	58.00
1.25305	58.00
1.26972	58.00
1.28638	58.00
1.30305	58.00
1.31972	58.00
1.33638	58.00
1.35305	58.00
1.36972	58.00
1.38638	58.00
1.40305	58.00
1.41972	58.00
1.43638	58.00
1.45305	58.00
1.46972	58.00
1.48638	58.00
1.50305	58.00
1.51972	58.00
1.53638	58.00
1.55305	58.00
1.56972	58.00
1.58638	58.00
1.60305	58.00
1.61972	58.00
1.63638	58.01
1.65305	58.00
1.66972	58.00
1.68638	58.01
1.70305	58.00
1.71972	58.00
1.73638	58.00
1.75305	58.00
1.76972	58.00
1.78638	58.00
1.80305	58.00
1.81972	58.00
1.83638	58.00
1.85305	58.00
1.86972	58.00
1.88638	58.00
1.90305	58.00
1.91972	58.00
1.93638	58.00
1.95305	58.00
1.96972	58.00
1.98638	58.00
2.00305	58.00
2.01972	58.00
2.03638	58.00
2.05305	58.00
2.06972	58.00
2.08638	58.00
2.10305	58.00
2.11972	58.00
2.13638	58.00
2.15305	58.00
2.16972	58.00
2.18638	58.00
2.20305	58.00
2.21972	58.00
2.23638	58.00
2.25305	58.00
2.26972	58.00
2.28638	58.00
2.30305	58.00
2.31972	58.00
2.33638	58.00
2.35305	58.00
2.36972	58.00
2.38638	57.99
2.40305	57.99
2.41972	58.00
2.43638	58.00
2.45305	58.00
2.46972	58.00
2.48638	58.00
2.50305	57.96
2.51972	58.03
2.53638	57.99
2.55305	58.00
2.56972	58.00
2.58638	58.00
2.60305	58.00
2.61972	58.00
2.63638	58.00
2.65305	58.00
2.66972	58.00
2.68638	58.00
2.70305	58.00
2.71972	58.00
2.73638	58.00
2.75305	58.00
2.76972	58.00
2.78638	58.00
2.80305	58.00
2.81972	58.00
2.83638	58.00
2.85305	58.00
2.86972	58.00
2.88638	58.00
2.90305	58.00
2.91972	58.00
2.93638	58.00
2.95305	58.00
2.96972	58.00
2.98638	58.00
3.00305	58.00
3.01972	58.00
3.03638	58.00
3.05305	58.00
3.06972	58.00
3.08638	58.00
3.10305	58.00
3.11972	58.00
3.13638	58.00
3.15305	58.00
3.16972	58.00
3.18638	58.00
3.20305	58.00
3.21972	58.00
3.23638	58.00
3.25305	58.00
3.26972	58.00
3.28638	58.00
3.30305	58.00
3.31972	58.00
3.33638	58.00
3.35305	58.00
3.36972	58.00
3.38638	58.00
3.40305	58.00
3.41972	58.00
3.43638	58.00
3.45305	58.00
3.46972	58.00
3.48638	58.00
3.50305	58.00
3.51972	58.00
3.53638	58.00
3.55305	58.00
3.56972	58.00
3.58638	58.00
3.60305	58.00
3.61972	58.00
3.63638	58.00
3.65305	58.00
3.66972	58.00
3.68638	58.00
3.70305	58.00
3.71972	58.00
3.73638	58.00
3.75305	58.00
3.76972	58.00
3.78638	58.00
3.80305	58.00
3.81972	58.00
3.83638	58.00
3.85305	58.00
3.86972	58.00
3.88638	58.00
3.90305	58.00
3.91972	58.00
3.93638	58.00
3.95305	58.00
3.96972	58.00
3.98638	58.00

[Status Trace (Carrier Gas Flow)]
Interval(msec)	1000
# of Points	240
Start Time(min)	0.003
End Time(min)	3.986
Intensity Units	
Intensity Multiplier	1
R.Time (min)	Intensity
0.00305	34.52
0.01972	34.61
0.03638	34.53
0.05305	34.55
0.06972	34.52
0.08638	34.52
0.10305	34.52
0.11972	34.52
0.13638	34.52
0.15305	34.52
0.16972	34.52
0.18638	34.52
0.20305	34.52
0.21972	34.52
0.23638	34.52
0.25305	34.52
0.26972	34.52
0.28638	34.52
0.30305	34.52
0.31972	34.52
0.33638	34.52
0.35305	34.52
0.36972	34.52
0.38638	34.52
0.40305	34.52
0.41972	34.52
0.43638	34.52
0.45305	34.52
0.46972	34.52
0.48638	34.52
0.50305	34.52
0.51972	34.52
0.53638	34.52
0.55305	34.52
0.56972	34.52
0.58638	34.52
0.60305	34.52
0.61972	34.52
0.63638	34.52
0.65305	34.52
0.66972	34.52
0.68638	34.52
0.70305	34.52
0.71972	34.52
0.73638	34.52
0.75305	34.52
0.76972	34.52
0.78638	34.52
0.80305	34.52
0.81972	34.52
0.83638	34.52
0.85305	34.52
0.86972	34.52
0.88638	34.52
0.90305	34.52
0.91972	34.52
0.93638	34.52
0.95305	34.52
0.96972	34.52
0.98638	34.52
1.00305	34.52
1.01972	34.52
1.03638	34.52
1.05305	34.52
1.06972	34.52
1.08638	34.52
1.10305	34.52
1.11972	34.52
1.13638	34.52
1.15305	34.52
1.16972	34.52
1.18638	34.52
1.20305	34.52
1.21972	34.52
1.23638	34.52
1.25305	34.52
1.26972	34.52
1.28638	34.52
1.30305	34.52
1.31972	34.52
1.33638	34.52
1.35305	34.52
1.36972	34.52
1.38638	34.52
1.40305	34.52
1.41972	34.52
1.43638	34.52
1.45305	34.52
1.46972	34.52
1.48638	34.52
1.50305	34.52
1.51972	34.52
1.53638	34.52
1.55305	34.52
1.56972	34.52
1.58638	34.52
1.60305	34.52
1.61972	34.52
1.63638	34.52
1.65305	34.52
1.66972	34.52
1.68638	34.52
1.70305	34.52
1.71972	34.52
1.73638	34.52
1.75305	34.52
1.76972	34.52
1.78638	34.52
1.80305	34.52
1.81972	34.52
1.83638	34.52
1.85305	34.52
1.86972	34.52
1.88638	34.52
1.90305	34.52
1.91972	34.52
1.93638	34.52
1.95305	34.52
1.96972	34.52
1.98638	34.52
2.00305	34.52
2.01972	34.52
2.03638	34.52
2.05305	34.52
2.06972	34.52
2.08638	34.52
2.10305	34.52
2.11972	34.52
2.13638	34.52
2.15305	34.52
2.16972	34.52
2.18638	34.52
2.20305	34.52
2.21972	34.52
2.23638	34.52
2.25305	34.52
2.26972	34.52
2.28638	34.52
2.30305	34.52
2.31972	34.52
2.33638	34.52
2.35305	34.52
2.36972	34.52
2.38638	34.52
2.40305	34.52
2.41972	34.52
2.43638	34.52
2.45305	34.52
2.46972	34.52
2.48638	34.52
2.50305	34.68
2.51972	34.51
2.53638	34.53
2.55305	34.53
2.56972	34.52
2.58638	34.53
2.60305	34.52
2.61972	34.51
2.63638	34.54
2.65305	34.52
2.66972	34.51
2.68638	34.53
2.70305	34.51
2.71972	34.52
2.73638	34.52
2.75305	34.52
2.76972	34.52
2.78638	34.52
2.80305	34.52
2.81972	34.52
2.83638	34.50
2.85305	34.52
2.86972	34.52
2.88638	34.52
2.90305	34.52
2.91972	34.52
2.93638	34.52
2.95305	34.52
2.96972	34.52
2.98638	34.52
3.00305	34.52
3.01972	34.52
3.03638	34.52
3.05305	34.52
3.06972	34.52
3.08638	34.52
3.10305	34.52
3.11972	34.52
3.13638	34.52
3.15305	34.52
3.16972	34.52
3.18638	34.52
3.20305	34.52
3.21972	34.52
3.23638	34.52
3.25305	34.52
3.26972	34.52
3.28638	34.52
3.30305	34.52
3.31972	34.52
3.33638	34.52
3.35305	34.52
3.36972	34.52
3.38638	34.52
3.40305	34.52
3.41972	34.52
3.43638	34.52
3.45305	34.52
3.46972	34.52
3.48638	34.52
3.50305	34.52
3.51972	34.52
3.53638	34.52
3.55305	34.52
3.56972	34.52
3.58638	34.52
3.60305	34.52
3.61972	34.52
3.63638	34.52
3.65305	34.52
3.66972	34.52
3.68638	34.52
3.70305	34.52
3.71972	34.52
3.73638	34.52
3.75305	34.52
3.76972	34.52
3.78638	34.52
3.80305	34.52
3.81972	34.52
3.83638	34.52
3.85305	34.52
3.86972	34.52
3.88638	34.52
3.90305	34.52
3.91972	34.52
3.93638	34.52
3.95305	34.52
3.96972	34.52
3.98638	34.52

[Status Trace (Column Flow)]
Interval(msec)	1000
# of Points	240
Start Time(min)	0.003
End Time(min)	3.986
Intensity Units	
Intensity Multiplier	1
R.Time (min)	Intensity
0.00305	5.53
0.01972	5.33
0.03638	5.34
0.05305	5.60
0.06972	5.75
0.08638	5.57
0.10305	5.52
0.11972	5.53
0.13638	5.53
0.15305	5.53
0.16972	5.53
0.18638	5.53
0.20305	5.53
0.21972	5.53
0.23638	5.53
0.25305	5.53
0.26972	5.53
0.28638	5.53
0.30305	5.53
0.31972	5.53
0.33638	5.53
0.35305	5.53
0.36972	5.53
0.38638	5.53
0.40305	5.53
0.41972	5.53
0.43638	5.53
0.45305	5.53
0.46972	5.53
0.48638	5.53
0.50305	5.53
0.51972	5.53
0.53638	5.53
0.55305	5.53
0.56972	5.53
0.58638	5.53
0.60305	5.53
0.61972	5.53
0.63638	5.53
0.65305	5.53
0.66972	5.53
0.68638	5.53
0.70305	5.53
0.71972	5.53
0.73638	5.53
0.75305	5.53
0.76972	5.53
0.78638	5.53
0.80305	5.53
0.81972	5.53
0.83638	5.53
0.85305	5.53
0.86972	5.53
0.88638	5.53
0.90305	5.53
0.91972	5.53
0.93638	5.53
0.95305	5.53
0.96972	5.53
0.98638	5.53
1.00305	5.53
1.01972	5.53
1.03638	5.53
1.05305	5.53
1.06972	5.53
1.08638	5.53
1.10305	5.53
1.11972	5.53
1.13638	5.53
1.15305	5.53
1.16972	5.53
1.18638	5.53
1.20305	5.53
1.21972	5.53
1.23638	5.53
1.25305	5.53
1.26972	5.53
1.28638	5.53
1.30305	5.53
1.31972	5.53
1.33638	5.53
1.35305	5.53
1.36972	5.53
1.38638	5.53
1.40305	5.53
1.41972	5.53
1.43638	5.53
1.45305	5.53
1.46972	5.53
1.48638	5.53
1.50305	5.53
1.51972	5.53
1.53638	5.53
1.55305	5.53
1.56972	5.53
1.58638	5.53
1.60305	5.53
1.61972	5.53
1.63638	5.52
1.65305	5.51
1.66972	5.50
1.68638	5.49
1.70305	5.48
1.71972	5.47
1.73638	5.46
1.75305	5.45
1.76972	5.44
1.78638	5.43
1.80305	5.42
1.81972	5.41
1.83638	5.40
1.85305	5.39
1.86972	5.38
1.88638	5.37
1.90305	5.36
1.91972	5.35
1.93638	5.34
1.95305	5.33
1.96972	5.32
1.98638	5.31
2.00305	5.30
2.01972	5.29
2.03638	5.28
2.05305	5.27
2.06972	5.26
2.08638	5.25
2.10305	5.24
2.11972	5.24
2.13638	5.23
2.15305	5.22
2.16972	5.21
2.18638	5.20
2.20305	5.19
2.21972	5.18
2.23638	5.17
2.25305	5.16
2.26972	5.15
2.28638	5.14
2.30305	5.13
2.31972	5.12
2.33638	5.11
2.35305	5.10
2.36972	5.10
2.38638	5.09
2.40305	5.09
2.41972	5.09
2.43638	5.09
2.45305	5.09
2.46972	5.09
2.48638	5.09
2.50305	5.09
2.51972	5.10
2.53638	5.09
2.55305	5.09
2.56972	5.09
2.58638	5.09
2.60305	5.09
2.61972	5.09
2.63638	5.09
2.65305	5.09
2.66972	5.09
2.68638	5.09
2.70305	5.09
2.71972	5.09
2.73638	5.09
2.75305	5.09
2.76972	5.09
2.78638	5.09
2.80305	5.09
2.81972	5.09
2.83638	5.09
2.85305	5.09
2.86972	5.09
2.88638	5.09
2.90305	5.09
2.91972	5.09
2.93638	5.09
2.95305	5.09
2.96972	5.09
2.98638	5.09
3.00305	5.08
3.01972	5.08
3.03638	5.08
3.05305	5.08
3.06972	5.08
3.08638	5.08
3.10305	5.08
3.11972	5.08
3.13638	5.08
3.15305	5.08
3.16972	5.08
3.18638	5.08
3.20305	5.08
3.21972	5.08
3.23638	5.08
3.25305	5.08
3.26972	5.08
3.28638	5.08
3.30305	5.09
3.31972	5.09
3.33638	5.09
3.35305	5.09
3.36972	5.09
3.38638	5.09
3.40305	5.09
3.41972	5.09
3.43638	5.09
3.45305	5.09
3.46972	5.09
3.48638	5.09
3.50305	5.09
3.51972	5.09
3.53638	5.09
3.55305	5.09
3.56972	5.09
3.58638	5.09
3.60305	5.09
3.61972	5.09
3.63638	5.09
3.65305	5.09
3.66972	5.09
3.68638	5.09
3.70305	5.08
3.71972	5.08
3.73638	5.08
3.75305	5.08
3.76972	5.08
3.78638	5.08
3.80305	5.08
3.81972	5.08
3.83638	5.08
3.85305	5.08
3.86972	5.08
3.88638	5.08
3.90305	5.08
3.91972	5.08
3.93638	5.08
3.95305	5.08
3.96972	5.08
3.98638	5.08

[Status Trace (Linear Velocity)]
Interval(msec)	1000
# of Points	240
Start Time(min)	0.003
End Time(min)	3.986
Intensity Units	
Intensity Multiplier	1
R.Time (min)	Intensity
0.00305	39.02
0.01972	37.87
0.03638	37.92
0.05305	39.40
0.06972	40.27
0.08638	39.24
0.10305	38.99
0.11972	39.02
0.13638	39.02
0.15305	39.02
0.16972	39.02
0.18638	39.02
0.20305	39.02
0.21972	39.02
0.23638	39.02
0.25305	39.02
0.26972	39.02
0.28638	39.02
0.30305	39.02
0.31972	39.02
0.33638	39.02
0.35305	39.02
0.36972	39.02
0.38638	39.02
0.40305	39.02
0.41972	39.02
0.43638	39.02
0.45305	39.02
0.46972	39.02
0.48638	39.02
0.50305	39.02
0.51972	39.02
0.53638	39.02
0.55305	39.02
0.56972	39.02
0.58638	39.02
0.60305	39.02
0.61972	39.02
0.63638	39.02
0.65305	39.02
0.66972	39.02
0.68638	39.02
0.70305	39.02
0.71972	39.02
0.73638	39.02
0.75305	39.02
0.76972	39.02
0.78638	39.02
0.80305	39.02
0.81972	39.02
0.83638	39.02
0.85305	39.02
0.86972	39.02
0.88638	39.02
0.90305	39.02
0.91972	39.02
0.93638	39.02
0.95305	39.02
0.96972	39.02
0.98638	39.02
1.00305	39.02
1.01972	39.02
1.03638	39.02
1.05305	39.02
1.06972	39.02
1.08638	39.02
1.10305	39.02
1.11972	39.02
1.13638	39.02
1.15305	39.02
1.16972	39.02
1.18638	39.02
1.20305	39.02
1.21972	39.02
1.23638	39.02
1.25305	39.02
1.26972	39.02
1.28638	39.01
1.30305	39.01
1.31972	39.02
1.33638	39.02
1.35305	39.02
1.36972	39.02
1.38638	39.02
1.40305	39.02
1.41972	39.02
1.43638	39.02
1.45305	39.02
1.46972	39.02
1.48638	39.02
1.50305	39.02
1.51972	39.02
1.53638	39.02
1.55305	39.02
1.56972	39.02
1.58638	39.02
1.60305	39.02
1.61972	39.01
1.63638	38.99
1.65305	38.97
1.66972	38.94
1.68638	38.91
1.70305	38.87
1.71972	38.84
1.73638	38.81
1.75305	38.77
1.76972	38.74
1.78638	38.71
1.80305	38.68
1.81972	38.65
1.83638	38.62
1.85305	38.58
1.86972	38.56
1.88638	38.53
1.90305	38.49
1.91972	38.47
1.93638	38.44
1.95305	38.40
1.96972	38.38
1.98638	38.35
2.00305	38.31
2.01972	38.29
2.03638	38.25
2.05305	38.22
2.06972	38.19
2.08638	38.16
2.10305	38.13
2.11972	38.11
2.13638	38.08
2.15305	38.04
2.16972	38.02
2.18638	37.99
2.20305	37.96
2.21972	37.93
2.23638	37.90
2.25305	37.86
2.26972	37.84
2.28638	37.81
2.30305	37.77
2.31972	37.75
2.33638	37.72
2.35305	37.69
2.36972	37.67
2.38638	37.66
2.40305	37.66
2.41972	37.66
2.43638	37.66
2.45305	37.66
2.46972	37.66
2.48638	37.66
2.50305	37.63
2.51972	37.67
2.53638	37.65
2.55305	37.65
2.56972	37.65
2.58638	37.65
2.60305	37.65
2.61972	37.65
2.63638	37.65
2.65305	37.65
2.66972	37.65
2.68638	37.64
2.70305	37.65
2.71972	37.65
2.73638	37.65
2.75305	37.65
2.76972	37.64
2.78638	37.64
2.80305	37.64
2.81972	37.64
2.83638	37.64
2.85305	37.64
2.86972	37.64
2.88638	37.64
2.90305	37.64
2.91972	37.64
2.93638	37.64
2.95305	37.63
2.96972	37.63
2.98638	37.63
3.00305	37.63
3.01972	37.63
3.03638	37.63
3.05305	37.63
3.06972	37.63
3.08638	37.63
3.10305	37.63
3.11972	37.63
3.13638	37.63
3.15305	37.62
3.16972	37.62
3.18638	37.63
3.20305	37.63
3.21972	37.63
3.23638	37.63
3.25305	37.63
3.26972	37.63
3.28638	37.63
3.30305	37.63
3.31972	37.63
3.33638	37.63
3.35305	37.63
3.36972	37.63
3.38638	37.63
3.40305	37.63
3.41972	37.63
3.43638	37.63
3.45305	37.63
3.46972	37.63
3.48638	37.63
3.50305	37.63
3.51972	37.63
3.53638	37.63
3.55305	37.63
3.56972	37.63
3.58638	37.63
3.60305	37.63
3.61972	37.63
3.63638	37.63
3.65305	37.63
3.66972	37.63
3.68638	37.63
3.70305	37.63
3.71972	37.63
3.73638	37.63
3.75305	37.63
3.76972	37.63
3.78638	37.63
3.80305	37.63
3.81972	37.63
3.83638	37.63
3.85305	37.63
3.86972	37.63
3.88638	37.63
3.90305	37.63
3.91972	37.63
3.93638	37.63
3.95305	37.63
3.96972	37.63
3.98638	37.63

