[Header]
Application Name	LabSolutions
Version	5.110
Data File Name	C:\Users\User\Desktop\GC Analyses\Jack\UIC Prairie Sampling\7.9.22\220909_108.gcd
Output Date	9/28/2022
Output Time	11:29:56 AM

[File Information]
Type	Data File
Generated	9/20/2022 1:36:36 PM
Generated by	System Administrator
Modified	9/20/2022 1:40:54 PM
Modified by	System Administrator

[Sample Information]
Operator Name	System Administrator
Acquired	9/20/2022 1:36:53 PM
Sample Type	1:Standard
Level	1
Sample Name	220909_Run
Sample ID	220909_Run
ISTD Amount1	1
ISTD Amount2	1
ISTD Amount3	1
ISTD Amount4	1
ISTD Amount5	1
ISTD Amount6	1
ISTD Amount7	1
ISTD Amount8	1
ISTD Amount9	1
ISTD Amount10	1
ISTD Amount11	1
ISTD Amount12	1
ISTD Amount13	1
ISTD Amount14	1
ISTD Amount15	1
ISTD Amount16	1
ISTD Amount17	1
ISTD Amount18	1
ISTD Amount19	1
ISTD Amount20	1
ISTD Amount21	1
ISTD Amount22	1
ISTD Amount23	1
ISTD Amount24	1
ISTD Amount25	1
ISTD Amount26	1
ISTD Amount27	1
ISTD Amount28	1
ISTD Amount29	1
ISTD Amount30	1
ISTD Amount31	1
ISTD Amount32	1
Sample Amount	1
Dilution Factor	1
Vial#	1
Injection Volume	1
Injection Count	1
Bar Code	

[Original Files]
Data File	C:\Users\User\Desktop\GC Analyses\Jack\220909\220909_108.gcd
Method File	C:\LabSolutions\Data\GHG_4min_2022\ghg3_togas_w_acet_4 min_new_int.gcm
Batch File	
Report Format File	c:\LabSolutions\System\DEFAULT.lsr

[File Description]


[Configuration]
Instrument Name	C0B7VH3-Instrument1
Instrument #	1
Line #	1
# of Detectors	3
Detector ID	DET#1	DET#2	DET#3
Detector Name	FID	PTCD	ECD
# of Channels	1	1	1

[Peak Table(Ch1)]
# of Peaks	3
Peak#	R.Time	I.Time	F.Time	Area	Height	A/H	Conc.	Mark	ID#	Name	k'	Plate #	Plate Ht.	Tailing	Resolution	Sep.Factor	Area Ratio	Height Ratio	Conc. %	Norm Conc.
1	1.483	1.446	1.542	10337	5418	1.908	100.000	   	1	CO	0.000	10594	14.159	1.176	0.000	0.000	0	0	16.667	16.667
2	1.575	1.549	1.622	2876	1797	1.600	100.000	   	2	CH4	0.062	16820	8.918	1.279	1.726	0.000	0	0	16.667	16.667
3	2.004	1.960	2.235	732730	411061	1.783	400.000	   	3	CO2	0.351	22317	6.721	1.294	8.394	5.680	0	0	66.667	66.667

[Peak Table(Ch2)]
# of Peaks	0

[Peak Table(Ch3)]
# of Peaks	2
Peak#	R.Time	I.Time	F.Time	Area	Height	A/H	Conc.	Mark	ID#	Name	k'	Plate #	Plate Ht.	Tailing	Resolution	Sep.Factor	Area Ratio	Height Ratio	Conc. %	Norm Conc.
1	2.455	0.779	2.653	14432	370	38.979	0.000	   			0.000	104	1435.626	0.564	0.000	0.000	0	0	0.000	0.000
2	2.884	2.667	3.954	42908	3190	13.450	1.000	   	1	N2O	0.175	8912	16.831	11.212	0.792	0.000	0	0	100.000	100.000

[Compound Results(Ch1)]
# of IDs	6
ID#	Name	R.Time	Area	Height	Conc.	Curve	3rd	2nd	1st	Constant	Area Ratio	Height Ratio	Conc. %	Norm Conc.
1	CO	1.483	10337	5418	100.000	Linear	0.000000e+00	0.000000e+00	1.033677e+002	0.000000e+00	0	0	16.667	16.667
2	CH4	1.575	2876	1797	100.000	Linear	0.000000e+00	0.000000e+00	2.875756e+001	0.000000e+00	0	0	16.667	16.667
3	CO2	2.004	732730	411061	400.000	Linear	0.000000e+00	0.000000e+00	1.831826e+003	0.000000e+00	0	0	66.667	66.667
4	Ethylene	0.000	0	0	0.000	Linear	0.000000e+00	0.000000e+00	0.000000e+00	0.000000e+00	0	0	0.000	0.000
5	Acetylene	0.000	0	0	0.000	Linear	0.000000e+00	0.000000e+00	0.000000e+00	0.000000e+00	0	0	0.000	0.000
6	Ethane	0.000	0	0	0.000	Linear	0.000000e+00	0.000000e+00	0.000000e+00	0.000000e+00	0	0	0.000	0.000

[Compound Results(Ch2)]
# of IDs	5
ID#	Name	R.Time	Area	Height	Conc.	Curve	3rd	2nd	1st	Constant	Area Ratio	Height Ratio	Conc. %	Norm Conc.
1	Hydrogen	0.000	0	0	0.000	Linear	0.000000e+00	0.000000e+00	0.000000e+00	0.000000e+00	0	0	0.000	0.000
2	Oxygen	0.000	0	0	0.000	Linear	0.000000e+00	0.000000e+00	0.000000e+00	0.000000e+00	0	0	0.000	0.000
3	Nitrogen	0.000	0	0	0.000	Linear	0.000000e+00	0.000000e+00	0.000000e+00	0.000000e+00	0	0	0.000	0.000
4	Methane	0.000	0	0	0.000	Linear	0.000000e+00	0.000000e+00	0.000000e+00	0.000000e+00	0	0	0.000	0.000
5	Carbon Monoxide	0.000	0	0	0.000	Linear	0.000000e+00	0.000000e+00	0.000000e+00	0.000000e+00	0	0	0.000	0.000

[Compound Results(Ch3)]
# of IDs	2
ID#	Name	R.Time	Area	Height	Conc.	Curve	3rd	2nd	1st	Constant	Area Ratio	Height Ratio	Conc. %	Norm Conc.
1	N2O	2.884	42908	3190	1.000	Linear	0.000000e+00	0.000000e+00	4.290845e+004	0.000000e+00	0	0	100.000	100.000
2	SF6	0.000	0	0	0.000	Linear	0.000000e+00	0.000000e+00	0.000000e+00	0.000000e+00	0	0	0.000	0.000

[Group Results(Ch1)]
# of Groups	0

[Group Results(Ch2)]
# of Groups	0

[Group Results(Ch3)]
# of Groups	0

[Chromatogram (Ch1)]
Interval(msec)	220
# of Points	1091
Start Time(min)	0.002
End Time(min)	3.998
R.Time (min)	Intensity
0.00167	-11
0.00533	-11
0.00900	-11
0.01267	-8
0.01633	-4
0.02000	1
0.02367	7
0.02733	12
0.03100	12
0.03467	9
0.03833	9
0.04200	12
0.04567	15
0.04933	12
0.05300	12
0.05667	18
0.06033	21
0.06400	20
0.06767	18
0.07133	19
0.07500	17
0.07867	9
0.08233	-0
0.08600	-5
0.08967	-4
0.09333	-1
0.09700	1
0.10067	5
0.10433	8
0.10800	10
0.11167	12
0.11533	15
0.11900	19
0.12267	21
0.12633	21
0.13000	20
0.13367	16
0.13733	10
0.14100	5
0.14467	4
0.14833	6
0.15200	10
0.15567	17
0.15933	24
0.16300	29
0.16667	25
0.17033	15
0.17400	4
0.17767	-6
0.18133	-11
0.18500	-10
0.18867	-7
0.19233	-2
0.19600	3
0.19967	4
0.20333	4
0.20700	4
0.21067	1
0.21433	-4
0.21800	-8
0.22167	-10
0.22533	-10
0.22900	-4
0.23267	6
0.23633	16
0.24000	25
0.24367	27
0.24733	23
0.25100	17
0.25467	9
0.25833	1
0.26200	-3
0.26567	-6
0.26933	-9
0.27300	-8
0.27667	-4
0.28033	-1
0.28400	1
0.28767	4
0.29133	7
0.29500	9
0.29867	10
0.30233	10
0.30600	9
0.30967	7
0.31333	5
0.31700	1
0.32067	-5
0.32433	-11
0.32800	-15
0.33167	-17
0.33533	-16
0.33900	-10
0.34267	-1
0.34633	6
0.35000	6
0.35367	-2
0.35733	-13
0.36100	-21
0.36467	-26
0.36833	-27
0.37200	-25
0.37567	-22
0.37933	-23
0.38300	-26
0.38667	-25
0.39033	-20
0.39400	-13
0.39767	-8
0.40133	-7
0.40500	-8
0.40867	-7
0.41233	-9
0.41600	-11
0.41967	-13
0.42333	-16
0.42700	-19
0.43067	-22
0.43433	-21
0.43800	-17
0.44167	-12
0.44533	-5
0.44900	1
0.45267	3
0.45633	-2
0.46000	-8
0.46367	-14
0.46733	-20
0.47100	-23
0.47467	-23
0.47833	-18
0.48200	-13
0.48567	-7
0.48933	-0
0.49300	3
0.49667	2
0.50033	-3
0.50400	-9
0.50767	-16
0.51133	-22
0.51500	-25
0.51867	-23
0.52233	-18
0.52600	-13
0.52967	-10
0.53333	-9
0.53700	-10
0.54067	-13
0.54433	-16
0.54800	-23
0.55167	-32
0.55533	-38
0.55900	-42
0.56267	-43
0.56633	-39
0.57000	-35
0.57367	-36
0.57733	-40
0.58100	-42
0.58467	-41
0.58833	-40
0.59200	-39
0.59567	-36
0.59933	-33
0.60300	-31
0.60667	-34
0.61033	-39
0.61400	-41
0.61767	-41
0.62133	-39
0.62500	-38
0.62867	-38
0.63233	-38
0.63600	-36
0.63967	-33
0.64333	-27
0.64700	-25
0.65067	-27
0.65433	-34
0.65800	-39
0.66167	-41
0.66533	-39
0.66900	-34
0.67267	-30
0.67633	-34
0.68000	-41
0.68367	-46
0.68733	-48
0.69100	-47
0.69467	-45
0.69833	-44
0.70200	-43
0.70567	-39
0.70933	-33
0.71300	-33
0.71667	-38
0.72033	-49
0.72400	-49
0.72767	-46
0.73133	-43
0.73500	-41
0.73867	-38
0.74233	-39
0.74600	-44
0.74967	-52
0.75333	-58
0.75700	-61
0.76067	-63
0.76433	-64
0.76800	-60
0.77167	-54
0.77533	-50
0.77900	-47
0.78267	-47
0.78633	-49
0.79000	-51
0.79367	-53
0.79733	-54
0.80100	-54
0.80467	-51
0.80833	-48
0.81200	-45
0.81567	-42
0.81933	-39
0.82300	-40
0.82667	-42
0.83033	-45
0.83400	-48
0.83767	-49
0.84133	-49
0.84500	-48
0.84867	-49
0.85233	-54
0.85600	-60
0.85967	-70
0.86333	-80
0.86700	-86
0.87067	-88
0.87433	-85
0.87800	-77
0.88167	-69
0.88533	-66
0.88900	-56
0.89267	-51
0.89633	-51
0.90000	-53
0.90367	-57
0.90733	-61
0.91100	-66
0.91467	-70
0.91833	-73
0.92200	-77
0.92567	-77
0.92933	-75
0.93300	-72
0.93667	-70
0.94033	-68
0.94400	-64
0.94767	-61
0.95133	-61
0.95500	-63
0.95867	-62
0.96233	-58
0.96600	-59
0.96967	-64
0.97333	-70
0.97700	-73
0.98067	-75
0.98433	-77
0.98800	-78
0.99167	-78
0.99533	-78
0.99900	-77
1.00267	-76
1.00633	-75
1.01000	-77
1.01367	-80
1.01733	-81
1.02100	-80
1.02467	-79
1.02833	-76
1.03200	-72
1.03567	-72
1.03933	-73
1.04300	-76
1.04667	-80
1.05033	-87
1.05400	-94
1.05767	-97
1.06133	-94
1.06500	-89
1.06867	-83
1.07233	-76
1.07600	-63
1.07967	-55
1.08333	-58
1.08700	-67
1.09067	-78
1.09433	-89
1.09800	-97
1.10167	-103
1.10533	-107
1.10900	-110
1.11267	-109
1.11633	-105
1.12000	-100
1.12367	-96
1.12733	-93
1.13100	-90
1.13467	-89
1.13833	-94
1.14200	-100
1.14567	-104
1.14933	-109
1.15300	-114
1.15667	-116
1.16033	-117
1.16400	-114
1.16767	-107
1.17133	-97
1.17500	-89
1.17867	-85
1.18233	-83
1.18600	-82
1.18967	-83
1.19333	-88
1.19700	-96
1.20067	-106
1.20433	-116
1.20800	-124
1.21167	-127
1.21533	-124
1.21900	-115
1.22267	-108
1.22633	-106
1.23000	-107
1.23367	-111
1.23733	-112
1.24100	-110
1.24467	-103
1.24833	-95
1.25200	-91
1.25567	-96
1.25933	-106
1.26300	-115
1.26667	-120
1.27033	-123
1.27400	-123
1.27767	-119
1.28133	-115
1.28500	-109
1.28867	-105
1.29233	-105
1.29600	-107
1.29967	-111
1.30333	-115
1.30700	-120
1.31067	-123
1.31433	-122
1.31800	-119
1.32167	-112
1.32533	-104
1.32900	-94
1.33267	-83
1.33633	-76
1.34000	-76
1.34367	-81
1.34733	-90
1.35100	-99
1.35467	-106
1.35833	-112
1.36200	-119
1.36567	-124
1.36933	-127
1.37300	-126
1.37667	-123
1.38033	-120
1.38400	-119
1.38767	-120
1.39133	-121
1.39500	-125
1.39867	-131
1.40233	-137
1.40600	-141
1.40967	-144
1.41333	-144
1.41700	-137
1.42067	-129
1.42433	-122
1.42800	-120
1.43167	-122
1.43533	-126
1.43900	-133
1.44267	-140
1.44633	-133
1.45000	-98
1.45367	40
1.45733	381
1.46100	924
1.46467	1635
1.46833	2507
1.47200	3495
1.47567	4438
1.47933	5099
1.48300	5282
1.48667	4949
1.49033	4240
1.49400	3370
1.49767	2526
1.50133	1811
1.50500	1255
1.50867	843
1.51233	545
1.51600	331
1.51967	177
1.52333	70
1.52700	-2
1.53067	-51
1.53433	-87
1.53800	-117
1.54167	-141
1.54533	-159
1.54900	-161
1.55267	-112
1.55633	48
1.56000	358
1.56367	782
1.56733	1214
1.57100	1529
1.57467	1639
1.57833	1530
1.58200	1269
1.58567	949
1.58933	645
1.59300	396
1.59667	210
1.60033	78
1.60400	-10
1.60767	-68
1.61133	-104
1.61500	-127
1.61867	-142
1.62233	-154
1.62600	-160
1.62967	-162
1.63333	-166
1.63700	-169
1.64067	-169
1.64433	-167
1.64800	-168
1.65167	-175
1.65533	-182
1.65900	-184
1.66267	-182
1.66633	-180
1.67000	-181
1.67367	-183
1.67733	-185
1.68100	-185
1.68467	-183
1.68833	-180
1.69200	-178
1.69567	-177
1.69933	-175
1.70300	-168
1.70667	-160
1.71033	-156
1.71400	-156
1.71767	-160
1.72133	-162
1.72500	-162
1.72867	-160
1.73233	-160
1.73600	-161
1.73967	-165
1.74333	-167
1.74700	-164
1.75067	-160
1.75433	-159
1.75800	-160
1.76167	-163
1.76533	-164
1.76900	-162
1.77267	-159
1.77633	-156
1.78000	-154
1.78367	-150
1.78733	-146
1.79100	-146
1.79467	-150
1.79833	-151
1.80200	-150
1.80567	-148
1.80933	-146
1.81300	-145
1.81667	-145
1.82033	-147
1.82400	-147
1.82767	-144
1.83133	-141
1.83500	-139
1.83867	-137
1.84233	-136
1.84600	-139
1.84967	-146
1.85333	-156
1.85700	-168
1.86067	-179
1.86433	-185
1.86800	-184
1.87167	-179
1.87533	-170
1.87900	-163
1.88267	-157
1.88633	-156
1.89000	-157
1.89367	-155
1.89733	-151
1.90100	-145
1.90467	-141
1.90833	-141
1.91200	-143
1.91567	-148
1.91933	-154
1.92300	-157
1.92667	-156
1.93033	-152
1.93400	-146
1.93767	-137
1.94133	-130
1.94500	-129
1.94867	-130
1.95233	-129
1.95600	-126
1.95967	-119
1.96333	-100
1.96700	-7
1.97067	474
1.97433	2578
1.97800	9789
1.98167	29039
1.98533	69441
1.98900	136303
1.99267	223839
1.99633	313629
2.00000	381899
2.00367	410965
2.00733	396801
2.01100	348689
2.01467	282966
2.01833	215276
2.02200	155797
2.02567	108715
2.02933	74015
2.03300	49668
2.03667	33144
2.04033	22170
2.04400	14974
2.04767	10277
2.05133	7206
2.05500	5181
2.05867	3828
2.06233	2907
2.06600	2266
2.06967	1811
2.07333	1479
2.07700	1232
2.08067	1043
2.08433	895
2.08800	778
2.09167	685
2.09533	610
2.09900	547
2.10267	492
2.10633	445
2.11000	402
2.11367	363
2.11733	331
2.12100	306
2.12467	287
2.12833	272
2.13200	258
2.13567	245
2.13933	229
2.14300	209
2.14667	190
2.15033	174
2.15400	159
2.15767	147
2.16133	138
2.16500	132
2.16867	128
2.17233	124
2.17600	121
2.17967	115
2.18333	104
2.18700	93
2.19067	85
2.19433	77
2.19800	75
2.20167	75
2.20533	76
2.20900	76
2.21267	74
2.21633	71
2.22000	66
2.22367	59
2.22733	49
2.23100	37
2.23467	24
2.23833	16
2.24200	13
2.24567	11
2.24933	8
2.25300	7
2.25667	9
2.26033	12
2.26400	15
2.26767	17
2.27133	19
2.27500	19
2.27867	17
2.28233	12
2.28600	6
2.28967	3
2.29333	4
2.29700	4
2.30067	5
2.30433	7
2.30800	8
2.31167	8
2.31533	3
2.31900	-3
2.32267	-8
2.32633	-13
2.33000	-18
2.33367	-21
2.33733	-19
2.34100	-17
2.34467	-17
2.34833	-16
2.35200	-11
2.35567	-4
2.35933	3
2.36300	6
2.36667	4
2.37033	-2
2.37400	-8
2.37767	-12
2.38133	-13
2.38500	-13
2.38867	-16
2.39233	-20
2.39600	-22
2.39967	-21
2.40333	-17
2.40700	-9
2.41067	3
2.41433	16
2.41800	26
2.42167	29
2.42533	20
2.42900	6
2.43267	-9
2.43633	-20
2.44000	-23
2.44367	-23
2.44733	-24
2.45100	-24
2.45467	-21
2.45833	-16
2.46200	-13
2.46567	-12
2.46933	-12
2.47300	-14
2.47667	-17
2.48033	-20
2.48400	-23
2.48767	-29
2.49133	-35
2.49500	-40
2.49867	-38
2.50233	-33
2.50600	-28
2.50967	-24
2.51333	-20
2.51700	-15
2.52067	-13
2.52433	-13
2.52800	-13
2.53167	-12
2.53533	-13
2.53900	-16
2.54267	-20
2.54633	-23
2.55000	-23
2.55367	-23
2.55733	-22
2.56100	-19
2.56467	-13
2.56833	-5
2.57200	2
2.57567	5
2.57933	5
2.58300	2
2.58667	-2
2.59033	-2
2.59400	-1
2.59767	-2
2.60133	-4
2.60500	-8
2.60867	-14
2.61233	-22
2.61600	-32
2.61967	-39
2.62333	-41
2.62700	-42
2.63067	-39
2.63433	-29
2.63800	-20
2.64167	-17
2.64533	-16
2.64900	-17
2.65267	-22
2.65633	-27
2.66000	-28
2.66367	-29
2.66733	-31
2.67100	-34
2.67467	-39
2.67833	-45
2.68200	-47
2.68567	-47
2.68933	-43
2.69300	-38
2.69667	-34
2.70033	-28
2.70400	-23
2.70767	-19
2.71133	-17
2.71500	-14
2.71867	-9
2.72233	-4
2.72600	-5
2.72967	-10
2.73333	-16
2.73700	-21
2.74067	-26
2.74433	-28
2.74800	-24
2.75167	-20
2.75533	-16
2.75900	-13
2.76267	-10
2.76633	-10
2.77000	-13
2.77367	-16
2.77733	-17
2.78100	-19
2.78467	-25
2.78833	-33
2.79200	-40
2.79567	-43
2.79933	-43
2.80300	-41
2.80667	-39
2.81033	-37
2.81400	-36
2.81767	-34
2.82133	-28
2.82500	-20
2.82867	-16
2.83233	-15
2.83600	-14
2.83967	-14
2.84333	-16
2.84700	-20
2.85067	-28
2.85433	-31
2.85800	-32
2.86167	-34
2.86533	-36
2.86900	-35
2.87267	-35
2.87633	-30
2.88000	-23
2.88367	-17
2.88733	-14
2.89100	-11
2.89467	-10
2.89833	-15
2.90200	-22
2.90567	-28
2.90933	-32
2.91300	-34
2.91667	-34
2.92033	-32
2.92400	-27
2.92767	-22
2.93133	-16
2.93500	-12
2.93867	-12
2.94233	-15
2.94600	-19
2.94967	-24
2.95333	-29
2.95700	-33
2.96067	-33
2.96433	-35
2.96800	-38
2.97167	-42
2.97533	-42
2.97900	-37
2.98267	-30
2.98633	-29
2.99000	-32
2.99367	-32
2.99733	-30
3.00100	-28
3.00467	-27
3.00833	-25
3.01200	-20
3.01567	-16
3.01933	-17
3.02300	-21
3.02667	-26
3.03033	-27
3.03400	-22
3.03767	-17
3.04133	-15
3.04500	-19
3.04867	-24
3.05233	-30
3.05600	-33
3.05967	-31
3.06333	-28
3.06700	-22
3.07067	-12
3.07433	-3
3.07800	-1
3.08167	-7
3.08533	-22
3.08900	-40
3.09267	-52
3.09633	-57
3.10000	-58
3.10367	-57
3.10733	-54
3.11100	-50
3.11467	-46
3.11833	-44
3.12200	-44
3.12567	-45
3.12933	-44
3.13300	-43
3.13667	-43
3.14033	-45
3.14400	-48
3.14767	-50
3.15133	-46
3.15500	-40
3.15867	-35
3.16233	-34
3.16600	-35
3.16967	-34
3.17333	-31
3.17700	-28
3.18067	-25
3.18433	-25
3.18800	-26
3.19167	-28
3.19533	-30
3.19900	-33
3.20267	-37
3.20633	-41
3.21000	-42
3.21367	-38
3.21733	-32
3.22100	-26
3.22467	-22
3.22833	-21
3.23200	-23
3.23567	-26
3.23933	-30
3.24300	-31
3.24667	-32
3.25033	-35
3.25400	-39
3.25767	-41
3.26133	-40
3.26500	-36
3.26867	-35
3.27233	-35
3.27600	-31
3.27967	-24
3.28333	-21
3.28700	-22
3.29067	-27
3.29433	-32
3.29800	-34
3.30167	-33
3.30533	-30
3.30900	-29
3.31267	-30
3.31633	-26
3.32000	-23
3.32367	-22
3.32733	-23
3.33100	-25
3.33467	-28
3.33833	-31
3.34200	-33
3.34567	-34
3.34933	-32
3.35300	-28
3.35667	-23
3.36033	-19
3.36400	-14
3.36767	-11
3.37133	-13
3.37500	-19
3.37867	-24
3.38233	-28
3.38600	-30
3.38967	-32
3.39333	-32
3.39700	-31
3.40067	-31
3.40433	-34
3.40800	-35
3.41167	-35
3.41533	-31
3.41900	-28
3.42267	-28
3.42633	-30
3.43000	-32
3.43367	-34
3.43733	-34
3.44100	-31
3.44467	-28
3.44833	-25
3.45200	-24
3.45567	-22
3.45933	-20
3.46300	-20
3.46667	-20
3.47033	-20
3.47400	-19
3.47767	-20
3.48133	-21
3.48500	-21
3.48867	-18
3.49233	-12
3.49600	-7
3.49967	-5
3.50333	-6
3.50700	-12
3.51067	-20
3.51433	-25
3.51800	-29
3.52167	-30
3.52533	-33
3.52900	-37
3.53267	-43
3.53633	-49
3.54000	-51
3.54367	-50
3.54733	-49
3.55100	-46
3.55467	-44
3.55833	-40
3.56200	-36
3.56567	-34
3.56933	-32
3.57300	-30
3.57667	-28
3.58033	-28
3.58400	-30
3.58767	-32
3.59133	-35
3.59500	-37
3.59867	-39
3.60233	-40
3.60600	-38
3.60967	-36
3.61333	-39
3.61700	-44
3.62067	-47
3.62433	-45
3.62800	-36
3.63167	-28
3.63533	-24
3.63900	-26
3.64267	-29
3.64633	-37
3.65000	-46
3.65367	-50
3.65733	-48
3.66100	-41
3.66467	-35
3.66833	-33
3.67200	-34
3.67567	-36
3.67933	-40
3.68300	-44
3.68667	-45
3.69033	-47
3.69400	-48
3.69767	-48
3.70133	-48
3.70500	-52
3.70867	-58
3.71233	-60
3.71600	-55
3.71967	-49
3.72333	-46
3.72700	-44
3.73067	-42
3.73433	-43
3.73800	-40
3.74167	-36
3.74533	-36
3.74900	-41
3.75267	-48
3.75633	-55
3.76000	-58
3.76367	-58
3.76733	-53
3.77100	-47
3.77467	-46
3.77833	-46
3.78200	-47
3.78567	-45
3.78933	-44
3.79300	-44
3.79667	-50
3.80033	-56
3.80400	-60
3.80767	-63
3.81133	-65
3.81500	-66
3.81867	-63
3.82233	-54
3.82600	-46
3.82967	-43
3.83333	-46
3.83700	-50
3.84067	-55
3.84433	-59
3.84800	-63
3.85167	-68
3.85533	-71
3.85900	-71
3.86267	-70
3.86633	-69
3.87000	-68
3.87367	-67
3.87733	-66
3.88100	-62
3.88467	-58
3.88833	-54
3.89200	-53
3.89567	-55
3.89933	-60
3.90300	-65
3.90667	-67
3.91033	-68
3.91400	-68
3.91767	-66
3.92133	-66
3.92500	-67
3.92867	-66
3.93233	-62
3.93600	-59
3.93967	-56
3.94333	-52
3.94700	-49
3.95067	-52
3.95433	-60
3.95800	-64
3.96167	-63
3.96533	-62
3.96900	-63
3.97267	-66
3.97633	-69
3.98000	-69
3.98367	-67
3.98733	-65
3.99100	-65
3.99467	-66
3.99833	-68

[Chromatogram (Ch2)]
Interval(msec)	220
# of Points	1091
Start Time(min)	0.002
End Time(min)	3.998
R.Time (min)	Intensity
0.00167	-0
0.00533	-0
0.00900	-1
0.01267	-1
0.01633	-1
0.02000	-1
0.02367	-2
0.02733	-2
0.03100	-2
0.03467	-2
0.03833	-3
0.04200	-3
0.04567	-3
0.04933	-4
0.05300	-4
0.05667	-4
0.06033	-4
0.06400	-4
0.06767	-4
0.07133	-4
0.07500	-4
0.07867	-3
0.08233	-3
0.08600	-3
0.08967	-3
0.09333	-2
0.09700	-2
0.10067	-1
0.10433	-0
0.10800	0
0.11167	0
0.11533	1
0.11900	1
0.12267	1
0.12633	2
0.13000	2
0.13367	2
0.13733	2
0.14100	2
0.14467	2
0.14833	2
0.15200	2
0.15567	2
0.15933	1
0.16300	1
0.16667	1
0.17033	-0
0.17400	-1
0.17767	-1
0.18133	-2
0.18500	-2
0.18867	-2
0.19233	-3
0.19600	-3
0.19967	-3
0.20333	-3
0.20700	-3
0.21067	-3
0.21433	-2
0.21800	-2
0.22167	-2
0.22533	-2
0.22900	-2
0.23267	-2
0.23633	-2
0.24000	-1
0.24367	-1
0.24733	-1
0.25100	-1
0.25467	-1
0.25833	-1
0.26200	-0
0.26567	-0
0.26933	-0
0.27300	-1
0.27667	-1
0.28033	-1
0.28400	-1
0.28767	-1
0.29133	-1
0.29500	-1
0.29867	-1
0.30233	-1
0.30600	-1
0.30967	-2
0.31333	-2
0.31700	-2
0.32067	-2
0.32433	-2
0.32800	-2
0.33167	-2
0.33533	-3
0.33900	-3
0.34267	-3
0.34633	-3
0.35000	-4
0.35367	-4
0.35733	-4
0.36100	-4
0.36467	-5
0.36833	-5
0.37200	-5
0.37567	-5
0.37933	-6
0.38300	-6
0.38667	-6
0.39033	-6
0.39400	-5
0.39767	-5
0.40133	-5
0.40500	-5
0.40867	-5
0.41233	-5
0.41600	-4
0.41967	-4
0.42333	-4
0.42700	-4
0.43067	-4
0.43433	-4
0.43800	-4
0.44167	-3
0.44533	-3
0.44900	-3
0.45267	-3
0.45633	-3
0.46000	-3
0.46367	-3
0.46733	-3
0.47100	-3
0.47467	-3
0.47833	-3
0.48200	-3
0.48567	-3
0.48933	-3
0.49300	-3
0.49667	-3
0.50033	-4
0.50400	-4
0.50767	-4
0.51133	-5
0.51500	-5
0.51867	-6
0.52233	-6
0.52600	-6
0.52967	-6
0.53333	-5
0.53700	-5
0.54067	-5
0.54433	-4
0.54800	-4
0.55167	-3
0.55533	-2
0.55900	-2
0.56267	-2
0.56633	-1
0.57000	-1
0.57367	-1
0.57733	-1
0.58100	-1
0.58467	-0
0.58833	-0
0.59200	0
0.59567	1
0.59933	1
0.60300	1
0.60667	1
0.61033	2
0.61400	2
0.61767	2
0.62133	2
0.62500	2
0.62867	2
0.63233	1
0.63600	1
0.63967	1
0.64333	0
0.64700	-0
0.65067	-1
0.65433	-1
0.65800	-1
0.66167	-1
0.66533	-2
0.66900	-2
0.67267	-2
0.67633	-2
0.68000	-2
0.68367	-2
0.68733	-3
0.69100	-3
0.69467	-3
0.69833	-2
0.70200	-2
0.70567	-2
0.70933	-2
0.71300	-2
0.71667	-2
0.72033	-3
0.72400	-2
0.72767	-3
0.73133	-3
0.73500	-3
0.73867	-3
0.74233	-3
0.74600	-3
0.74967	-3
0.75333	-3
0.75700	-3
0.76067	-3
0.76433	-2
0.76800	-2
0.77167	-2
0.77533	-2
0.77900	-3
0.78267	-3
0.78633	-3
0.79000	-3
0.79367	-3
0.79733	-3
0.80100	-3
0.80467	-4
0.80833	-4
0.81200	-4
0.81567	-4
0.81933	-5
0.82300	-4
0.82667	-4
0.83033	-4
0.83400	-4
0.83767	-4
0.84133	-4
0.84500	-4
0.84867	-3
0.85233	-3
0.85600	-3
0.85967	-3
0.86333	-3
0.86700	-3
0.87067	-3
0.87433	-2
0.87800	-2
0.88167	-2
0.88533	-2
0.88900	-2
0.89267	-2
0.89633	-2
0.90000	-2
0.90367	-3
0.90733	-3
0.91100	-3
0.91467	-3
0.91833	-3
0.92200	-3
0.92567	-3
0.92933	-3
0.93300	-3
0.93667	-3
0.94033	-3
0.94400	-3
0.94767	-3
0.95133	-3
0.95500	-3
0.95867	-3
0.96233	-3
0.96600	-3
0.96967	-3
0.97333	-3
0.97700	-3
0.98067	-3
0.98433	-3
0.98800	-3
0.99167	-3
0.99533	-3
0.99900	-3
1.00267	-3
1.00633	-3
1.01000	-3
1.01367	-3
1.01733	-3
1.02100	-3
1.02467	-3
1.02833	-4
1.03200	-4
1.03567	-4
1.03933	-4
1.04300	-5
1.04667	-5
1.05033	-5
1.05400	-5
1.05767	-5
1.06133	-6
1.06500	-6
1.06867	-6
1.07233	-7
1.07600	-7
1.07967	-7
1.08333	-8
1.08700	-8
1.09067	-8
1.09433	-8
1.09800	-8
1.10167	-8
1.10533	-8
1.10900	-7
1.11267	-7
1.11633	-7
1.12000	-7
1.12367	-6
1.12733	-6
1.13100	-6
1.13467	-5
1.13833	-5
1.14200	-5
1.14567	-4
1.14933	-4
1.15300	-4
1.15667	-3
1.16033	-3
1.16400	-3
1.16767	-2
1.17133	-2
1.17500	-2
1.17867	-2
1.18233	-2
1.18600	-2
1.18967	-2
1.19333	-2
1.19700	-2
1.20067	-2
1.20433	-2
1.20800	-2
1.21167	-2
1.21533	-2
1.21900	-2
1.22267	-2
1.22633	-2
1.23000	-2
1.23367	-2
1.23733	-3
1.24100	-3
1.24467	-3
1.24833	-3
1.25200	-3
1.25567	-3
1.25933	-3
1.26300	-3
1.26667	-4
1.27033	-4
1.27400	-4
1.27767	-4
1.28133	-5
1.28500	-5
1.28867	-5
1.29233	-5
1.29600	-5
1.29967	-5
1.30333	-4
1.30700	-4
1.31067	-4
1.31433	-4
1.31800	-4
1.32167	-4
1.32533	-4
1.32900	-4
1.33267	-4
1.33633	-4
1.34000	-4
1.34367	-4
1.34733	-3
1.35100	-3
1.35467	-3
1.35833	-3
1.36200	-3
1.36567	-3
1.36933	-3
1.37300	-3
1.37667	-3
1.38033	-4
1.38400	-4
1.38767	-4
1.39133	-4
1.39500	-5
1.39867	-5
1.40233	-5
1.40600	-5
1.40967	-5
1.41333	-5
1.41700	-5
1.42067	-5
1.42433	-5
1.42800	-5
1.43167	-5
1.43533	-6
1.43900	-6
1.44267	-6
1.44633	-6
1.45000	-6
1.45367	-5
1.45733	-5
1.46100	-5
1.46467	-5
1.46833	-4
1.47200	-4
1.47567	-4
1.47933	-4
1.48300	-4
1.48667	-4
1.49033	-4
1.49400	-4
1.49767	-4
1.50133	-4
1.50500	-4
1.50867	-4
1.51233	-4
1.51600	-4
1.51967	-3
1.52333	-4
1.52700	-4
1.53067	-4
1.53433	-4
1.53800	-4
1.54167	-4
1.54533	-4
1.54900	-4
1.55267	-4
1.55633	-4
1.56000	-5
1.56367	-5
1.56733	-5
1.57100	-5
1.57467	-6
1.57833	-6
1.58200	-7
1.58567	-7
1.58933	-8
1.59300	-8
1.59667	-9
1.60033	-10
1.60400	-11
1.60767	-13
1.61133	-15
1.61500	-17
1.61867	-19
1.62233	-21
1.62600	-24
1.62967	-27
1.63333	-30
1.63700	-33
1.64067	-37
1.64433	-40
1.64800	-43
1.65167	-47
1.65533	-50
1.65900	-54
1.66267	-57
1.66633	-60
1.67000	-63
1.67367	-67
1.67733	-70
1.68100	-73
1.68467	-77
1.68833	-82
1.69200	-86
1.69567	-90
1.69933	-94
1.70300	-98
1.70667	-101
1.71033	-104
1.71400	-106
1.71767	-108
1.72133	-109
1.72500	-110
1.72867	-111
1.73233	-112
1.73600	-112
1.73967	-113
1.74333	-113
1.74700	-113
1.75067	-113
1.75433	-114
1.75800	-115
1.76167	-116
1.76533	-117
1.76900	-118
1.77267	-119
1.77633	-120
1.78000	-121
1.78367	-122
1.78733	-123
1.79100	-123
1.79467	-122
1.79833	-122
1.80200	-122
1.80567	-122
1.80933	-123
1.81300	-123
1.81667	-123
1.82033	-124
1.82400	-125
1.82767	-126
1.83133	-127
1.83500	-127
1.83867	-127
1.84233	-126
1.84600	-125
1.84967	-124
1.85333	-122
1.85700	-121
1.86067	-120
1.86433	-119
1.86800	-119
1.87167	-119
1.87533	-119
1.87900	-119
1.88267	-119
1.88633	-120
1.89000	-120
1.89367	-120
1.89733	-120
1.90100	-120
1.90467	-120
1.90833	-120
1.91200	-120
1.91567	-120
1.91933	-121
1.92300	-121
1.92667	-121
1.93033	-121
1.93400	-121
1.93767	-121
1.94133	-120
1.94500	-120
1.94867	-119
1.95233	-118
1.95600	-118
1.95967	-117
1.96333	-117
1.96700	-117
1.97067	-117
1.97433	-117
1.97800	-117
1.98167	-117
1.98533	-117
1.98900	-117
1.99267	-117
1.99633	-117
2.00000	-117
2.00367	-117
2.00733	-117
2.01100	-116
2.01467	-116
2.01833	-116
2.02200	-115
2.02567	-115
2.02933	-115
2.03300	-115
2.03667	-115
2.04033	-115
2.04400	-114
2.04767	-114
2.05133	-114
2.05500	-114
2.05867	-114
2.06233	-113
2.06600	-113
2.06967	-113
2.07333	-113
2.07700	-113
2.08067	-113
2.08433	-114
2.08800	-114
2.09167	-114
2.09533	-114
2.09900	-113
2.10267	-112
2.10633	-111
2.11000	-110
2.11367	-109
2.11733	-108
2.12100	-108
2.12467	-107
2.12833	-107
2.13200	-106
2.13567	-106
2.13933	-106
2.14300	-106
2.14667	-106
2.15033	-106
2.15400	-105
2.15767	-105
2.16133	-104
2.16500	-103
2.16867	-103
2.17233	-102
2.17600	-101
2.17967	-100
2.18333	-100
2.18700	-99
2.19067	-98
2.19433	-98
2.19800	-98
2.20167	-98
2.20533	-98
2.20900	-98
2.21267	-98
2.21633	-98
2.22000	-97
2.22367	-96
2.22733	-96
2.23100	-95
2.23467	-95
2.23833	-94
2.24200	-94
2.24567	-94
2.24933	-95
2.25300	-95
2.25667	-95
2.26033	-95
2.26400	-94
2.26767	-93
2.27133	-93
2.27500	-93
2.27867	-92
2.28233	-92
2.28600	-92
2.28967	-92
2.29333	-92
2.29700	-91
2.30067	-91
2.30433	-90
2.30800	-90
2.31167	-90
2.31533	-90
2.31900	-90
2.32267	-90
2.32633	-90
2.33000	-89
2.33367	-89
2.33733	-88
2.34100	-88
2.34467	-88
2.34833	-88
2.35200	-89
2.35567	-89
2.35933	-88
2.36300	-88
2.36667	-86
2.37033	-84
2.37400	-82
2.37767	-79
2.38133	-75
2.38500	-70
2.38867	-66
2.39233	-61
2.39600	-56
2.39967	-52
2.40333	-48
2.40700	-44
2.41067	-40
2.41433	-36
2.41800	-31
2.42167	-27
2.42533	-24
2.42900	-21
2.43267	-18
2.43633	-16
2.44000	-14
2.44367	-12
2.44733	-11
2.45100	-9
2.45467	-8
2.45833	-6
2.46200	-5
2.46567	-4
2.46933	-3
2.47300	-2
2.47667	-1
2.48033	-0
2.48400	0
2.48767	1
2.49133	1
2.49500	2
2.49867	2
2.50233	3
2.50600	4
2.50967	5
2.51333	6
2.51700	7
2.52067	8
2.52433	8
2.52800	9
2.53167	9
2.53533	9
2.53900	10
2.54267	10
2.54633	10
2.55000	11
2.55367	10
2.55733	10
2.56100	9
2.56467	9
2.56833	9
2.57200	10
2.57567	10
2.57933	10
2.58300	11
2.58667	11
2.59033	11
2.59400	11
2.59767	11
2.60133	11
2.60500	11
2.60867	11
2.61233	11
2.61600	12
2.61967	12
2.62333	13
2.62700	14
2.63067	14
2.63433	15
2.63800	15
2.64167	15
2.64533	15
2.64900	14
2.65267	14
2.65633	15
2.66000	15
2.66367	16
2.66733	16
2.67100	17
2.67467	18
2.67833	18
2.68200	19
2.68567	19
2.68933	20
2.69300	20
2.69667	19
2.70033	19
2.70400	19
2.70767	18
2.71133	18
2.71500	17
2.71867	17
2.72233	18
2.72600	18
2.72967	18
2.73333	19
2.73700	19
2.74067	20
2.74433	20
2.74800	21
2.75167	21
2.75533	21
2.75900	22
2.76267	22
2.76633	22
2.77000	23
2.77367	23
2.77733	23
2.78100	24
2.78467	24
2.78833	24
2.79200	24
2.79567	23
2.79933	23
2.80300	23
2.80667	23
2.81033	23
2.81400	23
2.81767	23
2.82133	22
2.82500	22
2.82867	22
2.83233	22
2.83600	22
2.83967	22
2.84333	22
2.84700	22
2.85067	22
2.85433	22
2.85800	22
2.86167	20
2.86533	18
2.86900	15
2.87267	8
2.87633	-1
2.88000	-13
2.88367	-29
2.88733	-49
2.89100	-73
2.89467	-101
2.89833	-133
2.90200	-167
2.90567	-204
2.90933	-244
2.91300	-285
2.91667	-328
2.92033	-372
2.92400	-416
2.92767	-463
2.93133	-514
2.93500	-569
2.93867	-622
2.94233	-665
2.94600	-691
2.94967	-699
2.95333	-687
2.95700	-660
2.96067	-621
2.96433	-575
2.96800	-524
2.97167	-472
2.97533	-421
2.97900	-372
2.98267	-326
2.98633	-284
2.99000	-246
2.99367	-212
2.99733	-181
3.00100	-154
3.00467	-131
3.00833	-111
3.01200	-93
3.01567	-78
3.01933	-65
3.02300	-54
3.02667	-44
3.03033	-36
3.03400	-28
3.03767	-22
3.04133	-17
3.04500	-12
3.04867	-9
3.05233	-5
3.05600	-2
3.05967	0
3.06333	3
3.06700	4
3.07067	6
3.07433	8
3.07800	9
3.08167	10
3.08533	10
3.08900	11
3.09267	12
3.09633	12
3.10000	13
3.10367	13
3.10733	14
3.11100	14
3.11467	15
3.11833	15
3.12200	15
3.12567	15
3.12933	15
3.13300	15
3.13667	15
3.14033	15
3.14400	15
3.14767	15
3.15133	15
3.15500	15
3.15867	15
3.16233	15
3.16600	15
3.16967	16
3.17333	16
3.17700	16
3.18067	16
3.18433	16
3.18800	17
3.19167	17
3.19533	17
3.19900	17
3.20267	18
3.20633	18
3.21000	18
3.21367	19
3.21733	19
3.22100	19
3.22467	19
3.22833	19
3.23200	20
3.23567	20
3.23933	20
3.24300	20
3.24667	20
3.25033	20
3.25400	20
3.25767	21
3.26133	21
3.26500	21
3.26867	21
3.27233	21
3.27600	21
3.27967	21
3.28333	21
3.28700	21
3.29067	21
3.29433	21
3.29800	21
3.30167	21
3.30533	21
3.30900	21
3.31267	21
3.31633	21
3.32000	21
3.32367	21
3.32733	21
3.33100	21
3.33467	20
3.33833	20
3.34200	20
3.34567	20
3.34933	20
3.35300	21
3.35667	21
3.36033	21
3.36400	21
3.36767	21
3.37133	21
3.37500	21
3.37867	21
3.38233	21
3.38600	21
3.38967	21
3.39333	22
3.39700	22
3.40067	22
3.40433	22
3.40800	22
3.41167	23
3.41533	23
3.41900	23
3.42267	23
3.42633	23
3.43000	23
3.43367	23
3.43733	23
3.44100	23
3.44467	23
3.44833	24
3.45200	24
3.45567	24
3.45933	24
3.46300	24
3.46667	24
3.47033	24
3.47400	24
3.47767	24
3.48133	24
3.48500	24
3.48867	24
3.49233	24
3.49600	24
3.49967	24
3.50333	24
3.50700	24
3.51067	23
3.51433	23
3.51800	23
3.52167	23
3.52533	23
3.52900	22
3.53267	22
3.53633	22
3.54000	22
3.54367	22
3.54733	22
3.55100	21
3.55467	21
3.55833	21
3.56200	21
3.56567	21
3.56933	21
3.57300	20
3.57667	20
3.58033	20
3.58400	20
3.58767	20
3.59133	20
3.59500	20
3.59867	21
3.60233	21
3.60600	21
3.60967	21
3.61333	21
3.61700	22
3.62067	22
3.62433	22
3.62800	22
3.63167	22
3.63533	22
3.63900	22
3.64267	22
3.64633	22
3.65000	22
3.65367	22
3.65733	23
3.66100	23
3.66467	23
3.66833	23
3.67200	23
3.67567	23
3.67933	23
3.68300	23
3.68667	23
3.69033	23
3.69400	22
3.69767	22
3.70133	21
3.70500	21
3.70867	21
3.71233	20
3.71600	20
3.71967	20
3.72333	19
3.72700	19
3.73067	19
3.73433	19
3.73800	19
3.74167	19
3.74533	19
3.74900	19
3.75267	20
3.75633	20
3.76000	20
3.76367	21
3.76733	21
3.77100	21
3.77467	21
3.77833	22
3.78200	22
3.78567	22
3.78933	22
3.79300	22
3.79667	23
3.80033	23
3.80400	23
3.80767	23
3.81133	24
3.81500	24
3.81867	24
3.82233	24
3.82600	25
3.82967	25
3.83333	25
3.83700	25
3.84067	25
3.84433	25
3.84800	25
3.85167	25
3.85533	25
3.85900	25
3.86267	25
3.86633	25
3.87000	25
3.87367	25
3.87733	25
3.88100	24
3.88467	24
3.88833	24
3.89200	24
3.89567	24
3.89933	24
3.90300	25
3.90667	25
3.91033	24
3.91400	24
3.91767	24
3.92133	24
3.92500	24
3.92867	24
3.93233	24
3.93600	24
3.93967	24
3.94333	23
3.94700	23
3.95067	23
3.95433	23
3.95800	23
3.96167	22
3.96533	22
3.96900	22
3.97267	22
3.97633	22
3.98000	21
3.98367	21
3.98733	21
3.99100	21
3.99467	21
3.99833	21

[Chromatogram (Ch3)]
Interval(msec)	220
# of Points	1091
Start Time(min)	0.002
End Time(min)	3.998
R.Time (min)	Intensity
0.00167	1
0.00533	1
0.00900	3
0.01267	2
0.01633	1
0.02000	1
0.02367	2
0.02733	3
0.03100	2
0.03467	2
0.03833	2
0.04200	0
0.04567	-2
0.04933	-3
0.05300	-1
0.05667	1
0.06033	2
0.06400	4
0.06767	5
0.07133	5
0.07500	3
0.07867	4
0.08233	5
0.08600	5
0.08967	3
0.09333	-1
0.09700	-2
0.10067	-1
0.10433	1
0.10800	2
0.11167	1
0.11533	1
0.11900	-0
0.12267	0
0.12633	2
0.13000	4
0.13367	5
0.13733	6
0.14100	7
0.14467	9
0.14833	9
0.15200	9
0.15567	9
0.15933	7
0.16300	5
0.16667	3
0.17033	3
0.17400	3
0.17767	3
0.18133	3
0.18500	3
0.18867	5
0.19233	4
0.19600	1
0.19967	0
0.20333	2
0.20700	2
0.21067	1
0.21433	3
0.21800	5
0.22167	5
0.22533	2
0.22900	4
0.23267	4
0.23633	2
0.24000	1
0.24367	2
0.24733	2
0.25100	1
0.25467	0
0.25833	-1
0.26200	-2
0.26567	-1
0.26933	1
0.27300	4
0.27667	4
0.28033	3
0.28400	2
0.28767	2
0.29133	2
0.29500	3
0.29867	4
0.30233	3
0.30600	4
0.30967	5
0.31333	5
0.31700	6
0.32067	8
0.32433	8
0.32800	7
0.33167	6
0.33533	6
0.33900	7
0.34267	8
0.34633	7
0.35000	5
0.35367	6
0.35733	8
0.36100	8
0.36467	8
0.36833	9
0.37200	8
0.37567	8
0.37933	6
0.38300	4
0.38667	3
0.39033	4
0.39400	4
0.39767	3
0.40133	4
0.40500	5
0.40867	8
0.41233	11
0.41600	12
0.41967	12
0.42333	14
0.42700	15
0.43067	15
0.43433	14
0.43800	13
0.44167	13
0.44533	12
0.44900	10
0.45267	11
0.45633	12
0.46000	13
0.46367	12
0.46733	10
0.47100	7
0.47467	5
0.47833	6
0.48200	6
0.48567	6
0.48933	7
0.49300	8
0.49667	10
0.50033	14
0.50400	15
0.50767	16
0.51133	16
0.51500	15
0.51867	12
0.52233	12
0.52600	12
0.52967	11
0.53333	11
0.53700	11
0.54067	11
0.54433	12
0.54800	13
0.55167	14
0.55533	13
0.55900	13
0.56267	14
0.56633	13
0.57000	12
0.57367	10
0.57733	9
0.58100	10
0.58467	15
0.58833	20
0.59200	23
0.59567	21
0.59933	19
0.60300	17
0.60667	16
0.61033	15
0.61400	15
0.61767	14
0.62133	13
0.62500	11
0.62867	12
0.63233	14
0.63600	16
0.63967	19
0.64333	21
0.64700	19
0.65067	18
0.65433	19
0.65800	22
0.66167	22
0.66533	21
0.66900	21
0.67267	22
0.67633	20
0.68000	19
0.68367	19
0.68733	19
0.69100	19
0.69467	19
0.69833	17
0.70200	15
0.70567	15
0.70933	16
0.71300	16
0.71667	16
0.72033	16
0.72400	16
0.72767	16
0.73133	16
0.73500	17
0.73867	16
0.74233	15
0.74600	17
0.74967	19
0.75333	19
0.75700	19
0.76067	18
0.76433	17
0.76800	15
0.77167	14
0.77533	14
0.77900	16
0.78267	17
0.78633	20
0.79000	22
0.79367	22
0.79733	22
0.80100	23
0.80467	23
0.80833	23
0.81200	22
0.81567	24
0.81933	26
0.82300	26
0.82667	24
0.83033	23
0.83400	23
0.83767	24
0.84133	25
0.84500	28
0.84867	28
0.85233	29
0.85600	31
0.85967	30
0.86333	29
0.86700	28
0.87067	28
0.87433	28
0.87800	26
0.88167	23
0.88533	24
0.88900	28
0.89267	29
0.89633	31
0.90000	32
0.90367	31
0.90733	30
0.91100	29
0.91467	28
0.91833	25
0.92200	24
0.92567	27
0.92933	30
0.93300	29
0.93667	29
0.94033	28
0.94400	27
0.94767	25
0.95133	25
0.95500	27
0.95867	29
0.96233	32
0.96600	33
0.96967	34
0.97333	36
0.97700	39
0.98067	42
0.98433	42
0.98800	41
0.99167	39
0.99533	41
0.99900	43
1.00267	42
1.00633	43
1.01000	43
1.01367	41
1.01733	40
1.02100	40
1.02467	41
1.02833	42
1.03200	41
1.03567	41
1.03933	43
1.04300	44
1.04667	44
1.05033	42
1.05400	42
1.05767	43
1.06133	44
1.06500	45
1.06867	47
1.07233	47
1.07600	45
1.07967	43
1.08333	41
1.08700	40
1.09067	42
1.09433	43
1.09800	45
1.10167	47
1.10533	49
1.10900	51
1.11267	53
1.11633	52
1.12000	48
1.12367	48
1.12733	48
1.13100	48
1.13467	47
1.13833	49
1.14200	51
1.14567	52
1.14933	52
1.15300	51
1.15667	50
1.16033	50
1.16400	50
1.16767	50
1.17133	49
1.17500	48
1.17867	47
1.18233	48
1.18600	49
1.18967	50
1.19333	52
1.19700	52
1.20067	50
1.20433	49
1.20800	49
1.21167	49
1.21533	48
1.21900	47
1.22267	46
1.22633	45
1.23000	45
1.23367	46
1.23733	49
1.24100	50
1.24467	52
1.24833	53
1.25200	52
1.25567	52
1.25933	50
1.26300	49
1.26667	51
1.27033	54
1.27400	57
1.27767	57
1.28133	55
1.28500	52
1.28867	51
1.29233	50
1.29600	49
1.29967	47
1.30333	49
1.30700	53
1.31067	53
1.31433	53
1.31800	52
1.32167	51
1.32533	52
1.32900	53
1.33267	55
1.33633	57
1.34000	58
1.34367	59
1.34733	59
1.35100	59
1.35467	59
1.35833	60
1.36200	61
1.36567	62
1.36933	60
1.37300	59
1.37667	59
1.38033	59
1.38400	58
1.38767	57
1.39133	57
1.39500	58
1.39867	60
1.40233	60
1.40600	59
1.40967	61
1.41333	64
1.41700	64
1.42067	62
1.42433	61
1.42800	61
1.43167	63
1.43533	66
1.43900	67
1.44267	66
1.44633	65
1.45000	64
1.45367	63
1.45733	63
1.46100	62
1.46467	61
1.46833	59
1.47200	57
1.47567	58
1.47933	59
1.48300	61
1.48667	60
1.49033	59
1.49400	60
1.49767	61
1.50133	63
1.50500	64
1.50867	63
1.51233	63
1.51600	62
1.51967	62
1.52333	61
1.52700	61
1.53067	62
1.53433	62
1.53800	62
1.54167	64
1.54533	65
1.54900	67
1.55267	67
1.55633	66
1.56000	67
1.56367	71
1.56733	72
1.57100	69
1.57467	65
1.57833	63
1.58200	62
1.58567	61
1.58933	63
1.59300	64
1.59667	65
1.60033	65
1.60400	66
1.60767	68
1.61133	69
1.61500	70
1.61867	70
1.62233	70
1.62600	72
1.62967	74
1.63333	74
1.63700	72
1.64067	70
1.64433	70
1.64800	72
1.65167	73
1.65533	76
1.65900	77
1.66267	76
1.66633	76
1.67000	78
1.67367	79
1.67733	79
1.68100	80
1.68467	80
1.68833	81
1.69200	81
1.69567	82
1.69933	81
1.70300	80
1.70667	81
1.71033	82
1.71400	83
1.71767	86
1.72133	87
1.72500	88
1.72867	88
1.73233	89
1.73600	90
1.73967	90
1.74333	89
1.74700	89
1.75067	88
1.75433	88
1.75800	90
1.76167	92
1.76533	95
1.76900	96
1.77267	97
1.77633	99
1.78000	100
1.78367	103
1.78733	104
1.79100	105
1.79467	108
1.79833	109
1.80200	109
1.80567	111
1.80933	112
1.81300	112
1.81667	112
1.82033	113
1.82400	115
1.82767	116
1.83133	118
1.83500	117
1.83867	115
1.84233	116
1.84600	117
1.84967	116
1.85333	115
1.85700	115
1.86067	115
1.86433	117
1.86800	120
1.87167	121
1.87533	123
1.87900	123
1.88267	123
1.88633	124
1.89000	124
1.89367	125
1.89733	126
1.90100	129
1.90467	131
1.90833	131
1.91200	133
1.91567	134
1.91933	133
1.92300	134
1.92667	135
1.93033	135
1.93400	137
1.93767	140
1.94133	141
1.94500	140
1.94867	139
1.95233	140
1.95600	141
1.95967	144
1.96333	149
1.96700	153
1.97067	155
1.97433	157
1.97800	159
1.98167	161
1.98533	163
1.98900	164
1.99267	165
1.99633	164
2.00000	166
2.00367	168
2.00733	169
2.01100	168
2.01467	168
2.01833	168
2.02200	168
2.02567	168
2.02933	171
2.03300	173
2.03667	175
2.04033	180
2.04400	181
2.04767	181
2.05133	183
2.05500	187
2.05867	189
2.06233	191
2.06600	195
2.06967	198
2.07333	201
2.07700	204
2.08067	206
2.08433	209
2.08800	211
2.09167	211
2.09533	211
2.09900	211
2.10267	210
2.10633	211
2.11000	213
2.11367	216
2.11733	220
2.12100	221
2.12467	219
2.12833	219
2.13200	220
2.13567	223
2.13933	226
2.14300	229
2.14667	231
2.15033	233
2.15400	232
2.15767	233
2.16133	237
2.16500	241
2.16867	243
2.17233	245
2.17600	247
2.17967	247
2.18333	245
2.18700	243
2.19067	243
2.19433	247
2.19800	251
2.20167	254
2.20533	254
2.20900	254
2.21267	254
2.21633	255
2.22000	257
2.22367	259
2.22733	261
2.23100	263
2.23467	266
2.23833	269
2.24200	271
2.24567	273
2.24933	275
2.25300	275
2.25667	275
2.26033	276
2.26400	277
2.26767	277
2.27133	280
2.27500	284
2.27867	286
2.28233	287
2.28600	287
2.28967	288
2.29333	291
2.29700	294
2.30067	295
2.30433	296
2.30800	297
2.31167	298
2.31533	297
2.31900	296
2.32267	298
2.32633	300
2.33000	302
2.33367	302
2.33733	304
2.34100	307
2.34467	311
2.34833	315
2.35200	317
2.35567	317
2.35933	319
2.36300	322
2.36667	323
2.37033	324
2.37400	326
2.37767	329
2.38133	331
2.38500	328
2.38867	325
2.39233	327
2.39600	328
2.39967	329
2.40333	329
2.40700	331
2.41067	335
2.41433	338
2.41800	338
2.42167	340
2.42533	341
2.42900	344
2.43267	346
2.43633	348
2.44000	349
2.44367	350
2.44733	354
2.45100	359
2.45467	362
2.45833	359
2.46200	354
2.46567	351
2.46933	348
2.47300	345
2.47667	345
2.48033	343
2.48400	338
2.48767	330
2.49133	323
2.49500	315
2.49867	308
2.50233	303
2.50600	295
2.50967	288
2.51333	281
2.51700	275
2.52067	267
2.52433	258
2.52800	252
2.53167	247
2.53533	241
2.53900	237
2.54267	234
2.54633	231
2.55000	226
2.55367	223
2.55733	220
2.56100	217
2.56467	215
2.56833	213
2.57200	211
2.57567	209
2.57933	207
2.58300	207
2.58667	206
2.59033	204
2.59400	200
2.59767	198
2.60133	196
2.60500	193
2.60867	189
2.61233	185
2.61600	178
2.61967	166
2.62333	147
2.62700	123
2.63067	98
2.63433	71
2.63800	47
2.64167	27
2.64533	11
2.64900	-3
2.65267	-11
2.65633	-15
2.66000	-17
2.66367	-16
2.66733	-12
2.67100	-6
2.67467	0
2.67833	7
2.68200	11
2.68567	14
2.68933	18
2.69300	20
2.69667	24
2.70033	29
2.70400	33
2.70767	42
2.71133	50
2.71500	55
2.71867	61
2.72233	65
2.72600	69
2.72967	74
2.73333	77
2.73700	79
2.74067	83
2.74433	88
2.74800	90
2.75167	92
2.75533	94
2.75900	94
2.76267	96
2.76633	98
2.77000	100
2.77367	103
2.77733	106
2.78100	109
2.78467	109
2.78833	112
2.79200	114
2.79567	114
2.79933	115
2.80300	117
2.80667	120
2.81033	123
2.81400	126
2.81767	128
2.82133	129
2.82500	128
2.82867	127
2.83233	129
2.83600	133
2.83967	142
2.84333	167
2.84700	225
2.85067	335
2.85433	515
2.85800	781
2.86167	1134
2.86533	1555
2.86900	2008
2.87267	2443
2.87633	2818
2.88000	3098
2.88367	3233
2.88733	3212
2.89100	3120
2.89467	3004
2.89833	2879
2.90200	2742
2.90567	2599
2.90933	2453
2.91300	2309
2.91667	2169
2.92033	2036
2.92400	1915
2.92767	1808
2.93133	1714
2.93500	1631
2.93867	1559
2.94233	1496
2.94600	1442
2.94967	1397
2.95333	1359
2.95700	1328
2.96067	1299
2.96433	1275
2.96800	1256
2.97167	1237
2.97533	1220
2.97900	1208
2.98267	1200
2.98633	1193
2.99000	1186
2.99367	1177
2.99733	1167
3.00100	1158
3.00467	1153
3.00833	1148
3.01200	1142
3.01567	1136
3.01933	1131
3.02300	1125
3.02667	1117
3.03033	1109
3.03400	1100
3.03767	1091
3.04133	1081
3.04500	1072
3.04867	1065
3.05233	1058
3.05600	1051
3.05967	1044
3.06333	1040
3.06700	1034
3.07067	1026
3.07433	1018
3.07800	1010
3.08167	1004
3.08533	998
3.08900	996
3.09267	991
3.09633	987
3.10000	983
3.10367	977
3.10733	972
3.11100	968
3.11467	964
3.11833	960
3.12200	957
3.12567	956
3.12933	956
3.13300	956
3.13667	956
3.14033	952
3.14400	951
3.14767	949
3.15133	945
3.15500	943
3.15867	942
3.16233	941
3.16600	942
3.16967	943
3.17333	942
3.17700	938
3.18067	934
3.18433	932
3.18800	931
3.19167	933
3.19533	933
3.19900	930
3.20267	928
3.20633	926
3.21000	924
3.21367	923
3.21733	922
3.22100	917
3.22467	912
3.22833	907
3.23200	904
3.23567	901
3.23933	898
3.24300	895
3.24667	892
3.25033	886
3.25400	882
3.25767	880
3.26133	876
3.26500	870
3.26867	866
3.27233	860
3.27600	856
3.27967	852
3.28333	849
3.28700	846
3.29067	842
3.29433	837
3.29800	832
3.30167	828
3.30533	825
3.30900	822
3.31267	819
3.31633	814
3.32000	810
3.32367	806
3.32733	803
3.33100	799
3.33467	795
3.33833	791
3.34200	787
3.34567	782
3.34933	777
3.35300	772
3.35667	769
3.36033	765
3.36400	761
3.36767	757
3.37133	751
3.37500	746
3.37867	740
3.38233	735
3.38600	729
3.38967	722
3.39333	717
3.39700	713
3.40067	711
3.40433	706
3.40800	702
3.41167	699
3.41533	695
3.41900	689
3.42267	684
3.42633	679
3.43000	673
3.43367	669
3.43733	663
3.44100	655
3.44467	651
3.44833	646
3.45200	639
3.45567	634
3.45933	629
3.46300	625
3.46667	621
3.47033	619
3.47400	616
3.47767	612
3.48133	609
3.48500	604
3.48867	598
3.49233	591
3.49600	587
3.49967	583
3.50333	580
3.50700	578
3.51067	577
3.51433	574
3.51800	569
3.52167	563
3.52533	560
3.52900	556
3.53267	550
3.53633	547
3.54000	544
3.54367	543
3.54733	541
3.55100	535
3.55467	528
3.55833	524
3.56200	522
3.56567	519
3.56933	515
3.57300	512
3.57667	511
3.58033	508
3.58400	502
3.58767	498
3.59133	496
3.59500	493
3.59867	490
3.60233	488
3.60600	486
3.60967	482
3.61333	477
3.61700	474
3.62067	471
3.62433	470
3.62800	469
3.63167	466
3.63533	462
3.63900	457
3.64267	454
3.64633	453
3.65000	450
3.65367	449
3.65733	448
3.66100	446
3.66467	443
3.66833	440
3.67200	438
3.67567	433
3.67933	429
3.68300	427
3.68667	426
3.69033	424
3.69400	421
3.69767	420
3.70133	419
3.70500	417
3.70867	415
3.71233	413
3.71600	411
3.71967	410
3.72333	409
3.72700	407
3.73067	405
3.73433	403
3.73800	403
3.74167	401
3.74533	398
3.74900	398
3.75267	399
3.75633	397
3.76000	394
3.76367	391
3.76733	388
3.77100	385
3.77467	384
3.77833	384
3.78200	383
3.78567	382
3.78933	381
3.79300	377
3.79667	375
3.80033	373
3.80400	371
3.80767	368
3.81133	367
3.81500	367
3.81867	368
3.82233	366
3.82600	363
3.82967	360
3.83333	359
3.83700	360
3.84067	358
3.84433	354
3.84800	352
3.85167	352
3.85533	351
3.85900	350
3.86267	350
3.86633	348
3.87000	345
3.87367	343
3.87733	341
3.88100	338
3.88467	337
3.88833	336
3.89200	334
3.89567	332
3.89933	330
3.90300	328
3.90667	326
3.91033	324
3.91400	324
3.91767	325
3.92133	325
3.92500	325
3.92867	325
3.93233	326
3.93600	326
3.93967	322
3.94333	319
3.94700	317
3.95067	315
3.95433	314
3.95800	315
3.96167	315
3.96533	314
3.96900	314
3.97267	315
3.97633	313
3.98000	310
3.98367	308
3.98733	306
3.99100	303
3.99467	301
3.99833	302

[Status Trace (Column Oven Temperature)]
Interval(msec)	1000
# of Points	240
Start Time(min)	0.001
End Time(min)	3.984
Intensity Units	
Intensity Multiplier	1
R.Time (min)	Intensity
0.00113	34.99
0.01780	34.99
0.03447	35.01
0.05113	35.02
0.06780	35.02
0.08447	35.02
0.10113	35.01
0.11780	35.00
0.13447	34.98
0.15113	34.98
0.16780	34.99
0.18447	35.00
0.20113	35.00
0.21780	35.00
0.23447	34.99
0.25113	34.99
0.26780	34.98
0.28447	34.98
0.30113	34.99
0.31780	34.99
0.33447	34.98
0.35113	35.00
0.36780	35.01
0.38447	35.02
0.40113	35.03
0.41780	35.02
0.43447	35.02
0.45113	35.02
0.46780	35.00
0.48447	35.02
0.50113	35.03
0.51780	35.03
0.53447	35.03
0.55113	35.02
0.56780	35.01
0.58447	34.99
0.60113	34.98
0.61780	34.97
0.63447	34.97
0.65113	34.97
0.66780	34.97
0.68447	34.97
0.70113	34.98
0.71780	34.97
0.73447	34.97
0.75113	34.98
0.76780	34.98
0.78447	34.98
0.80113	35.00
0.81780	35.00
0.83447	34.99
0.85113	34.98
0.86780	34.98
0.88447	34.97
0.90113	34.98
0.91780	34.98
0.93447	34.98
0.95113	34.99
0.96780	34.98
0.98447	34.98
1.00113	34.97
1.01780	34.98
1.03447	34.98
1.05113	34.99
1.06780	35.00
1.08447	35.01
1.10113	35.03
1.11780	35.02
1.13447	35.02
1.15113	35.00
1.16780	35.00
1.18447	35.00
1.20113	34.99
1.21780	34.99
1.23447	34.99
1.25113	35.00
1.26780	35.00
1.28447	35.00
1.30113	35.00
1.31780	35.00
1.33447	34.99
1.35113	34.98
1.36780	34.97
1.38447	34.98
1.40113	34.98
1.41780	34.99
1.43447	35.00
1.45113	35.01
1.46780	35.01
1.48447	34.99
1.50113	34.99
1.51780	34.99
1.53447	34.99
1.55113	34.99
1.56780	35.00
1.58447	35.01
1.60113	35.06
1.61780	35.16
1.63447	35.34
1.65113	35.56
1.66780	35.83
1.68447	36.17
1.70113	36.53
1.71780	36.88
1.73447	37.19
1.75113	37.51
1.76780	37.86
1.78447	38.19
1.80113	38.52
1.81780	38.87
1.83447	39.21
1.85113	39.51
1.86780	39.84
1.88447	40.16
1.90113	40.48
1.91780	40.82
1.93447	41.13
1.95113	41.46
1.96780	41.80
1.98447	42.12
2.00113	42.45
2.01780	42.79
2.03447	43.11
2.05113	43.44
2.06780	43.76
2.08447	44.12
2.10113	44.43
2.11780	44.76
2.13447	45.09
2.15113	45.42
2.16780	45.74
2.18447	46.05
2.20113	46.39
2.21780	46.72
2.23447	47.03
2.25113	47.37
2.26780	47.68
2.28447	48.02
2.30113	48.34
2.31780	48.68
2.33447	48.99
2.35113	49.36
2.36780	49.59
2.38447	49.67
2.40113	49.68
2.41780	49.67
2.43447	49.68
2.45113	49.68
2.46780	49.68
2.48447	49.70
2.50113	49.72
2.51780	49.73
2.53447	49.74
2.55113	49.77
2.56780	49.80
2.58447	49.81
2.60113	49.84
2.61780	49.84
2.63447	49.86
2.65113	49.86
2.66780	49.85
2.68447	49.84
2.70113	49.87
2.71780	49.90
2.73447	49.88
2.75113	49.88
2.76780	49.87
2.78447	49.87
2.80113	49.88
2.81780	49.90
2.83447	49.90
2.85113	49.91
2.86780	49.92
2.88447	49.94
2.90113	49.95
2.91780	49.96
2.93447	49.97
2.95113	49.98
2.96780	49.99
2.98447	50.00
3.00113	50.01
3.01780	50.02
3.03447	50.03
3.05113	50.04
3.06780	50.04
3.08447	50.05
3.10113	50.05
3.11780	50.05
3.13447	50.07
3.15113	50.07
3.16780	50.07
3.18447	50.09
3.20113	50.10
3.21780	50.10
3.23447	50.09
3.25113	50.09
3.26780	50.09
3.28447	50.09
3.30113	50.09
3.31780	50.10
3.33447	50.10
3.35113	50.10
3.36780	50.11
3.38447	50.10
3.40113	50.09
3.41780	50.08
3.43447	50.07
3.45113	50.06
3.46780	50.05
3.48447	50.05
3.50113	50.04
3.51780	50.03
3.53447	50.03
3.55113	50.05
3.56780	50.06
3.58447	50.06
3.60113	50.06
3.61780	50.05
3.63447	50.05
3.65113	50.05
3.66780	50.05
3.68447	50.06
3.70113	50.07
3.71780	50.09
3.73447	50.10
3.75113	50.10
3.76780	50.10
3.78447	50.09
3.80113	50.08
3.81780	50.07
3.83447	50.05
3.85113	50.03
3.86780	50.02
3.88447	50.01
3.90113	50.00
3.91780	49.99
3.93447	49.98
3.95113	49.98
3.96780	49.99
3.98447	49.99

[Status Trace (Injection Unit Temperature)]
Interval(msec)	1000
# of Points	240
Start Time(min)	0.001
End Time(min)	3.984
Intensity Units	
Intensity Multiplier	1
R.Time (min)	Intensity
0.00113	99.98
0.01780	99.99
0.03447	99.99
0.05113	99.98
0.06780	99.98
0.08447	99.98
0.10113	99.99
0.11780	99.98
0.13447	99.98
0.15113	99.99
0.16780	99.98
0.18447	99.98
0.20113	99.98
0.21780	99.98
0.23447	99.98
0.25113	99.98
0.26780	99.99
0.28447	99.98
0.30113	99.98
0.31780	99.98
0.33447	99.98
0.35113	99.98
0.36780	99.99
0.38447	99.98
0.40113	99.98
0.41780	99.98
0.43447	99.98
0.45113	99.98
0.46780	99.98
0.48447	99.98
0.50113	99.98
0.51780	99.98
0.53447	99.98
0.55113	99.98
0.56780	99.98
0.58447	99.98
0.60113	99.98
0.61780	99.98
0.63447	99.98
0.65113	99.98
0.66780	99.98
0.68447	99.98
0.70113	99.98
0.71780	99.98
0.73447	99.98
0.75113	99.98
0.76780	99.98
0.78447	99.98
0.80113	99.98
0.81780	99.98
0.83447	99.98
0.85113	99.98
0.86780	99.98
0.88447	99.98
0.90113	99.98
0.91780	99.98
0.93447	99.98
0.95113	99.98
0.96780	99.98
0.98447	99.98
1.00113	99.98
1.01780	99.98
1.03447	99.98
1.05113	99.98
1.06780	99.98
1.08447	99.98
1.10113	99.98
1.11780	99.98
1.13447	99.98
1.15113	99.98
1.16780	99.98
1.18447	99.99
1.20113	99.99
1.21780	99.99
1.23447	99.99
1.25113	99.98
1.26780	99.99
1.28447	99.98
1.30113	99.99
1.31780	99.98
1.33447	99.99
1.35113	99.99
1.36780	99.98
1.38447	99.98
1.40113	99.98
1.41780	99.98
1.43447	99.99
1.45113	99.99
1.46780	99.98
1.48447	99.98
1.50113	99.99
1.51780	99.99
1.53447	99.99
1.55113	99.99
1.56780	99.98
1.58447	99.98
1.60113	99.98
1.61780	99.98
1.63447	99.99
1.65113	99.98
1.66780	99.98
1.68447	99.99
1.70113	99.99
1.71780	99.98
1.73447	99.98
1.75113	99.98
1.76780	99.98
1.78447	99.98
1.80113	99.99
1.81780	99.98
1.83447	99.99
1.85113	99.98
1.86780	99.98
1.88447	99.98
1.90113	99.98
1.91780	99.98
1.93447	99.98
1.95113	99.98
1.96780	99.98
1.98447	99.98
2.00113	99.97
2.01780	99.97
2.03447	99.98
2.05113	99.98
2.06780	99.98
2.08447	99.97
2.10113	99.98
2.11780	99.97
2.13447	99.97
2.15113	99.97
2.16780	99.97
2.18447	99.97
2.20113	99.97
2.21780	99.97
2.23447	99.97
2.25113	99.97
2.26780	99.97
2.28447	99.97
2.30113	99.97
2.31780	99.97
2.33447	99.97
2.35113	99.97
2.36780	99.97
2.38447	99.97
2.40113	99.97
2.41780	99.97
2.43447	99.97
2.45113	99.97
2.46780	99.97
2.48447	99.97
2.50113	99.97
2.51780	99.97
2.53447	99.97
2.55113	99.97
2.56780	99.97
2.58447	99.98
2.60113	99.98
2.61780	99.98
2.63447	99.98
2.65113	99.98
2.66780	99.98
2.68447	99.99
2.70113	99.99
2.71780	99.99
2.73447	99.99
2.75113	99.99
2.76780	99.99
2.78447	99.99
2.80113	100.00
2.81780	100.00
2.83447	100.00
2.85113	100.00
2.86780	100.00
2.88447	100.00
2.90113	100.00
2.91780	100.00
2.93447	100.00
2.95113	100.01
2.96780	100.01
2.98447	100.00
3.00113	100.01
3.01780	100.01
3.03447	100.01
3.05113	100.01
3.06780	100.01
3.08447	100.02
3.10113	100.01
3.11780	100.01
3.13447	100.02
3.15113	100.02
3.16780	100.02
3.18447	100.02
3.20113	100.02
3.21780	100.02
3.23447	100.02
3.25113	100.03
3.26780	100.02
3.28447	100.03
3.30113	100.03
3.31780	100.02
3.33447	100.03
3.35113	100.03
3.36780	100.03
3.38447	100.03
3.40113	100.03
3.41780	100.04
3.43447	100.03
3.45113	100.04
3.46780	100.04
3.48447	100.03
3.50113	100.04
3.51780	100.04
3.53447	100.04
3.55113	100.04
3.56780	100.04
3.58447	100.04
3.60113	100.04
3.61780	100.04
3.63447	100.04
3.65113	100.04
3.66780	100.04
3.68447	100.04
3.70113	100.05
3.71780	100.05
3.73447	100.05
3.75113	100.05
3.76780	100.05
3.78447	100.04
3.80113	100.05
3.81780	100.05
3.83447	100.05
3.85113	100.05
3.86780	100.04
3.88447	100.05
3.90113	100.05
3.91780	100.04
3.93447	100.05
3.95113	100.05
3.96780	100.05
3.98447	100.05

[Status Trace (Carrier Gas Pressure)]
Interval(msec)	1000
# of Points	240
Start Time(min)	0.001
End Time(min)	3.984
Intensity Units	
Intensity Multiplier	1
R.Time (min)	Intensity
0.00113	58.00
0.01780	56.51
0.03447	55.99
0.05113	58.33
0.06780	59.92
0.08447	58.48
0.10113	57.97
0.11780	58.00
0.13447	58.01
0.15113	58.01
0.16780	58.01
0.18447	58.01
0.20113	58.00
0.21780	58.00
0.23447	58.00
0.25113	58.00
0.26780	58.00
0.28447	58.00
0.30113	58.00
0.31780	58.00
0.33447	58.00
0.35113	58.00
0.36780	58.00
0.38447	58.00
0.40113	58.00
0.41780	58.00
0.43447	58.00
0.45113	58.00
0.46780	58.00
0.48447	58.00
0.50113	58.00
0.51780	58.00
0.53447	58.00
0.55113	58.00
0.56780	58.00
0.58447	58.00
0.60113	58.00
0.61780	58.00
0.63447	58.00
0.65113	58.00
0.66780	58.00
0.68447	58.00
0.70113	58.00
0.71780	58.00
0.73447	58.00
0.75113	58.00
0.76780	58.00
0.78447	58.00
0.80113	58.00
0.81780	58.00
0.83447	58.00
0.85113	58.00
0.86780	58.00
0.88447	58.00
0.90113	58.00
0.91780	58.00
0.93447	58.00
0.95113	58.00
0.96780	58.00
0.98447	58.00
1.00113	58.00
1.01780	58.00
1.03447	58.00
1.05113	58.00
1.06780	58.00
1.08447	58.00
1.10113	58.00
1.11780	58.00
1.13447	58.00
1.15113	58.00
1.16780	58.00
1.18447	58.00
1.20113	58.00
1.21780	58.00
1.23447	58.00
1.25113	58.00
1.26780	58.00
1.28447	58.00
1.30113	58.00
1.31780	58.00
1.33447	58.00
1.35113	58.00
1.36780	58.00
1.38447	58.00
1.40113	58.00
1.41780	58.00
1.43447	58.00
1.45113	58.00
1.46780	58.00
1.48447	58.00
1.50113	58.00
1.51780	58.00
1.53447	58.00
1.55113	58.00
1.56780	58.00
1.58447	58.00
1.60113	58.00
1.61780	58.00
1.63447	58.00
1.65113	58.00
1.66780	58.00
1.68447	58.01
1.70113	58.00
1.71780	58.00
1.73447	58.00
1.75113	58.00
1.76780	58.00
1.78447	58.00
1.80113	58.00
1.81780	58.00
1.83447	58.00
1.85113	58.00
1.86780	58.00
1.88447	58.00
1.90113	58.00
1.91780	58.00
1.93447	58.00
1.95113	58.00
1.96780	58.00
1.98447	58.00
2.00113	58.00
2.01780	58.00
2.03447	58.00
2.05113	58.00
2.06780	58.00
2.08447	58.00
2.10113	58.00
2.11780	58.00
2.13447	58.00
2.15113	58.00
2.16780	58.00
2.18447	58.00
2.20113	58.00
2.21780	58.00
2.23447	58.00
2.25113	58.00
2.26780	58.00
2.28447	58.00
2.30113	58.00
2.31780	58.00
2.33447	58.00
2.35113	58.00
2.36780	58.00
2.38447	57.99
2.40113	57.99
2.41780	58.00
2.43447	58.00
2.45113	58.00
2.46780	58.00
2.48447	58.00
2.50113	58.00
2.51780	57.99
2.53447	57.99
2.55113	58.00
2.56780	58.00
2.58447	58.00
2.60113	58.00
2.61780	58.00
2.63447	58.00
2.65113	58.00
2.66780	58.00
2.68447	58.00
2.70113	58.00
2.71780	58.00
2.73447	58.00
2.75113	58.00
2.76780	58.00
2.78447	58.00
2.80113	58.00
2.81780	58.00
2.83447	58.00
2.85113	58.00
2.86780	58.00
2.88447	58.00
2.90113	58.00
2.91780	58.00
2.93447	58.00
2.95113	58.00
2.96780	58.00
2.98447	58.00
3.00113	58.00
3.01780	58.00
3.03447	58.00
3.05113	58.00
3.06780	58.00
3.08447	58.00
3.10113	58.00
3.11780	58.00
3.13447	58.00
3.15113	58.00
3.16780	58.00
3.18447	58.00
3.20113	58.00
3.21780	58.00
3.23447	58.00
3.25113	58.00
3.26780	58.00
3.28447	58.00
3.30113	58.00
3.31780	58.00
3.33447	58.00
3.35113	58.00
3.36780	58.00
3.38447	58.00
3.40113	58.00
3.41780	58.00
3.43447	58.00
3.45113	58.00
3.46780	58.00
3.48447	58.00
3.50113	58.00
3.51780	58.00
3.53447	58.00
3.55113	58.00
3.56780	58.00
3.58447	58.00
3.60113	58.00
3.61780	58.00
3.63447	58.00
3.65113	58.00
3.66780	58.00
3.68447	58.00
3.70113	58.00
3.71780	58.00
3.73447	58.00
3.75113	58.00
3.76780	58.00
3.78447	58.00
3.80113	58.00
3.81780	58.00
3.83447	58.00
3.85113	58.00
3.86780	58.00
3.88447	58.00
3.90113	58.00
3.91780	58.00
3.93447	58.00
3.95113	58.00
3.96780	58.00
3.98447	58.00

[Status Trace (Carrier Gas Flow)]
Interval(msec)	1000
# of Points	240
Start Time(min)	0.001
End Time(min)	3.984
Intensity Units	
Intensity Multiplier	1
R.Time (min)	Intensity
0.00113	34.52
0.01780	34.19
0.03447	34.54
0.05113	34.55
0.06780	34.51
0.08447	34.52
0.10113	34.52
0.11780	34.52
0.13447	34.52
0.15113	34.52
0.16780	34.52
0.18447	34.52
0.20113	34.52
0.21780	34.52
0.23447	34.52
0.25113	34.52
0.26780	34.52
0.28447	34.52
0.30113	34.52
0.31780	34.52
0.33447	34.52
0.35113	34.52
0.36780	34.52
0.38447	34.52
0.40113	34.52
0.41780	34.52
0.43447	34.52
0.45113	34.52
0.46780	34.52
0.48447	34.52
0.50113	34.52
0.51780	34.52
0.53447	34.52
0.55113	34.52
0.56780	34.52
0.58447	34.52
0.60113	34.52
0.61780	34.52
0.63447	34.52
0.65113	34.52
0.66780	34.52
0.68447	34.52
0.70113	34.52
0.71780	34.52
0.73447	34.52
0.75113	34.52
0.76780	34.52
0.78447	34.52
0.80113	34.52
0.81780	34.52
0.83447	34.52
0.85113	34.52
0.86780	34.52
0.88447	34.52
0.90113	34.52
0.91780	34.52
0.93447	34.52
0.95113	34.52
0.96780	34.52
0.98447	34.52
1.00113	34.52
1.01780	34.52
1.03447	34.52
1.05113	34.52
1.06780	34.52
1.08447	34.52
1.10113	34.52
1.11780	34.52
1.13447	34.52
1.15113	34.52
1.16780	34.52
1.18447	34.52
1.20113	34.52
1.21780	34.52
1.23447	34.51
1.25113	34.52
1.26780	34.51
1.28447	34.52
1.30113	34.52
1.31780	34.52
1.33447	34.52
1.35113	34.52
1.36780	34.52
1.38447	34.52
1.40113	34.51
1.41780	34.52
1.43447	34.52
1.45113	34.52
1.46780	34.52
1.48447	34.52
1.50113	34.52
1.51780	34.53
1.53447	34.52
1.55113	34.52
1.56780	34.51
1.58447	34.52
1.60113	34.53
1.61780	34.51
1.63447	34.52
1.65113	34.52
1.66780	34.52
1.68447	34.52
1.70113	34.53
1.71780	34.52
1.73447	34.50
1.75113	34.52
1.76780	34.50
1.78447	34.51
1.80113	34.51
1.81780	34.52
1.83447	34.53
1.85113	34.52
1.86780	34.52
1.88447	34.52
1.90113	34.54
1.91780	34.52
1.93447	34.52
1.95113	34.52
1.96780	34.52
1.98447	34.52
2.00113	34.52
2.01780	34.52
2.03447	34.51
2.05113	34.52
2.06780	34.52
2.08447	34.52
2.10113	34.51
2.11780	34.50
2.13447	34.52
2.15113	34.52
2.16780	34.52
2.18447	34.51
2.20113	34.52
2.21780	34.53
2.23447	34.52
2.25113	34.52
2.26780	34.51
2.28447	34.52
2.30113	34.53
2.31780	34.50
2.33447	34.51
2.35113	34.52
2.36780	34.51
2.38447	34.52
2.40113	34.52
2.41780	34.52
2.43447	34.51
2.45113	34.53
2.46780	34.50
2.48447	34.52
2.50113	34.53
2.51780	34.52
2.53447	34.52
2.55113	34.52
2.56780	34.52
2.58447	34.52
2.60113	34.52
2.61780	34.52
2.63447	34.52
2.65113	34.52
2.66780	34.52
2.68447	34.52
2.70113	34.52
2.71780	34.52
2.73447	34.52
2.75113	34.52
2.76780	34.52
2.78447	34.52
2.80113	34.52
2.81780	34.52
2.83447	34.52
2.85113	34.52
2.86780	34.52
2.88447	34.52
2.90113	34.52
2.91780	34.52
2.93447	34.52
2.95113	34.52
2.96780	34.52
2.98447	34.52
3.00113	34.52
3.01780	34.52
3.03447	34.52
3.05113	34.52
3.06780	34.52
3.08447	34.52
3.10113	34.52
3.11780	34.52
3.13447	34.52
3.15113	34.52
3.16780	34.52
3.18447	34.52
3.20113	34.52
3.21780	34.52
3.23447	34.52
3.25113	34.52
3.26780	34.52
3.28447	34.52
3.30113	34.52
3.31780	34.52
3.33447	34.52
3.35113	34.52
3.36780	34.53
3.38447	34.52
3.40113	34.52
3.41780	34.52
3.43447	34.52
3.45113	34.52
3.46780	34.50
3.48447	34.52
3.50113	34.54
3.51780	34.52
3.53447	34.52
3.55113	34.53
3.56780	34.50
3.58447	34.52
3.60113	34.53
3.61780	34.51
3.63447	34.52
3.65113	34.50
3.66780	34.52
3.68447	34.52
3.70113	34.52
3.71780	34.50
3.73447	34.52
3.75113	34.52
3.76780	34.53
3.78447	34.52
3.80113	34.52
3.81780	34.52
3.83447	34.52
3.85113	34.51
3.86780	34.52
3.88447	34.52
3.90113	34.52
3.91780	34.52
3.93447	34.52
3.95113	34.52
3.96780	34.52
3.98447	34.52

[Status Trace (Column Flow)]
Interval(msec)	1000
# of Points	240
Start Time(min)	0.001
End Time(min)	3.984
Intensity Units	
Intensity Multiplier	1
R.Time (min)	Intensity
0.00113	5.50
0.01780	5.33
0.03447	5.27
0.05113	5.54
0.06780	5.72
0.08447	5.55
0.10113	5.49
0.11780	5.50
0.13447	5.50
0.15113	5.50
0.16780	5.50
0.18447	5.50
0.20113	5.50
0.21780	5.50
0.23447	5.50
0.25113	5.50
0.26780	5.50
0.28447	5.50
0.30113	5.50
0.31780	5.50
0.33447	5.50
0.35113	5.50
0.36780	5.50
0.38447	5.50
0.40113	5.50
0.41780	5.50
0.43447	5.50
0.45113	5.50
0.46780	5.50
0.48447	5.50
0.50113	5.50
0.51780	5.50
0.53447	5.50
0.55113	5.50
0.56780	5.50
0.58447	5.50
0.60113	5.50
0.61780	5.50
0.63447	5.50
0.65113	5.50
0.66780	5.50
0.68447	5.50
0.70113	5.50
0.71780	5.50
0.73447	5.50
0.75113	5.50
0.76780	5.50
0.78447	5.50
0.80113	5.50
0.81780	5.50
0.83447	5.50
0.85113	5.50
0.86780	5.50
0.88447	5.50
0.90113	5.50
0.91780	5.50
0.93447	5.50
0.95113	5.50
0.96780	5.50
0.98447	5.50
1.00113	5.50
1.01780	5.50
1.03447	5.50
1.05113	5.50
1.06780	5.50
1.08447	5.50
1.10113	5.50
1.11780	5.50
1.13447	5.50
1.15113	5.50
1.16780	5.50
1.18447	5.50
1.20113	5.50
1.21780	5.50
1.23447	5.50
1.25113	5.50
1.26780	5.50
1.28447	5.50
1.30113	5.50
1.31780	5.50
1.33447	5.50
1.35113	5.50
1.36780	5.50
1.38447	5.50
1.40113	5.50
1.41780	5.50
1.43447	5.50
1.45113	5.50
1.46780	5.50
1.48447	5.50
1.50113	5.50
1.51780	5.50
1.53447	5.50
1.55113	5.50
1.56780	5.50
1.58447	5.50
1.60113	5.50
1.61780	5.49
1.63447	5.49
1.65113	5.48
1.66780	5.47
1.68447	5.46
1.70113	5.45
1.71780	5.44
1.73447	5.43
1.75113	5.42
1.76780	5.41
1.78447	5.40
1.80113	5.39
1.81780	5.38
1.83447	5.37
1.85113	5.36
1.86780	5.35
1.88447	5.34
1.90113	5.33
1.91780	5.32
1.93447	5.31
1.95113	5.30
1.96780	5.29
1.98447	5.28
2.00113	5.27
2.01780	5.26
2.03447	5.25
2.05113	5.24
2.06780	5.23
2.08447	5.22
2.10113	5.21
2.11780	5.20
2.13447	5.19
2.15113	5.18
2.16780	5.18
2.18447	5.17
2.20113	5.16
2.21780	5.15
2.23447	5.14
2.25113	5.13
2.26780	5.12
2.28447	5.11
2.30113	5.10
2.31780	5.09
2.33447	5.08
2.35113	5.07
2.36780	5.07
2.38447	5.06
2.40113	5.06
2.41780	5.06
2.43447	5.06
2.45113	5.06
2.46780	5.07
2.48447	5.06
2.50113	5.06
2.51780	5.06
2.53447	5.06
2.55113	5.06
2.56780	5.06
2.58447	5.06
2.60113	5.06
2.61780	5.06
2.63447	5.06
2.65113	5.06
2.66780	5.06
2.68447	5.06
2.70113	5.06
2.71780	5.06
2.73447	5.06
2.75113	5.06
2.76780	5.06
2.78447	5.06
2.80113	5.06
2.81780	5.06
2.83447	5.06
2.85113	5.06
2.86780	5.06
2.88447	5.06
2.90113	5.06
2.91780	5.06
2.93447	5.06
2.95113	5.06
2.96780	5.06
2.98447	5.06
3.00113	5.06
3.01780	5.06
3.03447	5.06
3.05113	5.06
3.06780	5.06
3.08447	5.06
3.10113	5.06
3.11780	5.05
3.13447	5.05
3.15113	5.05
3.16780	5.05
3.18447	5.05
3.20113	5.05
3.21780	5.05
3.23447	5.05
3.25113	5.05
3.26780	5.05
3.28447	5.05
3.30113	5.05
3.31780	5.05
3.33447	5.05
3.35113	5.05
3.36780	5.05
3.38447	5.05
3.40113	5.05
3.41780	5.05
3.43447	5.05
3.45113	5.05
3.46780	5.05
3.48447	5.05
3.50113	5.06
3.51780	5.06
3.53447	5.06
3.55113	5.06
3.56780	5.05
3.58447	5.05
3.60113	5.05
3.61780	5.05
3.63447	5.06
3.65113	5.06
3.66780	5.05
3.68447	5.05
3.70113	5.05
3.71780	5.05
3.73447	5.05
3.75113	5.05
3.76780	5.05
3.78447	5.05
3.80113	5.05
3.81780	5.05
3.83447	5.05
3.85113	5.06
3.86780	5.06
3.88447	5.06
3.90113	5.06
3.91780	5.06
3.93447	5.06
3.95113	5.06
3.96780	5.06
3.98447	5.06

[Status Trace (Linear Velocity)]
Interval(msec)	1000
# of Points	240
Start Time(min)	0.001
End Time(min)	3.984
Intensity Units	
Intensity Multiplier	1
R.Time (min)	Intensity
0.00113	39.01
0.01780	38.03
0.03447	37.69
0.05113	39.22
0.06780	40.26
0.08447	39.32
0.10113	38.99
0.11780	39.01
0.13447	39.02
0.15113	39.02
0.16780	39.02
0.18447	39.01
0.20113	39.01
0.21780	39.01
0.23447	39.01
0.25113	39.01
0.26780	39.01
0.28447	39.01
0.30113	39.01
0.31780	39.01
0.33447	39.01
0.35113	39.01
0.36780	39.01
0.38447	39.01
0.40113	39.01
0.41780	39.01
0.43447	39.01
0.45113	39.01
0.46780	39.01
0.48447	39.01
0.50113	39.01
0.51780	39.01
0.53447	39.01
0.55113	39.01
0.56780	39.01
0.58447	39.01
0.60113	39.01
0.61780	39.01
0.63447	39.01
0.65113	39.01
0.66780	39.01
0.68447	39.01
0.70113	39.01
0.71780	39.01
0.73447	39.01
0.75113	39.01
0.76780	39.01
0.78447	39.01
0.80113	39.01
0.81780	39.01
0.83447	39.01
0.85113	39.01
0.86780	39.01
0.88447	39.01
0.90113	39.01
0.91780	39.01
0.93447	39.01
0.95113	39.01
0.96780	39.01
0.98447	39.01
1.00113	39.01
1.01780	39.01
1.03447	39.01
1.05113	39.01
1.06780	39.01
1.08447	39.01
1.10113	39.01
1.11780	39.01
1.13447	39.01
1.15113	39.01
1.16780	39.01
1.18447	39.01
1.20113	39.01
1.21780	39.01
1.23447	39.01
1.25113	39.01
1.26780	39.01
1.28447	39.01
1.30113	39.01
1.31780	39.01
1.33447	39.01
1.35113	39.01
1.36780	39.01
1.38447	39.01
1.40113	39.01
1.41780	39.01
1.43447	39.01
1.45113	39.01
1.46780	39.01
1.48447	39.01
1.50113	39.01
1.51780	39.01
1.53447	39.01
1.55113	39.01
1.56780	39.01
1.58447	39.01
1.60113	39.01
1.61780	39.00
1.63447	38.98
1.65113	38.96
1.66780	38.93
1.68447	38.90
1.70113	38.87
1.71780	38.83
1.73447	38.80
1.75113	38.77
1.76780	38.74
1.78447	38.71
1.80113	38.68
1.81780	38.64
1.83447	38.61
1.85113	38.58
1.86780	38.55
1.88447	38.52
1.90113	38.49
1.91780	38.46
1.93447	38.43
1.95113	38.40
1.96780	38.37
1.98447	38.34
2.00113	38.31
2.01780	38.28
2.03447	38.25
2.05113	38.22
2.06780	38.19
2.08447	38.16
2.10113	38.13
2.11780	38.10
2.13447	38.07
2.15113	38.04
2.16780	38.01
2.18447	37.98
2.20113	37.95
2.21780	37.92
2.23447	37.89
2.25113	37.86
2.26780	37.83
2.28447	37.80
2.30113	37.77
2.31780	37.74
2.33447	37.72
2.35113	37.69
2.36780	37.66
2.38447	37.65
2.40113	37.65
2.41780	37.65
2.43447	37.65
2.45113	37.65
2.46780	37.65
2.48447	37.65
2.50113	37.65
2.51780	37.64
2.53447	37.64
2.55113	37.65
2.56780	37.65
2.58447	37.64
2.60113	37.64
2.61780	37.64
2.63447	37.64
2.65113	37.64
2.66780	37.64
2.68447	37.64
2.70113	37.64
2.71780	37.64
2.73447	37.64
2.75113	37.64
2.76780	37.64
2.78447	37.64
2.80113	37.64
2.81780	37.64
2.83447	37.64
2.85113	37.64
2.86780	37.63
2.88447	37.63
2.90113	37.63
2.91780	37.63
2.93447	37.63
2.95113	37.63
2.96780	37.63
2.98447	37.63
3.00113	37.63
3.01780	37.63
3.03447	37.62
3.05113	37.62
3.06780	37.62
3.08447	37.62
3.10113	37.62
3.11780	37.62
3.13447	37.62
3.15113	37.62
3.16780	37.62
3.18447	37.62
3.20113	37.62
3.21780	37.62
3.23447	37.62
3.25113	37.62
3.26780	37.62
3.28447	37.62
3.30113	37.62
3.31780	37.62
3.33447	37.62
3.35113	37.62
3.36780	37.62
3.38447	37.62
3.40113	37.62
3.41780	37.62
3.43447	37.62
3.45113	37.62
3.46780	37.62
3.48447	37.62
3.50113	37.62
3.51780	37.62
3.53447	37.62
3.55113	37.62
3.56780	37.62
3.58447	37.62
3.60113	37.62
3.61780	37.62
3.63447	37.62
3.65113	37.62
3.66780	37.62
3.68447	37.62
3.70113	37.62
3.71780	37.62
3.73447	37.62
3.75113	37.62
3.76780	37.62
3.78447	37.62
3.80113	37.62
3.81780	37.62
3.83447	37.62
3.85113	37.62
3.86780	37.63
3.88447	37.63
3.90113	37.63
3.91780	37.63
3.93447	37.63
3.95113	37.63
3.96780	37.63
3.98447	37.63

