[Header]
Application Name	LabSolutions
Version	5.110
Data File Name	C:\Users\User\Desktop\GC Analyses\Jack\UIC Prairie Sampling\7.9.22\220909_110.gcd
Output Date	9/28/2022
Output Time	11:29:56 AM

[File Information]
Type	Data File
Generated	9/20/2022 1:51:10 PM
Generated by	System Administrator
Modified	9/20/2022 1:55:29 PM
Modified by	System Administrator

[Sample Information]
Operator Name	System Administrator
Acquired	9/20/2022 1:51:28 PM
Sample Type	1:Standard
Level	1
Sample Name	220909_Run
Sample ID	220909_Run
ISTD Amount1	1
ISTD Amount2	1
ISTD Amount3	1
ISTD Amount4	1
ISTD Amount5	1
ISTD Amount6	1
ISTD Amount7	1
ISTD Amount8	1
ISTD Amount9	1
ISTD Amount10	1
ISTD Amount11	1
ISTD Amount12	1
ISTD Amount13	1
ISTD Amount14	1
ISTD Amount15	1
ISTD Amount16	1
ISTD Amount17	1
ISTD Amount18	1
ISTD Amount19	1
ISTD Amount20	1
ISTD Amount21	1
ISTD Amount22	1
ISTD Amount23	1
ISTD Amount24	1
ISTD Amount25	1
ISTD Amount26	1
ISTD Amount27	1
ISTD Amount28	1
ISTD Amount29	1
ISTD Amount30	1
ISTD Amount31	1
ISTD Amount32	1
Sample Amount	1
Dilution Factor	1
Vial#	1
Injection Volume	1
Injection Count	1
Bar Code	

[Original Files]
Data File	C:\Users\User\Desktop\GC Analyses\Jack\220909\220909_110.gcd
Method File	C:\LabSolutions\Data\GHG_4min_2022\ghg3_togas_w_acet_4 min_new_int.gcm
Batch File	
Report Format File	c:\LabSolutions\System\DEFAULT.lsr

[File Description]


[Configuration]
Instrument Name	C0B7VH3-Instrument1
Instrument #	1
Line #	1
# of Detectors	3
Detector ID	DET#1	DET#2	DET#3
Detector Name	FID	PTCD	ECD
# of Channels	1	1	1

[Peak Table(Ch1)]
# of Peaks	3
Peak#	R.Time	I.Time	F.Time	Area	Height	A/H	Conc.	Mark	ID#	Name	k'	Plate #	Plate Ht.	Tailing	Resolution	Sep.Factor	Area Ratio	Height Ratio	Conc. %	Norm Conc.
1	1.479	1.439	1.538	18525	8542	2.169	100.000	   	1	CO	0.000	8771	17.102	1.127	0.000	0.000	0	0	16.667	16.667
2	1.571	1.538	1.626	4259	2207	1.929	100.000	 V 	2	CH4	0.062	11480	13.066	1.167	1.505	0.000	0	0	16.667	16.667
3	2.000	1.949	2.315	1945289	970590	2.004	400.000	   	3	CO2	0.352	17778	8.438	1.213	7.231	5.680	0	0	66.667	66.667

[Peak Table(Ch2)]
# of Peaks	0

[Peak Table(Ch3)]
# of Peaks	3
Peak#	R.Time	I.Time	F.Time	Area	Height	A/H	Conc.	Mark	ID#	Name	k'	Plate #	Plate Ht.	Tailing	Resolution	Sep.Factor	Area Ratio	Height Ratio	Conc. %	Norm Conc.
1	2.565	2.458	2.664	4620	569	8.119	0.000	   			0.000	3000	50.002	0.924	0.000	0.000	0	0	0.000	0.000
2	2.741	2.693	2.803	124	29	4.346	0.007	   	1	N2O	0.069	10612	14.134	1.164	1.198	0.000	0	0	0.693	0.693
3	2.884	2.821	3.041	17817	4797	3.714	0.993	   	1	N2O	0.124	13430	11.169	1.570	1.389	1.813	0	0	99.307	99.307

[Compound Results(Ch1)]
# of IDs	6
ID#	Name	R.Time	Area	Height	Conc.	Curve	3rd	2nd	1st	Constant	Area Ratio	Height Ratio	Conc. %	Norm Conc.
1	CO	1.479	18525	8542	100.000	Linear	0.000000e+00	0.000000e+00	1.852533e+002	0.000000e+00	0	0	16.667	16.667
2	CH4	1.571	4259	2207	100.000	Linear	0.000000e+00	0.000000e+00	4.258843e+001	0.000000e+00	0	0	16.667	16.667
3	CO2	2.000	1945289	970590	400.000	Linear	0.000000e+00	0.000000e+00	4.863223e+003	0.000000e+00	0	0	66.667	66.667
4	Ethylene	0.000	0	0	0.000	Linear	0.000000e+00	0.000000e+00	0.000000e+00	0.000000e+00	0	0	0.000	0.000
5	Acetylene	0.000	0	0	0.000	Linear	0.000000e+00	0.000000e+00	0.000000e+00	0.000000e+00	0	0	0.000	0.000
6	Ethane	0.000	0	0	0.000	Linear	0.000000e+00	0.000000e+00	0.000000e+00	0.000000e+00	0	0	0.000	0.000

[Compound Results(Ch2)]
# of IDs	5
ID#	Name	R.Time	Area	Height	Conc.	Curve	3rd	2nd	1st	Constant	Area Ratio	Height Ratio	Conc. %	Norm Conc.
1	Hydrogen	0.000	0	0	0.000	Linear	0.000000e+00	0.000000e+00	0.000000e+00	0.000000e+00	0	0	0.000	0.000
2	Oxygen	0.000	0	0	0.000	Linear	0.000000e+00	0.000000e+00	0.000000e+00	0.000000e+00	0	0	0.000	0.000
3	Nitrogen	0.000	0	0	0.000	Linear	0.000000e+00	0.000000e+00	0.000000e+00	0.000000e+00	0	0	0.000	0.000
4	Methane	0.000	0	0	0.000	Linear	0.000000e+00	0.000000e+00	0.000000e+00	0.000000e+00	0	0	0.000	0.000
5	Carbon Monoxide	0.000	0	0	0.000	Linear	0.000000e+00	0.000000e+00	0.000000e+00	0.000000e+00	0	0	0.000	0.000

[Compound Results(Ch3)]
# of IDs	2
ID#	Name	R.Time	Area	Height	Conc.	Curve	3rd	2nd	1st	Constant	Area Ratio	Height Ratio	Conc. %	Norm Conc.
1	N2O	2.884	17942	4826	1.000	Linear	0.000000e+00	0.000000e+00	1.794187e+004	0.000000e+00	0	0	100.000	100.000
2	SF6	0.000	0	0	0.000	Linear	0.000000e+00	0.000000e+00	0.000000e+00	0.000000e+00	0	0	0.000	0.000

[Group Results(Ch1)]
# of Groups	0

[Group Results(Ch2)]
# of Groups	0

[Group Results(Ch3)]
# of Groups	0

[Chromatogram (Ch1)]
Interval(msec)	220
# of Points	1091
Start Time(min)	0.002
End Time(min)	3.998
R.Time (min)	Intensity
0.00167	-6
0.00533	-11
0.00900	-14
0.01267	-12
0.01633	-9
0.02000	-8
0.02367	-4
0.02733	3
0.03100	10
0.03467	13
0.03833	13
0.04200	12
0.04567	13
0.04933	16
0.05300	18
0.05667	18
0.06033	14
0.06400	6
0.06767	-4
0.07133	-11
0.07500	-13
0.07867	-13
0.08233	-14
0.08600	-16
0.08967	-19
0.09333	-20
0.09700	-15
0.10067	-6
0.10433	2
0.10800	9
0.11167	11
0.11533	6
0.11900	-3
0.12267	-13
0.12633	-20
0.13000	-24
0.13367	-25
0.13733	-27
0.14100	-30
0.14467	-32
0.14833	-32
0.15200	-31
0.15567	-33
0.15933	-35
0.16300	-34
0.16667	-31
0.17033	-30
0.17400	-30
0.17767	-30
0.18133	-32
0.18500	-30
0.18867	-24
0.19233	-20
0.19600	-15
0.19967	-12
0.20333	-11
0.20700	-10
0.21067	-11
0.21433	-15
0.21800	-17
0.22167	-15
0.22533	-13
0.22900	-12
0.23267	-12
0.23633	-13
0.24000	-15
0.24367	-13
0.24733	-12
0.25100	-8
0.25467	-7
0.25833	-11
0.26200	-14
0.26567	-16
0.26933	-21
0.27300	-27
0.27667	-29
0.28033	-27
0.28400	-26
0.28767	-28
0.29133	-31
0.29500	-35
0.29867	-37
0.30233	-34
0.30600	-28
0.30967	-26
0.31333	-27
0.31700	-29
0.32067	-32
0.32433	-35
0.32800	-36
0.33167	-32
0.33533	-25
0.33900	-20
0.34267	-22
0.34633	-27
0.35000	-26
0.35367	-19
0.35733	-11
0.36100	-9
0.36467	-15
0.36833	-25
0.37200	-36
0.37567	-44
0.37933	-50
0.38300	-56
0.38667	-58
0.39033	-56
0.39400	-52
0.39767	-46
0.40133	-42
0.40500	-38
0.40867	-34
0.41233	-30
0.41600	-26
0.41967	-25
0.42333	-25
0.42700	-27
0.43067	-27
0.43433	-25
0.43800	-21
0.44167	-20
0.44533	-23
0.44900	-29
0.45267	-32
0.45633	-34
0.46000	-37
0.46367	-41
0.46733	-46
0.47100	-52
0.47467	-55
0.47833	-53
0.48200	-45
0.48567	-37
0.48933	-31
0.49300	-25
0.49667	-20
0.50033	-17
0.50400	-20
0.50767	-26
0.51133	-34
0.51500	-42
0.51867	-50
0.52233	-54
0.52600	-54
0.52967	-52
0.53333	-53
0.53700	-54
0.54067	-55
0.54433	-53
0.54800	-44
0.55167	-36
0.55533	-30
0.55900	-28
0.56267	-30
0.56633	-33
0.57000	-35
0.57367	-36
0.57733	-35
0.58100	-35
0.58467	-38
0.58833	-40
0.59200	-39
0.59567	-39
0.59933	-42
0.60300	-49
0.60667	-56
0.61033	-61
0.61400	-64
0.61767	-65
0.62133	-63
0.62500	-59
0.62867	-58
0.63233	-58
0.63600	-56
0.63967	-55
0.64333	-56
0.64700	-59
0.65067	-63
0.65433	-62
0.65800	-59
0.66167	-56
0.66533	-51
0.66900	-46
0.67267	-41
0.67633	-37
0.68000	-37
0.68367	-39
0.68733	-42
0.69100	-47
0.69467	-55
0.69833	-62
0.70200	-66
0.70567	-63
0.70933	-56
0.71300	-54
0.71667	-58
0.72033	-64
0.72400	-67
0.72767	-69
0.73133	-70
0.73500	-69
0.73867	-69
0.74233	-70
0.74600	-72
0.74967	-72
0.75333	-71
0.75700	-69
0.76067	-66
0.76433	-61
0.76800	-55
0.77167	-51
0.77533	-51
0.77900	-55
0.78267	-60
0.78633	-66
0.79000	-72
0.79367	-77
0.79733	-79
0.80100	-77
0.80467	-73
0.80833	-70
0.81200	-70
0.81567	-73
0.81933	-76
0.82300	-76
0.82667	-75
0.83033	-77
0.83400	-77
0.83767	-72
0.84133	-65
0.84500	-60
0.84867	-56
0.85233	-57
0.85600	-61
0.85967	-64
0.86333	-66
0.86700	-66
0.87067	-64
0.87433	-59
0.87800	-56
0.88167	-53
0.88533	-52
0.88900	-52
0.89267	-51
0.89633	-46
0.90000	-41
0.90367	-37
0.90733	-37
0.91100	-41
0.91467	-48
0.91833	-54
0.92200	-54
0.92567	-48
0.92933	-43
0.93300	-43
0.93667	-45
0.94033	-47
0.94400	-46
0.94767	-42
0.95133	-39
0.95500	-39
0.95867	-40
0.96233	-41
0.96600	-42
0.96967	-44
0.97333	-46
0.97700	-49
0.98067	-50
0.98433	-49
0.98800	-47
0.99167	-51
0.99533	-55
0.99900	-55
1.00267	-52
1.00633	-48
1.01000	-38
1.01367	-32
1.01733	-31
1.02100	-36
1.02467	-40
1.02833	-43
1.03200	-44
1.03567	-46
1.03933	-48
1.04300	-49
1.04667	-53
1.05033	-61
1.05400	-67
1.05767	-71
1.06133	-74
1.06500	-73
1.06867	-68
1.07233	-63
1.07600	-60
1.07967	-57
1.08333	-57
1.08700	-58
1.09067	-59
1.09433	-60
1.09800	-59
1.10167	-57
1.10533	-52
1.10900	-46
1.11267	-41
1.11633	-35
1.12000	-32
1.12367	-30
1.12733	-32
1.13100	-36
1.13467	-42
1.13833	-48
1.14200	-53
1.14567	-58
1.14933	-63
1.15300	-64
1.15667	-63
1.16033	-60
1.16400	-57
1.16767	-53
1.17133	-49
1.17500	-50
1.17867	-56
1.18233	-63
1.18600	-64
1.18967	-63
1.19333	-63
1.19700	-62
1.20067	-59
1.20433	-58
1.20800	-57
1.21167	-55
1.21533	-53
1.21900	-54
1.22267	-57
1.22633	-58
1.23000	-56
1.23367	-54
1.23733	-52
1.24100	-54
1.24467	-57
1.24833	-63
1.25200	-70
1.25567	-74
1.25933	-77
1.26300	-76
1.26667	-70
1.27033	-61
1.27400	-53
1.27767	-50
1.28133	-50
1.28500	-52
1.28867	-58
1.29233	-66
1.29600	-71
1.29967	-71
1.30333	-67
1.30700	-64
1.31067	-63
1.31433	-62
1.31800	-65
1.32167	-72
1.32533	-80
1.32900	-86
1.33267	-90
1.33633	-92
1.34000	-89
1.34367	-84
1.34733	-76
1.35100	-69
1.35467	-66
1.35833	-66
1.36200	-67
1.36567	-69
1.36933	-71
1.37300	-72
1.37667	-72
1.38033	-75
1.38400	-79
1.38767	-83
1.39133	-81
1.39500	-76
1.39867	-73
1.40233	-72
1.40600	-72
1.40967	-75
1.41333	-76
1.41700	-79
1.42067	-83
1.42433	-85
1.42800	-84
1.43167	-86
1.43533	-89
1.43900	-76
1.44267	-6
1.44633	231
1.45000	719
1.45367	1493
1.45733	2607
1.46100	4018
1.46467	5515
1.46833	6861
1.47200	7874
1.47567	8431
1.47933	8457
1.48300	7941
1.48667	6972
1.49033	5741
1.49400	4473
1.49767	3336
1.50133	2409
1.50500	1699
1.50867	1174
1.51233	794
1.51600	523
1.51967	331
1.52333	196
1.52700	101
1.53067	35
1.53433	-10
1.53800	-38
1.54167	-35
1.54533	43
1.54900	251
1.55267	597
1.55633	1016
1.56000	1424
1.56367	1764
1.56733	2001
1.57100	2103
1.57467	2034
1.57833	1799
1.58200	1453
1.58567	1080
1.58933	743
1.59300	475
1.59667	278
1.60033	141
1.60400	50
1.60767	-9
1.61133	-49
1.61500	-78
1.61867	-99
1.62233	-112
1.62600	-116
1.62967	-118
1.63333	-124
1.63700	-132
1.64067	-140
1.64433	-141
1.64800	-137
1.65167	-133
1.65533	-132
1.65900	-134
1.66267	-140
1.66633	-148
1.67000	-155
1.67367	-160
1.67733	-157
1.68100	-148
1.68467	-142
1.68833	-139
1.69200	-140
1.69567	-145
1.69933	-149
1.70300	-151
1.70667	-152
1.71033	-157
1.71400	-161
1.71767	-161
1.72133	-162
1.72500	-164
1.72867	-165
1.73233	-164
1.73600	-160
1.73967	-153
1.74333	-144
1.74700	-138
1.75067	-134
1.75433	-132
1.75800	-130
1.76167	-128
1.76533	-123
1.76900	-118
1.77267	-117
1.77633	-119
1.78000	-121
1.78367	-123
1.78733	-127
1.79100	-134
1.79467	-140
1.79833	-139
1.80200	-133
1.80567	-125
1.80933	-121
1.81300	-119
1.81667	-117
1.82033	-117
1.82400	-123
1.82767	-132
1.83133	-137
1.83500	-136
1.83867	-132
1.84233	-129
1.84600	-126
1.84967	-127
1.85333	-129
1.85700	-131
1.86067	-132
1.86433	-137
1.86800	-140
1.87167	-137
1.87533	-129
1.87900	-121
1.88267	-115
1.88633	-115
1.89000	-117
1.89367	-118
1.89733	-122
1.90100	-126
1.90467	-129
1.90833	-129
1.91200	-122
1.91567	-115
1.91933	-111
1.92300	-111
1.92667	-115
1.93033	-123
1.93400	-133
1.93767	-141
1.94133	-145
1.94500	-145
1.94867	-143
1.95233	-132
1.95600	-91
1.95967	154
1.96333	1471
1.96700	7106
1.97067	25559
1.97433	72248
1.97800	164233
1.98167	307183
1.98533	486562
1.98900	672440
1.99267	831477
1.99633	936312
2.00000	970480
2.00367	931382
2.00733	831182
2.01100	693152
2.01467	544105
2.01833	405912
2.02200	290915
2.02567	202466
2.02933	138192
2.03300	93311
2.03667	62810
2.04033	42436
2.04400	28956
2.04767	20068
2.05133	14198
2.05500	10290
2.05867	7653
2.06233	5843
2.06600	4579
2.06967	3677
2.07333	3018
2.07700	2527
2.08067	2155
2.08433	1865
2.08800	1632
2.09167	1445
2.09533	1292
2.09900	1167
2.10267	1062
2.10633	974
2.11000	898
2.11367	832
2.11733	774
2.12100	721
2.12467	673
2.12833	625
2.13200	582
2.13567	548
2.13933	520
2.14300	496
2.14667	471
2.15033	446
2.15400	421
2.15767	396
2.16133	370
2.16500	347
2.16867	330
2.17233	320
2.17600	314
2.17967	306
2.18333	294
2.18700	278
2.19067	263
2.19433	252
2.19800	244
2.20167	236
2.20533	229
2.20900	221
2.21267	213
2.21633	204
2.22000	193
2.22367	184
2.22733	175
2.23100	165
2.23467	156
2.23833	150
2.24200	144
2.24567	137
2.24933	133
2.25300	133
2.25667	136
2.26033	138
2.26400	139
2.26767	135
2.27133	128
2.27500	120
2.27867	112
2.28233	108
2.28600	105
2.28967	101
2.29333	102
2.29700	104
2.30067	104
2.30433	105
2.30800	103
2.31167	95
2.31533	88
2.31900	87
2.32267	89
2.32633	92
2.33000	92
2.33367	86
2.33733	79
2.34100	74
2.34467	72
2.34833	72
2.35200	72
2.35567	72
2.35933	72
2.36300	71
2.36667	68
2.37033	66
2.37400	62
2.37767	58
2.38133	60
2.38500	67
2.38867	73
2.39233	80
2.39600	83
2.39967	82
2.40333	80
2.40700	77
2.41067	72
2.41433	67
2.41800	63
2.42167	60
2.42533	60
2.42900	61
2.43267	64
2.43633	72
2.44000	79
2.44367	84
2.44733	84
2.45100	80
2.45467	73
2.45833	63
2.46200	53
2.46567	46
2.46933	43
2.47300	43
2.47667	45
2.48033	45
2.48400	47
2.48767	47
2.49133	43
2.49500	37
2.49867	31
2.50233	28
2.50600	27
2.50967	32
2.51333	39
2.51700	47
2.52067	49
2.52433	48
2.52800	47
2.53167	47
2.53533	50
2.53900	52
2.54267	54
2.54633	54
2.55000	51
2.55367	45
2.55733	37
2.56100	30
2.56467	24
2.56833	20
2.57200	18
2.57567	15
2.57933	12
2.58300	7
2.58667	6
2.59033	11
2.59400	20
2.59767	25
2.60133	25
2.60500	20
2.60867	15
2.61233	13
2.61600	13
2.61967	12
2.62333	11
2.62700	9
2.63067	8
2.63433	6
2.63800	3
2.64167	4
2.64533	10
2.64900	17
2.65267	19
2.65633	17
2.66000	14
2.66367	9
2.66733	7
2.67100	10
2.67467	17
2.67833	23
2.68200	24
2.68567	20
2.68933	13
2.69300	8
2.69667	6
2.70033	7
2.70400	9
2.70767	12
2.71133	11
2.71500	9
2.71867	10
2.72233	12
2.72600	12
2.72967	8
2.73333	3
2.73700	2
2.74067	5
2.74433	9
2.74800	12
2.75167	15
2.75533	15
2.75900	11
2.76267	5
2.76633	-2
2.77000	-8
2.77367	-8
2.77733	-4
2.78100	-0
2.78467	-2
2.78833	-8
2.79200	-14
2.79567	-16
2.79933	-14
2.80300	-9
2.80667	-4
2.81033	-1
2.81400	-1
2.81767	-4
2.82133	-7
2.82500	-9
2.82867	-9
2.83233	-8
2.83600	-8
2.83967	-8
2.84333	-5
2.84700	-1
2.85067	1
2.85433	-0
2.85800	-0
2.86167	1
2.86533	4
2.86900	9
2.87267	15
2.87633	19
2.88000	19
2.88367	15
2.88733	6
2.89100	-4
2.89467	-11
2.89833	-16
2.90200	-18
2.90567	-17
2.90933	-14
2.91300	-15
2.91667	-16
2.92033	-15
2.92400	-14
2.92767	-13
2.93133	-11
2.93500	-9
2.93867	-6
2.94233	-4
2.94600	1
2.94967	3
2.95333	2
2.95700	2
2.96067	1
2.96433	-3
2.96800	-8
2.97167	-10
2.97533	-12
2.97900	-12
2.98267	-9
2.98633	-4
2.99000	-0
2.99367	1
2.99733	-1
3.00100	-1
3.00467	2
3.00833	4
3.01200	2
3.01567	-2
3.01933	-3
3.02300	-4
3.02667	-6
3.03033	-9
3.03400	-11
3.03767	-9
3.04133	-8
3.04500	-6
3.04867	-3
3.05233	-2
3.05600	-2
3.05967	-4
3.06333	-6
3.06700	-6
3.07067	-5
3.07433	-3
3.07800	-2
3.08167	-5
3.08533	-11
3.08900	-19
3.09267	-24
3.09633	-26
3.10000	-26
3.10367	-20
3.10733	-10
3.11100	-2
3.11467	-3
3.11833	-5
3.12200	-5
3.12567	-4
3.12933	-6
3.13300	-8
3.13667	-8
3.14033	-5
3.14400	1
3.14767	8
3.15133	11
3.15500	10
3.15867	6
3.16233	1
3.16600	-5
3.16967	-11
3.17333	-13
3.17700	-11
3.18067	-6
3.18433	-1
3.18800	1
3.19167	-1
3.19533	-6
3.19900	-9
3.20267	-13
3.20633	-16
3.21000	-18
3.21367	-16
3.21733	-8
3.22100	1
3.22467	6
3.22833	10
3.23200	13
3.23567	15
3.23933	15
3.24300	14
3.24667	12
3.25033	10
3.25400	10
3.25767	6
3.26133	2
3.26500	1
3.26867	4
3.27233	7
3.27600	10
3.27967	8
3.28333	3
3.28700	-2
3.29067	-4
3.29433	-3
3.29800	-1
3.30167	2
3.30533	3
3.30900	3
3.31267	8
3.31633	10
3.32000	12
3.32367	12
3.32733	12
3.33100	13
3.33467	15
3.33833	16
3.34200	15
3.34567	9
3.34933	2
3.35300	2
3.35667	5
3.36033	9
3.36400	10
3.36767	7
3.37133	2
3.37500	-2
3.37867	-5
3.38233	-7
3.38600	-9
3.38967	-10
3.39333	-6
3.39700	-3
3.40067	-4
3.40433	-6
3.40800	-4
3.41167	0
3.41533	2
3.41900	-0
3.42267	-5
3.42633	-6
3.43000	-9
3.43367	-13
3.43733	-14
3.44100	-10
3.44467	-5
3.44833	0
3.45200	3
3.45567	3
3.45933	5
3.46300	6
3.46667	2
3.47033	-6
3.47400	-14
3.47767	-20
3.48133	-21
3.48500	-17
3.48867	-12
3.49233	-4
3.49600	3
3.49967	3
3.50333	-3
3.50700	-9
3.51067	-13
3.51433	-16
3.51800	-19
3.52167	-21
3.52533	-21
3.52900	-21
3.53267	-21
3.53633	-20
3.54000	-21
3.54367	-24
3.54733	-26
3.55100	-24
3.55467	-22
3.55833	-18
3.56200	-14
3.56567	-13
3.56933	-14
3.57300	-16
3.57667	-17
3.58033	-14
3.58400	-8
3.58767	-7
3.59133	-13
3.59500	-23
3.59867	-29
3.60233	-30
3.60600	-25
3.60967	-20
3.61333	-14
3.61700	-11
3.62067	-12
3.62433	-15
3.62800	-16
3.63167	-17
3.63533	-19
3.63900	-22
3.64267	-26
3.64633	-30
3.65000	-34
3.65367	-36
3.65733	-37
3.66100	-35
3.66467	-32
3.66833	-28
3.67200	-25
3.67567	-23
3.67933	-25
3.68300	-29
3.68667	-33
3.69033	-34
3.69400	-31
3.69767	-31
3.70133	-34
3.70500	-37
3.70867	-37
3.71233	-34
3.71600	-32
3.71967	-32
3.72333	-32
3.72700	-32
3.73067	-30
3.73433	-27
3.73800	-24
3.74167	-20
3.74533	-18
3.74900	-19
3.75267	-19
3.75633	-19
3.76000	-22
3.76367	-25
3.76733	-29
3.77100	-33
3.77467	-36
3.77833	-39
3.78200	-39
3.78567	-38
3.78933	-35
3.79300	-34
3.79667	-36
3.80033	-35
3.80400	-31
3.80767	-26
3.81133	-19
3.81500	-15
3.81867	-15
3.82233	-18
3.82600	-24
3.82967	-30
3.83333	-36
3.83700	-40
3.84067	-42
3.84433	-40
3.84800	-38
3.85167	-40
3.85533	-42
3.85900	-41
3.86267	-39
3.86633	-34
3.87000	-25
3.87367	-14
3.87733	-5
3.88100	-1
3.88467	-4
3.88833	-14
3.89200	-29
3.89567	-46
3.89933	-59
3.90300	-67
3.90667	-69
3.91033	-67
3.91400	-60
3.91767	-49
3.92133	-39
3.92500	-33
3.92867	-30
3.93233	-29
3.93600	-28
3.93967	-25
3.94333	-23
3.94700	-25
3.95067	-31
3.95433	-40
3.95800	-46
3.96167	-48
3.96533	-46
3.96900	-42
3.97267	-40
3.97633	-40
3.98000	-44
3.98367	-45
3.98733	-41
3.99100	-37
3.99467	-36
3.99833	-40

[Chromatogram (Ch2)]
Interval(msec)	220
# of Points	1091
Start Time(min)	0.002
End Time(min)	3.998
R.Time (min)	Intensity
0.00167	-0
0.00533	-0
0.00900	-0
0.01267	0
0.01633	0
0.02000	-0
0.02367	-0
0.02733	-0
0.03100	-0
0.03467	-0
0.03833	-0
0.04200	0
0.04567	0
0.04933	1
0.05300	1
0.05667	1
0.06033	2
0.06400	2
0.06767	3
0.07133	3
0.07500	3
0.07867	3
0.08233	3
0.08600	3
0.08967	3
0.09333	3
0.09700	3
0.10067	3
0.10433	3
0.10800	3
0.11167	3
0.11533	3
0.11900	3
0.12267	2
0.12633	2
0.13000	2
0.13367	2
0.13733	2
0.14100	2
0.14467	2
0.14833	2
0.15200	3
0.15567	3
0.15933	3
0.16300	3
0.16667	3
0.17033	4
0.17400	4
0.17767	4
0.18133	5
0.18500	5
0.18867	5
0.19233	5
0.19600	5
0.19967	5
0.20333	5
0.20700	5
0.21067	5
0.21433	5
0.21800	4
0.22167	4
0.22533	4
0.22900	4
0.23267	3
0.23633	3
0.24000	2
0.24367	2
0.24733	1
0.25100	0
0.25467	-0
0.25833	-1
0.26200	-1
0.26567	-1
0.26933	-2
0.27300	-2
0.27667	-2
0.28033	-2
0.28400	-2
0.28767	-2
0.29133	-3
0.29500	-3
0.29867	-3
0.30233	-3
0.30600	-2
0.30967	-2
0.31333	-1
0.31700	-1
0.32067	-0
0.32433	-0
0.32800	0
0.33167	0
0.33533	-0
0.33900	-0
0.34267	-0
0.34633	-1
0.35000	-1
0.35367	-1
0.35733	-2
0.36100	-2
0.36467	-2
0.36833	-2
0.37200	-2
0.37567	-2
0.37933	-2
0.38300	-2
0.38667	-2
0.39033	-1
0.39400	-1
0.39767	-1
0.40133	-1
0.40500	-0
0.40867	0
0.41233	1
0.41600	1
0.41967	2
0.42333	2
0.42700	2
0.43067	3
0.43433	3
0.43800	3
0.44167	4
0.44533	4
0.44900	4
0.45267	4
0.45633	4
0.46000	4
0.46367	4
0.46733	4
0.47100	5
0.47467	5
0.47833	5
0.48200	5
0.48567	5
0.48933	5
0.49300	5
0.49667	5
0.50033	5
0.50400	5
0.50767	5
0.51133	5
0.51500	5
0.51867	4
0.52233	4
0.52600	3
0.52967	3
0.53333	3
0.53700	2
0.54067	2
0.54433	2
0.54800	2
0.55167	2
0.55533	2
0.55900	1
0.56267	1
0.56633	1
0.57000	1
0.57367	1
0.57733	1
0.58100	1
0.58467	1
0.58833	1
0.59200	1
0.59567	1
0.59933	2
0.60300	2
0.60667	2
0.61033	2
0.61400	2
0.61767	2
0.62133	1
0.62500	1
0.62867	1
0.63233	1
0.63600	2
0.63967	2
0.64333	2
0.64700	2
0.65067	2
0.65433	2
0.65800	2
0.66167	2
0.66533	2
0.66900	2
0.67267	1
0.67633	1
0.68000	1
0.68367	2
0.68733	2
0.69100	2
0.69467	1
0.69833	1
0.70200	1
0.70567	1
0.70933	1
0.71300	1
0.71667	1
0.72033	1
0.72400	1
0.72767	1
0.73133	1
0.73500	1
0.73867	1
0.74233	1
0.74600	2
0.74967	2
0.75333	2
0.75700	2
0.76067	2
0.76433	2
0.76800	2
0.77167	2
0.77533	1
0.77900	1
0.78267	1
0.78633	1
0.79000	1
0.79367	1
0.79733	1
0.80100	1
0.80467	1
0.80833	1
0.81200	1
0.81567	1
0.81933	1
0.82300	1
0.82667	1
0.83033	0
0.83400	0
0.83767	0
0.84133	0
0.84500	-0
0.84867	-0
0.85233	-1
0.85600	-1
0.85967	-1
0.86333	-1
0.86700	-1
0.87067	-1
0.87433	-1
0.87800	-1
0.88167	-1
0.88533	-1
0.88900	-1
0.89267	-1
0.89633	-2
0.90000	-2
0.90367	-2
0.90733	-3
0.91100	-3
0.91467	-4
0.91833	-4
0.92200	-5
0.92567	-5
0.92933	-5
0.93300	-5
0.93667	-5
0.94033	-5
0.94400	-4
0.94767	-4
0.95133	-4
0.95500	-3
0.95867	-3
0.96233	-2
0.96600	-2
0.96967	-1
0.97333	-1
0.97700	-1
0.98067	-0
0.98433	-0
0.98800	-0
0.99167	0
0.99533	1
0.99900	1
1.00267	1
1.00633	1
1.01000	1
1.01367	2
1.01733	2
1.02100	2
1.02467	2
1.02833	3
1.03200	3
1.03567	3
1.03933	3
1.04300	3
1.04667	3
1.05033	3
1.05400	3
1.05767	3
1.06133	3
1.06500	3
1.06867	3
1.07233	2
1.07600	2
1.07967	2
1.08333	2
1.08700	2
1.09067	2
1.09433	2
1.09800	2
1.10167	2
1.10533	1
1.10900	1
1.11267	1
1.11633	0
1.12000	-0
1.12367	-0
1.12733	-0
1.13100	-0
1.13467	-0
1.13833	-0
1.14200	-0
1.14567	0
1.14933	0
1.15300	0
1.15667	0
1.16033	0
1.16400	0
1.16767	0
1.17133	-0
1.17500	-0
1.17867	-0
1.18233	-0
1.18600	-1
1.18967	-1
1.19333	-1
1.19700	-1
1.20067	-1
1.20433	-1
1.20800	-2
1.21167	-2
1.21533	-2
1.21900	-2
1.22267	-2
1.22633	-2
1.23000	-2
1.23367	-2
1.23733	-1
1.24100	-1
1.24467	-1
1.24833	-1
1.25200	-1
1.25567	-1
1.25933	-1
1.26300	-1
1.26667	-0
1.27033	0
1.27400	0
1.27767	1
1.28133	1
1.28500	1
1.28867	1
1.29233	1
1.29600	1
1.29967	0
1.30333	0
1.30700	-0
1.31067	-0
1.31433	-0
1.31800	-1
1.32167	-1
1.32533	-1
1.32900	-1
1.33267	-2
1.33633	-2
1.34000	-2
1.34367	-2
1.34733	-2
1.35100	-2
1.35467	-3
1.35833	-3
1.36200	-3
1.36567	-2
1.36933	-2
1.37300	-2
1.37667	-2
1.38033	-1
1.38400	-1
1.38767	-1
1.39133	-1
1.39500	-1
1.39867	-1
1.40233	-0
1.40600	-0
1.40967	-0
1.41333	0
1.41700	0
1.42067	0
1.42433	0
1.42800	0
1.43167	0
1.43533	0
1.43900	0
1.44267	0
1.44633	0
1.45000	0
1.45367	0
1.45733	0
1.46100	0
1.46467	0
1.46833	0
1.47200	0
1.47567	0
1.47933	0
1.48300	-0
1.48667	-0
1.49033	-0
1.49400	0
1.49767	0
1.50133	0
1.50500	0
1.50867	0
1.51233	0
1.51600	0
1.51967	0
1.52333	0
1.52700	-0
1.53067	-0
1.53433	-1
1.53800	-1
1.54167	-1
1.54533	-1
1.54900	-1
1.55267	-1
1.55633	-1
1.56000	-1
1.56367	-1
1.56733	-1
1.57100	-1
1.57467	-2
1.57833	-2
1.58200	-2
1.58567	-2
1.58933	-2
1.59300	-2
1.59667	-2
1.60033	-3
1.60400	-3
1.60767	-5
1.61133	-6
1.61500	-8
1.61867	-10
1.62233	-13
1.62600	-16
1.62967	-19
1.63333	-22
1.63700	-26
1.64067	-29
1.64433	-33
1.64800	-36
1.65167	-40
1.65533	-44
1.65900	-48
1.66267	-52
1.66633	-57
1.67000	-62
1.67367	-67
1.67733	-73
1.68100	-78
1.68467	-83
1.68833	-88
1.69200	-92
1.69567	-96
1.69933	-100
1.70300	-103
1.70667	-106
1.71033	-108
1.71400	-110
1.71767	-111
1.72133	-113
1.72500	-114
1.72867	-114
1.73233	-115
1.73600	-115
1.73967	-115
1.74333	-115
1.74700	-115
1.75067	-114
1.75433	-114
1.75800	-113
1.76167	-112
1.76533	-111
1.76900	-111
1.77267	-110
1.77633	-110
1.78000	-111
1.78367	-112
1.78733	-113
1.79100	-115
1.79467	-116
1.79833	-118
1.80200	-119
1.80567	-120
1.80933	-121
1.81300	-121
1.81667	-120
1.82033	-120
1.82400	-120
1.82767	-120
1.83133	-120
1.83500	-121
1.83867	-121
1.84233	-121
1.84600	-122
1.84967	-122
1.85333	-122
1.85700	-123
1.86067	-123
1.86433	-123
1.86800	-122
1.87167	-122
1.87533	-122
1.87900	-121
1.88267	-121
1.88633	-121
1.89000	-121
1.89367	-120
1.89733	-120
1.90100	-120
1.90467	-119
1.90833	-119
1.91200	-118
1.91567	-117
1.91933	-117
1.92300	-118
1.92667	-118
1.93033	-118
1.93400	-118
1.93767	-118
1.94133	-117
1.94500	-117
1.94867	-116
1.95233	-116
1.95600	-116
1.95967	-116
1.96333	-116
1.96700	-116
1.97067	-116
1.97433	-116
1.97800	-115
1.98167	-115
1.98533	-115
1.98900	-115
1.99267	-114
1.99633	-114
2.00000	-114
2.00367	-113
2.00733	-113
2.01100	-112
2.01467	-112
2.01833	-112
2.02200	-111
2.02567	-111
2.02933	-112
2.03300	-112
2.03667	-112
2.04033	-112
2.04400	-112
2.04767	-111
2.05133	-111
2.05500	-110
2.05867	-110
2.06233	-109
2.06600	-108
2.06967	-108
2.07333	-108
2.07700	-108
2.08067	-108
2.08433	-108
2.08800	-108
2.09167	-107
2.09533	-106
2.09900	-106
2.10267	-105
2.10633	-104
2.11000	-104
2.11367	-103
2.11733	-103
2.12100	-102
2.12467	-102
2.12833	-102
2.13200	-102
2.13567	-102
2.13933	-103
2.14300	-103
2.14667	-103
2.15033	-102
2.15400	-102
2.15767	-101
2.16133	-100
2.16500	-99
2.16867	-98
2.17233	-98
2.17600	-97
2.17967	-97
2.18333	-96
2.18700	-96
2.19067	-96
2.19433	-96
2.19800	-96
2.20167	-96
2.20533	-96
2.20900	-96
2.21267	-96
2.21633	-95
2.22000	-95
2.22367	-94
2.22733	-94
2.23100	-93
2.23467	-93
2.23833	-93
2.24200	-93
2.24567	-93
2.24933	-94
2.25300	-94
2.25667	-94
2.26033	-94
2.26400	-94
2.26767	-94
2.27133	-93
2.27500	-93
2.27867	-93
2.28233	-93
2.28600	-92
2.28967	-91
2.29333	-91
2.29700	-91
2.30067	-90
2.30433	-90
2.30800	-90
2.31167	-90
2.31533	-89
2.31900	-89
2.32267	-88
2.32633	-88
2.33000	-87
2.33367	-87
2.33733	-86
2.34100	-86
2.34467	-85
2.34833	-85
2.35200	-85
2.35567	-86
2.35933	-86
2.36300	-87
2.36667	-88
2.37033	-88
2.37400	-88
2.37767	-86
2.38133	-84
2.38500	-81
2.38867	-78
2.39233	-74
2.39600	-69
2.39967	-64
2.40333	-59
2.40700	-53
2.41067	-48
2.41433	-42
2.41800	-37
2.42167	-32
2.42533	-28
2.42900	-24
2.43267	-20
2.43633	-18
2.44000	-15
2.44367	-13
2.44733	-11
2.45100	-9
2.45467	-7
2.45833	-5
2.46200	-3
2.46567	-2
2.46933	-1
2.47300	-0
2.47667	0
2.48033	1
2.48400	2
2.48767	3
2.49133	4
2.49500	5
2.49867	5
2.50233	6
2.50600	6
2.50967	7
2.51333	8
2.51700	9
2.52067	10
2.52433	11
2.52800	12
2.53167	13
2.53533	14
2.53900	14
2.54267	15
2.54633	15
2.55000	16
2.55367	16
2.55733	15
2.56100	15
2.56467	15
2.56833	15
2.57200	15
2.57567	14
2.57933	14
2.58300	14
2.58667	14
2.59033	13
2.59400	14
2.59767	14
2.60133	14
2.60500	14
2.60867	15
2.61233	15
2.61600	16
2.61967	16
2.62333	16
2.62700	16
2.63067	17
2.63433	17
2.63800	17
2.64167	18
2.64533	18
2.64900	18
2.65267	18
2.65633	18
2.66000	19
2.66367	19
2.66733	19
2.67100	20
2.67467	20
2.67833	20
2.68200	21
2.68567	21
2.68933	21
2.69300	21
2.69667	21
2.70033	21
2.70400	22
2.70767	22
2.71133	22
2.71500	22
2.71867	22
2.72233	22
2.72600	22
2.72967	22
2.73333	21
2.73700	21
2.74067	21
2.74433	21
2.74800	21
2.75167	21
2.75533	21
2.75900	22
2.76267	22
2.76633	22
2.77000	22
2.77367	22
2.77733	23
2.78100	23
2.78467	23
2.78833	23
2.79200	23
2.79567	23
2.79933	23
2.80300	23
2.80667	23
2.81033	23
2.81400	23
2.81767	22
2.82133	22
2.82500	23
2.82867	23
2.83233	23
2.83600	23
2.83967	22
2.84333	22
2.84700	21
2.85067	19
2.85433	15
2.85800	9
2.86167	-0
2.86533	-12
2.86900	-28
2.87267	-48
2.87633	-73
2.88000	-101
2.88367	-133
2.88733	-169
2.89100	-209
2.89467	-251
2.89833	-296
2.90200	-343
2.90567	-391
2.90933	-441
2.91300	-491
2.91667	-542
2.92033	-592
2.92400	-642
2.92767	-691
2.93133	-739
2.93500	-787
2.93867	-837
2.94233	-892
2.94600	-953
2.94967	-1014
2.95333	-1062
2.95700	-1087
2.96067	-1086
2.96433	-1060
2.96800	-1012
2.97167	-948
2.97533	-874
2.97900	-795
2.98267	-715
2.98633	-636
2.99000	-562
2.99367	-493
2.99733	-429
3.00100	-372
3.00467	-321
3.00833	-276
3.01200	-236
3.01567	-201
3.01933	-171
3.02300	-144
3.02667	-122
3.03033	-102
3.03400	-85
3.03767	-71
3.04133	-59
3.04500	-49
3.04867	-40
3.05233	-32
3.05600	-26
3.05967	-20
3.06333	-15
3.06700	-11
3.07067	-7
3.07433	-4
3.07800	-1
3.08167	2
3.08533	4
3.08900	6
3.09267	8
3.09633	9
3.10000	10
3.10367	11
3.10733	12
3.11100	13
3.11467	14
3.11833	14
3.12200	15
3.12567	15
3.12933	15
3.13300	16
3.13667	16
3.14033	17
3.14400	17
3.14767	18
3.15133	18
3.15500	19
3.15867	19
3.16233	19
3.16600	19
3.16967	19
3.17333	20
3.17700	20
3.18067	21
3.18433	21
3.18800	21
3.19167	21
3.19533	21
3.19900	21
3.20267	21
3.20633	21
3.21000	21
3.21367	21
3.21733	21
3.22100	21
3.22467	22
3.22833	22
3.23200	22
3.23567	22
3.23933	22
3.24300	22
3.24667	23
3.25033	23
3.25400	23
3.25767	23
3.26133	23
3.26500	23
3.26867	24
3.27233	24
3.27600	24
3.27967	24
3.28333	24
3.28700	24
3.29067	24
3.29433	24
3.29800	24
3.30167	24
3.30533	24
3.30900	24
3.31267	24
3.31633	24
3.32000	24
3.32367	24
3.32733	24
3.33100	24
3.33467	24
3.33833	24
3.34200	25
3.34567	25
3.34933	25
3.35300	25
3.35667	25
3.36033	25
3.36400	25
3.36767	25
3.37133	25
3.37500	26
3.37867	26
3.38233	26
3.38600	26
3.38967	26
3.39333	26
3.39700	26
3.40067	26
3.40433	26
3.40800	26
3.41167	26
3.41533	26
3.41900	26
3.42267	26
3.42633	26
3.43000	25
3.43367	25
3.43733	25
3.44100	25
3.44467	25
3.44833	25
3.45200	25
3.45567	25
3.45933	26
3.46300	26
3.46667	26
3.47033	26
3.47400	26
3.47767	26
3.48133	26
3.48500	26
3.48867	26
3.49233	26
3.49600	27
3.49967	27
3.50333	27
3.50700	27
3.51067	27
3.51433	27
3.51800	27
3.52167	27
3.52533	27
3.52900	27
3.53267	28
3.53633	28
3.54000	28
3.54367	28
3.54733	28
3.55100	28
3.55467	28
3.55833	29
3.56200	29
3.56567	29
3.56933	28
3.57300	28
3.57667	28
3.58033	28
3.58400	28
3.58767	28
3.59133	28
3.59500	28
3.59867	29
3.60233	29
3.60600	29
3.60967	28
3.61333	28
3.61700	28
3.62067	28
3.62433	28
3.62800	28
3.63167	28
3.63533	28
3.63900	28
3.64267	28
3.64633	28
3.65000	28
3.65367	28
3.65733	28
3.66100	28
3.66467	28
3.66833	28
3.67200	27
3.67567	27
3.67933	27
3.68300	27
3.68667	28
3.69033	27
3.69400	27
3.69767	27
3.70133	27
3.70500	27
3.70867	27
3.71233	27
3.71600	27
3.71967	27
3.72333	27
3.72700	27
3.73067	27
3.73433	27
3.73800	27
3.74167	27
3.74533	27
3.74900	27
3.75267	27
3.75633	27
3.76000	27
3.76367	27
3.76733	28
3.77100	28
3.77467	28
3.77833	28
3.78200	28
3.78567	28
3.78933	28
3.79300	28
3.79667	28
3.80033	28
3.80400	28
3.80767	27
3.81133	27
3.81500	27
3.81867	27
3.82233	27
3.82600	27
3.82967	27
3.83333	27
3.83700	27
3.84067	27
3.84433	27
3.84800	27
3.85167	27
3.85533	27
3.85900	27
3.86267	27
3.86633	27
3.87000	27
3.87367	27
3.87733	27
3.88100	27
3.88467	27
3.88833	27
3.89200	27
3.89567	27
3.89933	27
3.90300	26
3.90667	26
3.91033	26
3.91400	27
3.91767	27
3.92133	27
3.92500	27
3.92867	27
3.93233	27
3.93600	27
3.93967	27
3.94333	27
3.94700	27
3.95067	27
3.95433	28
3.95800	27
3.96167	27
3.96533	27
3.96900	27
3.97267	27
3.97633	27
3.98000	27
3.98367	27
3.98733	27
3.99100	27
3.99467	27
3.99833	27

[Chromatogram (Ch3)]
Interval(msec)	220
# of Points	1091
Start Time(min)	0.002
End Time(min)	3.998
R.Time (min)	Intensity
0.00167	0
0.00533	0
0.00900	0
0.01267	1
0.01633	1
0.02000	2
0.02367	4
0.02733	3
0.03100	2
0.03467	0
0.03833	-1
0.04200	-0
0.04567	0
0.04933	3
0.05300	5
0.05667	8
0.06033	11
0.06400	11
0.06767	11
0.07133	11
0.07500	11
0.07867	11
0.08233	10
0.08600	8
0.08967	7
0.09333	6
0.09700	4
0.10067	3
0.10433	4
0.10800	6
0.11167	9
0.11533	11
0.11900	12
0.12267	11
0.12633	9
0.13000	9
0.13367	7
0.13733	7
0.14100	8
0.14467	10
0.14833	12
0.15200	11
0.15567	10
0.15933	11
0.16300	13
0.16667	14
0.17033	14
0.17400	13
0.17767	13
0.18133	14
0.18500	13
0.18867	13
0.19233	12
0.19600	12
0.19967	13
0.20333	14
0.20700	15
0.21067	15
0.21433	15
0.21800	15
0.22167	15
0.22533	14
0.22900	14
0.23267	15
0.23633	14
0.24000	14
0.24367	14
0.24733	13
0.25100	14
0.25467	15
0.25833	16
0.26200	17
0.26567	17
0.26933	17
0.27300	16
0.27667	14
0.28033	13
0.28400	13
0.28767	16
0.29133	20
0.29500	22
0.29867	21
0.30233	19
0.30600	18
0.30967	19
0.31333	21
0.31700	21
0.32067	22
0.32433	22
0.32800	21
0.33167	20
0.33533	21
0.33900	21
0.34267	21
0.34633	19
0.35000	18
0.35367	17
0.35733	15
0.36100	15
0.36467	16
0.36833	16
0.37200	13
0.37567	12
0.37933	13
0.38300	14
0.38667	18
0.39033	20
0.39400	20
0.39767	18
0.40133	17
0.40500	17
0.40867	17
0.41233	17
0.41600	17
0.41967	19
0.42333	19
0.42700	18
0.43067	17
0.43433	16
0.43800	15
0.44167	16
0.44533	16
0.44900	16
0.45267	18
0.45633	19
0.46000	19
0.46367	21
0.46733	22
0.47100	22
0.47467	20
0.47833	20
0.48200	21
0.48567	20
0.48933	18
0.49300	20
0.49667	22
0.50033	22
0.50400	22
0.50767	21
0.51133	18
0.51500	17
0.51867	16
0.52233	17
0.52600	19
0.52967	19
0.53333	18
0.53700	18
0.54067	20
0.54433	21
0.54800	21
0.55167	20
0.55533	22
0.55900	25
0.56267	25
0.56633	23
0.57000	22
0.57367	22
0.57733	21
0.58100	22
0.58467	24
0.58833	25
0.59200	25
0.59567	26
0.59933	27
0.60300	26
0.60667	25
0.61033	23
0.61400	22
0.61767	22
0.62133	21
0.62500	20
0.62867	20
0.63233	22
0.63600	23
0.63967	24
0.64333	24
0.64700	23
0.65067	23
0.65433	24
0.65800	26
0.66167	27
0.66533	28
0.66900	26
0.67267	25
0.67633	25
0.68000	24
0.68367	25
0.68733	26
0.69100	29
0.69467	31
0.69833	31
0.70200	32
0.70567	32
0.70933	31
0.71300	32
0.71667	32
0.72033	31
0.72400	28
0.72767	27
0.73133	28
0.73500	30
0.73867	30
0.74233	28
0.74600	28
0.74967	28
0.75333	30
0.75700	31
0.76067	32
0.76433	32
0.76800	32
0.77167	32
0.77533	31
0.77900	31
0.78267	33
0.78633	34
0.79000	34
0.79367	34
0.79733	34
0.80100	34
0.80467	33
0.80833	34
0.81200	37
0.81567	40
0.81933	41
0.82300	41
0.82667	38
0.83033	37
0.83400	36
0.83767	36
0.84133	36
0.84500	36
0.84867	37
0.85233	37
0.85600	38
0.85967	38
0.86333	39
0.86700	39
0.87067	38
0.87433	38
0.87800	39
0.88167	41
0.88533	43
0.88900	44
0.89267	44
0.89633	46
0.90000	47
0.90367	47
0.90733	46
0.91100	44
0.91467	45
0.91833	45
0.92200	44
0.92567	44
0.92933	44
0.93300	44
0.93667	43
0.94033	41
0.94400	40
0.94767	38
0.95133	37
0.95500	37
0.95867	42
0.96233	44
0.96600	44
0.96967	44
0.97333	47
0.97700	49
0.98067	51
0.98433	49
0.98800	47
0.99167	48
0.99533	48
0.99900	49
1.00267	49
1.00633	52
1.01000	52
1.01367	51
1.01733	48
1.02100	45
1.02467	42
1.02833	43
1.03200	45
1.03567	46
1.03933	46
1.04300	47
1.04667	49
1.05033	51
1.05400	52
1.05767	49
1.06133	48
1.06500	46
1.06867	46
1.07233	45
1.07600	45
1.07967	45
1.08333	47
1.08700	48
1.09067	48
1.09433	48
1.09800	48
1.10167	49
1.10533	48
1.10900	48
1.11267	48
1.11633	49
1.12000	49
1.12367	50
1.12733	50
1.13100	51
1.13467	53
1.13833	55
1.14200	54
1.14567	52
1.14933	49
1.15300	49
1.15667	48
1.16033	46
1.16400	44
1.16767	44
1.17133	44
1.17500	45
1.17867	47
1.18233	46
1.18600	48
1.18967	51
1.19333	50
1.19700	48
1.20067	48
1.20433	49
1.20800	50
1.21167	49
1.21533	49
1.21900	49
1.22267	49
1.22633	48
1.23000	46
1.23367	45
1.23733	46
1.24100	46
1.24467	48
1.24833	50
1.25200	50
1.25567	50
1.25933	50
1.26300	51
1.26667	54
1.27033	57
1.27400	57
1.27767	58
1.28133	59
1.28500	59
1.28867	58
1.29233	56
1.29600	54
1.29967	54
1.30333	55
1.30700	54
1.31067	55
1.31433	57
1.31800	60
1.32167	63
1.32533	66
1.32900	66
1.33267	63
1.33633	61
1.34000	63
1.34367	66
1.34733	66
1.35100	64
1.35467	61
1.35833	60
1.36200	60
1.36567	60
1.36933	60
1.37300	61
1.37667	61
1.38033	61
1.38400	60
1.38767	60
1.39133	61
1.39500	61
1.39867	62
1.40233	64
1.40600	66
1.40967	67
1.41333	68
1.41700	68
1.42067	70
1.42433	71
1.42800	72
1.43167	70
1.43533	67
1.43900	65
1.44267	64
1.44633	63
1.45000	62
1.45367	63
1.45733	62
1.46100	63
1.46467	65
1.46833	67
1.47200	67
1.47567	66
1.47933	66
1.48300	67
1.48667	68
1.49033	67
1.49400	65
1.49767	63
1.50133	63
1.50500	62
1.50867	64
1.51233	66
1.51600	67
1.51967	71
1.52333	73
1.52700	73
1.53067	72
1.53433	71
1.53800	71
1.54167	69
1.54533	69
1.54900	69
1.55267	69
1.55633	70
1.56000	71
1.56367	70
1.56733	70
1.57100	72
1.57467	72
1.57833	72
1.58200	74
1.58567	73
1.58933	70
1.59300	69
1.59667	70
1.60033	71
1.60400	71
1.60767	72
1.61133	72
1.61500	71
1.61867	71
1.62233	71
1.62600	72
1.62967	71
1.63333	71
1.63700	73
1.64067	73
1.64433	74
1.64800	76
1.65167	78
1.65533	80
1.65900	81
1.66267	82
1.66633	83
1.67000	85
1.67367	87
1.67733	87
1.68100	88
1.68467	90
1.68833	90
1.69200	91
1.69567	92
1.69933	92
1.70300	93
1.70667	93
1.71033	92
1.71400	92
1.71767	95
1.72133	100
1.72500	102
1.72867	103
1.73233	103
1.73600	101
1.73967	100
1.74333	102
1.74700	104
1.75067	104
1.75433	105
1.75800	107
1.76167	109
1.76533	111
1.76900	112
1.77267	113
1.77633	114
1.78000	116
1.78367	117
1.78733	119
1.79100	119
1.79467	120
1.79833	122
1.80200	125
1.80567	127
1.80933	129
1.81300	128
1.81667	125
1.82033	124
1.82400	126
1.82767	128
1.83133	131
1.83500	133
1.83867	131
1.84233	130
1.84600	130
1.84967	132
1.85333	136
1.85700	136
1.86067	137
1.86433	138
1.86800	137
1.87167	136
1.87533	137
1.87900	138
1.88267	140
1.88633	141
1.89000	138
1.89367	137
1.89733	136
1.90100	135
1.90467	137
1.90833	138
1.91200	139
1.91567	139
1.91933	138
1.92300	139
1.92667	141
1.93033	142
1.93400	144
1.93767	146
1.94133	146
1.94500	145
1.94867	146
1.95233	147
1.95600	148
1.95967	148
1.96333	148
1.96700	147
1.97067	149
1.97433	150
1.97800	151
1.98167	153
1.98533	155
1.98900	157
1.99267	158
1.99633	159
2.00000	159
2.00367	160
2.00733	161
2.01100	164
2.01467	166
2.01833	168
2.02200	170
2.02567	172
2.02933	174
2.03300	175
2.03667	174
2.04033	175
2.04400	179
2.04767	182
2.05133	180
2.05500	178
2.05867	178
2.06233	179
2.06600	179
2.06967	180
2.07333	182
2.07700	182
2.08067	182
2.08433	183
2.08800	184
2.09167	188
2.09533	191
2.09900	193
2.10267	196
2.10633	199
2.11000	200
2.11367	201
2.11733	203
2.12100	205
2.12467	205
2.12833	206
2.13200	207
2.13567	208
2.13933	210
2.14300	212
2.14667	211
2.15033	212
2.15400	213
2.15767	214
2.16133	216
2.16500	217
2.16867	218
2.17233	219
2.17600	222
2.17967	224
2.18333	227
2.18700	230
2.19067	231
2.19433	232
2.19800	235
2.20167	238
2.20533	241
2.20900	240
2.21267	240
2.21633	242
2.22000	246
2.22367	248
2.22733	249
2.23100	248
2.23467	248
2.23833	249
2.24200	250
2.24567	250
2.24933	252
2.25300	256
2.25667	258
2.26033	258
2.26400	258
2.26767	259
2.27133	260
2.27500	262
2.27867	264
2.28233	264
2.28600	263
2.28967	262
2.29333	263
2.29700	266
2.30067	267
2.30433	268
2.30800	271
2.31167	273
2.31533	276
2.31900	278
2.32267	280
2.32633	282
2.33000	279
2.33367	277
2.33733	276
2.34100	277
2.34467	278
2.34833	277
2.35200	280
2.35567	284
2.35933	286
2.36300	288
2.36667	289
2.37033	291
2.37400	292
2.37767	294
2.38133	295
2.38500	294
2.38867	293
2.39233	293
2.39600	293
2.39967	292
2.40333	292
2.40700	292
2.41067	294
2.41433	295
2.41800	298
2.42167	302
2.42533	305
2.42900	305
2.43267	305
2.43633	304
2.44000	302
2.44367	304
2.44733	305
2.45100	301
2.45467	303
2.45833	318
2.46200	346
2.46567	388
2.46933	440
2.47300	495
2.47667	551
2.48033	604
2.48400	654
2.48767	699
2.49133	739
2.49500	774
2.49867	807
2.50233	835
2.50600	862
2.50967	887
2.51333	909
2.51700	928
2.52067	944
2.52433	958
2.52800	974
2.53167	987
2.53533	1000
2.53900	1010
2.54267	1018
2.54633	1024
2.55000	1029
2.55367	1035
2.55733	1041
2.56100	1049
2.56467	1057
2.56833	1061
2.57200	1064
2.57567	1065
2.57933	1066
2.58300	1064
2.58667	1061
2.59033	1058
2.59400	1054
2.59767	1051
2.60133	1046
2.60500	1037
2.60867	1018
2.61233	991
2.61600	956
2.61967	914
2.62333	872
2.62700	831
2.63067	791
2.63433	755
2.63800	724
2.64167	696
2.64533	676
2.64900	659
2.65267	650
2.65633	645
2.66000	643
2.66367	645
2.66733	650
2.67100	657
2.67467	663
2.67833	668
2.68200	672
2.68567	676
2.68933	679
2.69300	681
2.69667	686
2.70033	691
2.70400	697
2.70767	704
2.71133	712
2.71500	719
2.71867	723
2.72233	727
2.72600	729
2.72967	731
2.73333	733
2.73700	737
2.74067	740
2.74433	741
2.74800	743
2.75167	746
2.75533	749
2.75900	750
2.76267	751
2.76633	751
2.77000	752
2.77367	752
2.77733	752
2.78100	752
2.78467	752
2.78833	753
2.79200	752
2.79567	751
2.79933	750
2.80300	750
2.80667	752
2.81033	753
2.81400	754
2.81767	755
2.82133	756
2.82500	761
2.82867	773
2.83233	796
2.83600	844
2.83967	936
2.84333	1093
2.84700	1334
2.85067	1675
2.85433	2117
2.85800	2645
2.86167	3229
2.86533	3826
2.86900	4389
2.87267	4869
2.87633	5231
2.88000	5454
2.88367	5529
2.88733	5474
2.89100	5310
2.89467	5062
2.89833	4755
2.90200	4415
2.90567	4066
2.90933	3719
2.91300	3385
2.91667	3075
2.92033	2791
2.92400	2533
2.92767	2302
2.93133	2094
2.93500	1912
2.93867	1751
2.94233	1607
2.94600	1481
2.94967	1374
2.95333	1282
2.95700	1200
2.96067	1128
2.96433	1068
2.96800	1015
2.97167	971
2.97533	933
2.97900	898
2.98267	867
2.98633	840
2.99000	818
2.99367	798
2.99733	780
3.00100	763
3.00467	749
3.00833	737
3.01200	727
3.01567	718
3.01933	709
3.02300	699
3.02667	690
3.03033	682
3.03400	677
3.03767	672
3.04133	669
3.04500	666
3.04867	661
3.05233	656
3.05600	651
3.05967	647
3.06333	642
3.06700	636
3.07067	635
3.07433	631
3.07800	624
3.08167	618
3.08533	615
3.08900	613
3.09267	611
3.09633	607
3.10000	604
3.10367	600
3.10733	594
3.11100	587
3.11467	584
3.11833	583
3.12200	584
3.12567	584
3.12933	583
3.13300	582
3.13667	578
3.14033	573
3.14400	565
3.14767	559
3.15133	554
3.15500	550
3.15867	549
3.16233	547
3.16600	544
3.16967	541
3.17333	536
3.17700	533
3.18067	531
3.18433	529
3.18800	527
3.19167	525
3.19533	523
3.19900	522
3.20267	520
3.20633	516
3.21000	512
3.21367	508
3.21733	504
3.22100	502
3.22467	499
3.22833	495
3.23200	493
3.23567	490
3.23933	487
3.24300	486
3.24667	485
3.25033	485
3.25400	483
3.25767	480
3.26133	476
3.26500	470
3.26867	466
3.27233	464
3.27600	464
3.27967	463
3.28333	460
3.28700	455
3.29067	449
3.29433	444
3.29800	441
3.30167	436
3.30533	431
3.30900	428
3.31267	426
3.31633	423
3.32000	419
3.32367	416
3.32733	414
3.33100	411
3.33467	408
3.33833	404
3.34200	400
3.34567	394
3.34933	390
3.35300	387
3.35667	383
3.36033	380
3.36400	375
3.36767	371
3.37133	368
3.37500	366
3.37867	363
3.38233	359
3.38600	355
3.38967	352
3.39333	351
3.39700	350
3.40067	348
3.40433	346
3.40800	342
3.41167	339
3.41533	337
3.41900	336
3.42267	333
3.42633	330
3.43000	328
3.43367	325
3.43733	322
3.44100	319
3.44467	316
3.44833	313
3.45200	310
3.45567	307
3.45933	302
3.46300	300
3.46667	297
3.47033	295
3.47400	295
3.47767	292
3.48133	288
3.48500	282
3.48867	282
3.49233	284
3.49600	282
3.49967	276
3.50333	271
3.50700	267
3.51067	266
3.51433	266
3.51800	264
3.52167	264
3.52533	265
3.52900	264
3.53267	262
3.53633	256
3.54000	252
3.54367	249
3.54733	247
3.55100	246
3.55467	246
3.55833	247
3.56200	247
3.56567	245
3.56933	242
3.57300	238
3.57667	235
3.58033	233
3.58400	231
3.58767	229
3.59133	228
3.59500	227
3.59867	225
3.60233	222
3.60600	221
3.60967	219
3.61333	220
3.61700	220
3.62067	219
3.62433	217
3.62800	215
3.63167	213
3.63533	212
3.63900	210
3.64267	207
3.64633	206
3.65000	206
3.65367	206
3.65733	206
3.66100	205
3.66467	203
3.66833	202
3.67200	202
3.67567	200
3.67933	199
3.68300	200
3.68667	199
3.69033	198
3.69400	196
3.69767	195
3.70133	193
3.70500	191
3.70867	189
3.71233	187
3.71600	185
3.71967	185
3.72333	183
3.72700	181
3.73067	181
3.73433	180
3.73800	177
3.74167	176
3.74533	175
3.74900	175
3.75267	173
3.75633	171
3.76000	170
3.76367	170
3.76733	169
3.77100	167
3.77467	166
3.77833	163
3.78200	160
3.78567	158
3.78933	156
3.79300	155
3.79667	154
3.80033	153
3.80400	151
3.80767	148
3.81133	145
3.81500	142
3.81867	140
3.82233	138
3.82600	135
3.82967	133
3.83333	132
3.83700	130
3.84067	126
3.84433	124
3.84800	125
3.85167	122
3.85533	120
3.85900	119
3.86267	119
3.86633	120
3.87000	120
3.87367	118
3.87733	116
3.88100	113
3.88467	110
3.88833	109
3.89200	106
3.89567	103
3.89933	102
3.90300	100
3.90667	99
3.91033	98
3.91400	95
3.91767	94
3.92133	92
3.92500	89
3.92867	84
3.93233	79
3.93600	77
3.93967	75
3.94333	76
3.94700	74
3.95067	71
3.95433	67
3.95800	63
3.96167	59
3.96533	56
3.96900	52
3.97267	49
3.97633	46
3.98000	44
3.98367	43
3.98733	41
3.99100	39
3.99467	37
3.99833	37

[Status Trace (Column Oven Temperature)]
Interval(msec)	1000
# of Points	240
Start Time(min)	0.009
End Time(min)	3.993
Intensity Units	
Intensity Multiplier	1
R.Time (min)	Intensity
0.00927	35.02
0.02593	35.01
0.04260	35.00
0.05927	35.01
0.07593	35.01
0.09260	35.00
0.10927	35.01
0.12593	35.02
0.14260	35.02
0.15927	35.01
0.17593	35.00
0.19260	34.99
0.20927	34.98
0.22593	34.98
0.24260	35.00
0.25927	35.01
0.27593	35.02
0.29260	35.03
0.30927	35.04
0.32593	35.05
0.34260	35.05
0.35927	35.06
0.37593	35.07
0.39260	35.06
0.40927	35.05
0.42593	35.03
0.44260	35.02
0.45927	35.00
0.47593	34.98
0.49260	34.97
0.50927	34.97
0.52593	34.97
0.54260	34.98
0.55927	34.98
0.57593	34.99
0.59260	34.98
0.60927	34.98
0.62593	34.97
0.64260	34.97
0.65927	34.97
0.67593	34.96
0.69260	34.96
0.70927	34.95
0.72593	34.96
0.74260	34.96
0.75927	34.96
0.77593	34.96
0.79260	34.96
0.80927	34.95
0.82593	34.96
0.84260	34.96
0.85927	34.96
0.87593	34.97
0.89260	34.98
0.90927	35.01
0.92593	35.03
0.94260	35.04
0.95927	35.04
0.97593	35.03
0.99260	35.02
1.00927	35.01
1.02593	34.98
1.04260	34.98
1.05927	34.97
1.07593	34.97
1.09260	34.98
1.10927	34.99
1.12593	34.98
1.14260	34.98
1.15927	34.98
1.17593	34.97
1.19260	34.98
1.20927	34.99
1.22593	34.99
1.24260	34.99
1.25927	34.99
1.27593	34.98
1.29260	34.97
1.30927	34.98
1.32593	34.98
1.34260	34.99
1.35927	34.99
1.37593	34.99
1.39260	34.99
1.40927	34.99
1.42593	34.98
1.44260	34.98
1.45927	34.98
1.47593	34.98
1.49260	34.98
1.50927	34.97
1.52593	34.97
1.54260	34.98
1.55927	34.98
1.57593	34.99
1.59260	35.00
1.60927	35.05
1.62593	35.18
1.64260	35.37
1.65927	35.62
1.67593	35.98
1.69260	36.37
1.70927	36.74
1.72593	37.08
1.74260	37.40
1.75927	37.68
1.77593	37.98
1.79260	38.35
1.80927	38.68
1.82593	39.01
1.84260	39.35
1.85927	39.69
1.87593	40.02
1.89260	40.35
1.90927	40.67
1.92593	41.02
1.94260	41.33
1.95927	41.67
1.97593	41.99
1.99260	42.32
2.00927	42.64
2.02593	42.96
2.04260	43.31
2.05927	43.62
2.07593	43.94
2.09260	44.27
2.10927	44.59
2.12593	44.91
2.14260	45.26
2.15927	45.57
2.17593	45.89
2.19260	46.24
2.20927	46.56
2.22593	46.87
2.24260	47.22
2.25927	47.53
2.27593	47.86
2.29260	48.18
2.30927	48.52
2.32593	48.84
2.34260	49.15
2.35927	49.50
2.37593	49.75
2.39260	49.83
2.40927	49.81
2.42593	49.79
2.44260	49.80
2.45927	49.78
2.47593	49.80
2.49260	49.81
2.50927	49.83
2.52593	49.82
2.54260	49.83
2.55927	49.83
2.57593	49.83
2.59260	49.84
2.60927	49.84
2.62593	49.85
2.64260	49.86
2.65927	49.87
2.67593	49.86
2.69260	49.86
2.70927	49.86
2.72593	49.86
2.74260	49.88
2.75927	49.89
2.77593	49.89
2.79260	49.90
2.80927	49.92
2.82593	49.92
2.84260	49.94
2.85927	49.95
2.87593	49.98
2.89260	50.00
2.90927	50.02
2.92593	50.03
2.94260	50.04
2.95927	50.06
2.97593	50.07
2.99260	50.07
3.00927	50.08
3.02593	50.10
3.04260	50.11
3.05927	50.11
3.07593	50.10
3.09260	50.09
3.10927	50.09
3.12593	50.09
3.14260	50.09
3.15927	50.09
3.17593	50.08
3.19260	50.08
3.20927	50.08
3.22593	50.08
3.24260	50.08
3.25927	50.09
3.27593	50.09
3.29260	50.09
3.30927	50.08
3.32593	50.09
3.34260	50.09
3.35927	50.09
3.37593	50.09
3.39260	50.08
3.40927	50.09
3.42593	50.09
3.44260	50.10
3.45927	50.10
3.47593	50.10
3.49260	50.10
3.50927	50.09
3.52593	50.08
3.54260	50.08
3.55927	50.07
3.57593	50.06
3.59260	50.05
3.60927	50.05
3.62593	50.06
3.64260	50.06
3.65927	50.06
3.67593	50.06
3.69260	50.06
3.70927	50.06
3.72593	50.06
3.74260	50.06
3.75927	50.05
3.77593	50.05
3.79260	50.05
3.80927	50.05
3.82593	50.06
3.84260	50.05
3.85927	50.05
3.87593	50.06
3.89260	50.06
3.90927	50.06
3.92593	50.06
3.94260	50.06
3.95927	50.06
3.97593	50.05
3.99260	50.04

[Status Trace (Injection Unit Temperature)]
Interval(msec)	1000
# of Points	240
Start Time(min)	0.009
End Time(min)	3.993
Intensity Units	
Intensity Multiplier	1
R.Time (min)	Intensity
0.00927	99.98
0.02593	99.98
0.04260	99.98
0.05927	99.98
0.07593	99.98
0.09260	99.98
0.10927	99.98
0.12593	99.98
0.14260	99.98
0.15927	99.99
0.17593	99.98
0.19260	99.98
0.20927	99.98
0.22593	99.98
0.24260	99.98
0.25927	99.99
0.27593	99.98
0.29260	99.98
0.30927	99.98
0.32593	99.98
0.34260	99.99
0.35927	99.98
0.37593	99.98
0.39260	99.99
0.40927	99.98
0.42593	99.98
0.44260	99.99
0.45927	99.99
0.47593	99.98
0.49260	99.99
0.50927	99.99
0.52593	99.98
0.54260	99.98
0.55927	99.98
0.57593	99.99
0.59260	99.98
0.60927	99.98
0.62593	99.98
0.64260	99.98
0.65927	99.99
0.67593	99.99
0.69260	99.98
0.70927	99.98
0.72593	99.98
0.74260	99.98
0.75927	99.99
0.77593	99.98
0.79260	99.99
0.80927	99.99
0.82593	99.99
0.84260	99.98
0.85927	99.98
0.87593	99.99
0.89260	99.99
0.90927	99.98
0.92593	99.98
0.94260	99.98
0.95927	99.98
0.97593	99.98
0.99260	99.98
1.00927	99.98
1.02593	99.98
1.04260	99.99
1.05927	99.98
1.07593	99.98
1.09260	99.98
1.10927	99.98
1.12593	99.98
1.14260	99.99
1.15927	99.98
1.17593	99.99
1.19260	99.99
1.20927	99.98
1.22593	99.98
1.24260	99.98
1.25927	99.99
1.27593	99.99
1.29260	99.98
1.30927	99.99
1.32593	99.99
1.34260	99.99
1.35927	99.99
1.37593	99.99
1.39260	99.99
1.40927	99.99
1.42593	99.99
1.44260	99.98
1.45927	99.99
1.47593	99.98
1.49260	99.99
1.50927	99.99
1.52593	99.99
1.54260	99.98
1.55927	99.99
1.57593	99.98
1.59260	99.99
1.60927	99.98
1.62593	99.98
1.64260	99.99
1.65927	99.99
1.67593	99.99
1.69260	99.99
1.70927	99.99
1.72593	99.99
1.74260	99.99
1.75927	99.99
1.77593	99.99
1.79260	99.98
1.80927	99.98
1.82593	99.98
1.84260	99.98
1.85927	99.98
1.87593	99.98
1.89260	99.98
1.90927	99.98
1.92593	99.98
1.94260	99.98
1.95927	99.98
1.97593	99.98
1.99260	99.98
2.00927	99.98
2.02593	99.98
2.04260	99.98
2.05927	99.98
2.07593	99.98
2.09260	99.97
2.10927	99.98
2.12593	99.97
2.14260	99.97
2.15927	99.97
2.17593	99.97
2.19260	99.97
2.20927	99.97
2.22593	99.97
2.24260	99.97
2.25927	99.97
2.27593	99.97
2.29260	99.97
2.30927	99.97
2.32593	99.97
2.34260	99.97
2.35927	99.97
2.37593	99.97
2.39260	99.97
2.40927	99.97
2.42593	99.97
2.44260	99.97
2.45927	99.97
2.47593	99.97
2.49260	99.97
2.50927	99.97
2.52593	99.97
2.54260	99.97
2.55927	99.97
2.57593	99.97
2.59260	99.97
2.60927	99.97
2.62593	99.97
2.64260	99.97
2.65927	99.98
2.67593	99.98
2.69260	99.98
2.70927	99.98
2.72593	99.98
2.74260	99.98
2.75927	99.99
2.77593	99.99
2.79260	99.99
2.80927	99.99
2.82593	99.99
2.84260	100.00
2.85927	99.99
2.87593	100.00
2.89260	100.00
2.90927	100.00
2.92593	100.01
2.94260	100.01
2.95927	100.01
2.97593	100.01
2.99260	100.01
3.00927	100.02
3.02593	100.02
3.04260	100.02
3.05927	100.02
3.07593	100.02
3.09260	100.02
3.10927	100.02
3.12593	100.03
3.14260	100.03
3.15927	100.03
3.17593	100.03
3.19260	100.03
3.20927	100.03
3.22593	100.03
3.24260	100.03
3.25927	100.04
3.27593	100.04
3.29260	100.04
3.30927	100.04
3.32593	100.04
3.34260	100.04
3.35927	100.04
3.37593	100.04
3.39260	100.05
3.40927	100.04
3.42593	100.04
3.44260	100.04
3.45927	100.05
3.47593	100.04
3.49260	100.04
3.50927	100.04
3.52593	100.05
3.54260	100.05
3.55927	100.05
3.57593	100.04
3.59260	100.05
3.60927	100.05
3.62593	100.05
3.64260	100.05
3.65927	100.05
3.67593	100.05
3.69260	100.05
3.70927	100.05
3.72593	100.05
3.74260	100.06
3.75927	100.05
3.77593	100.06
3.79260	100.06
3.80927	100.05
3.82593	100.06
3.84260	100.05
3.85927	100.05
3.87593	100.06
3.89260	100.06
3.90927	100.06
3.92593	100.06
3.94260	100.06
3.95927	100.06
3.97593	100.05
3.99260	100.06

[Status Trace (Carrier Gas Pressure)]
Interval(msec)	1000
# of Points	240
Start Time(min)	0.009
End Time(min)	3.993
Intensity Units	
Intensity Multiplier	1
R.Time (min)	Intensity
0.00927	58.00
0.02593	55.24
0.04260	57.25
0.05927	59.26
0.07593	59.41
0.09260	58.05
0.10927	57.98
0.12593	58.01
0.14260	58.01
0.15927	58.01
0.17593	58.00
0.19260	58.00
0.20927	58.00
0.22593	58.00
0.24260	58.00
0.25927	58.00
0.27593	58.00
0.29260	58.00
0.30927	58.00
0.32593	58.00
0.34260	58.00
0.35927	58.00
0.37593	58.00
0.39260	58.00
0.40927	58.00
0.42593	58.00
0.44260	58.00
0.45927	58.00
0.47593	58.00
0.49260	58.00
0.50927	58.00
0.52593	58.00
0.54260	58.00
0.55927	58.00
0.57593	58.00
0.59260	58.00
0.60927	58.00
0.62593	58.00
0.64260	58.00
0.65927	58.00
0.67593	58.00
0.69260	58.00
0.70927	58.00
0.72593	58.00
0.74260	58.00
0.75927	58.00
0.77593	58.00
0.79260	58.00
0.80927	58.00
0.82593	58.00
0.84260	58.00
0.85927	58.00
0.87593	58.00
0.89260	58.00
0.90927	58.00
0.92593	58.00
0.94260	58.00
0.95927	58.00
0.97593	58.00
0.99260	58.00
1.00927	58.00
1.02593	58.00
1.04260	58.00
1.05927	58.00
1.07593	58.00
1.09260	58.00
1.10927	58.00
1.12593	58.00
1.14260	58.00
1.15927	58.00
1.17593	58.00
1.19260	58.00
1.20927	58.00
1.22593	58.00
1.24260	58.00
1.25927	58.00
1.27593	58.00
1.29260	58.00
1.30927	58.00
1.32593	58.00
1.34260	58.00
1.35927	58.00
1.37593	58.00
1.39260	58.00
1.40927	58.00
1.42593	58.00
1.44260	58.00
1.45927	58.00
1.47593	58.00
1.49260	58.00
1.50927	58.00
1.52593	58.00
1.54260	58.00
1.55927	58.00
1.57593	58.00
1.59260	58.00
1.60927	58.00
1.62593	58.00
1.64260	58.00
1.65927	58.00
1.67593	58.01
1.69260	58.00
1.70927	58.00
1.72593	58.00
1.74260	58.00
1.75927	58.00
1.77593	58.00
1.79260	58.00
1.80927	58.00
1.82593	58.00
1.84260	58.00
1.85927	58.00
1.87593	58.00
1.89260	58.00
1.90927	58.00
1.92593	58.00
1.94260	58.00
1.95927	58.00
1.97593	58.00
1.99260	58.00
2.00927	58.00
2.02593	58.00
2.04260	58.00
2.05927	58.00
2.07593	58.00
2.09260	58.00
2.10927	58.00
2.12593	58.00
2.14260	58.00
2.15927	58.00
2.17593	58.00
2.19260	58.00
2.20927	58.00
2.22593	58.00
2.24260	58.00
2.25927	58.00
2.27593	58.00
2.29260	58.00
2.30927	58.00
2.32593	58.00
2.34260	58.00
2.35927	58.00
2.37593	58.00
2.39260	57.99
2.40927	57.99
2.42593	58.00
2.44260	58.00
2.45927	58.00
2.47593	58.00
2.49260	58.00
2.50927	58.00
2.52593	57.98
2.54260	58.00
2.55927	58.00
2.57593	58.00
2.59260	58.00
2.60927	58.00
2.62593	58.00
2.64260	58.00
2.65927	58.00
2.67593	58.00
2.69260	58.00
2.70927	58.00
2.72593	58.00
2.74260	58.00
2.75927	58.00
2.77593	58.00
2.79260	58.00
2.80927	58.00
2.82593	58.00
2.84260	58.00
2.85927	58.00
2.87593	58.00
2.89260	58.00
2.90927	58.00
2.92593	58.00
2.94260	58.00
2.95927	58.00
2.97593	58.00
2.99260	58.00
3.00927	58.00
3.02593	58.00
3.04260	58.00
3.05927	58.00
3.07593	58.00
3.09260	58.00
3.10927	58.00
3.12593	58.00
3.14260	58.00
3.15927	58.00
3.17593	58.00
3.19260	58.00
3.20927	58.00
3.22593	58.00
3.24260	58.00
3.25927	58.00
3.27593	58.00
3.29260	58.00
3.30927	58.00
3.32593	58.00
3.34260	58.00
3.35927	58.00
3.37593	58.00
3.39260	58.00
3.40927	58.00
3.42593	58.00
3.44260	58.00
3.45927	58.00
3.47593	58.00
3.49260	58.00
3.50927	58.00
3.52593	58.00
3.54260	58.00
3.55927	58.00
3.57593	58.00
3.59260	58.00
3.60927	58.00
3.62593	58.00
3.64260	58.00
3.65927	58.00
3.67593	58.00
3.69260	58.00
3.70927	58.00
3.72593	58.00
3.74260	58.00
3.75927	58.00
3.77593	58.00
3.79260	58.00
3.80927	58.00
3.82593	58.00
3.84260	58.00
3.85927	58.00
3.87593	58.00
3.89260	58.00
3.90927	58.00
3.92593	58.00
3.94260	58.00
3.95927	58.00
3.97593	58.00
3.99260	58.00

[Status Trace (Carrier Gas Flow)]
Interval(msec)	1000
# of Points	240
Start Time(min)	0.009
End Time(min)	3.993
Intensity Units	
Intensity Multiplier	1
R.Time (min)	Intensity
0.00927	34.52
0.02593	34.53
0.04260	34.54
0.05927	34.55
0.07593	34.50
0.09260	34.52
0.10927	34.52
0.12593	34.52
0.14260	34.52
0.15927	34.52
0.17593	34.52
0.19260	34.52
0.20927	34.52
0.22593	34.52
0.24260	34.53
0.25927	34.52
0.27593	34.52
0.29260	34.52
0.30927	34.52
0.32593	34.52
0.34260	34.52
0.35927	34.52
0.37593	34.52
0.39260	34.52
0.40927	34.52
0.42593	34.52
0.44260	34.52
0.45927	34.52
0.47593	34.52
0.49260	34.52
0.50927	34.52
0.52593	34.52
0.54260	34.52
0.55927	34.52
0.57593	34.52
0.59260	34.52
0.60927	34.52
0.62593	34.52
0.64260	34.52
0.65927	34.52
0.67593	34.52
0.69260	34.52
0.70927	34.52
0.72593	34.52
0.74260	34.52
0.75927	34.52
0.77593	34.52
0.79260	34.52
0.80927	34.52
0.82593	34.52
0.84260	34.52
0.85927	34.52
0.87593	34.52
0.89260	34.52
0.90927	34.52
0.92593	34.52
0.94260	34.52
0.95927	34.52
0.97593	34.52
0.99260	34.52
1.00927	34.52
1.02593	34.52
1.04260	34.52
1.05927	34.52
1.07593	34.52
1.09260	34.52
1.10927	34.52
1.12593	34.52
1.14260	34.52
1.15927	34.52
1.17593	34.52
1.19260	34.52
1.20927	34.52
1.22593	34.52
1.24260	34.52
1.25927	34.52
1.27593	34.52
1.29260	34.52
1.30927	34.52
1.32593	34.52
1.34260	34.52
1.35927	34.52
1.37593	34.52
1.39260	34.52
1.40927	34.52
1.42593	34.52
1.44260	34.52
1.45927	34.52
1.47593	34.52
1.49260	34.52
1.50927	34.52
1.52593	34.52
1.54260	34.52
1.55927	34.52
1.57593	34.52
1.59260	34.52
1.60927	34.52
1.62593	34.52
1.64260	34.52
1.65927	34.52
1.67593	34.52
1.69260	34.52
1.70927	34.52
1.72593	34.52
1.74260	34.52
1.75927	34.52
1.77593	34.52
1.79260	34.52
1.80927	34.52
1.82593	34.52
1.84260	34.52
1.85927	34.52
1.87593	34.52
1.89260	34.52
1.90927	34.52
1.92593	34.52
1.94260	34.52
1.95927	34.52
1.97593	34.52
1.99260	34.52
2.00927	34.52
2.02593	34.52
2.04260	34.52
2.05927	34.52
2.07593	34.52
2.09260	34.52
2.10927	34.52
2.12593	34.52
2.14260	34.52
2.15927	34.52
2.17593	34.52
2.19260	34.52
2.20927	34.52
2.22593	34.52
2.24260	34.52
2.25927	34.52
2.27593	34.52
2.29260	34.52
2.30927	34.52
2.32593	34.52
2.34260	34.52
2.35927	34.52
2.37593	34.52
2.39260	34.52
2.40927	34.52
2.42593	34.52
2.44260	34.52
2.45927	34.52
2.47593	34.52
2.49260	34.52
2.50927	34.44
2.52593	34.52
2.54260	34.52
2.55927	34.52
2.57593	34.52
2.59260	34.52
2.60927	34.52
2.62593	34.52
2.64260	34.51
2.65927	34.52
2.67593	34.52
2.69260	34.53
2.70927	34.52
2.72593	34.51
2.74260	34.51
2.75927	34.52
2.77593	34.53
2.79260	34.52
2.80927	34.51
2.82593	34.52
2.84260	34.52
2.85927	34.52
2.87593	34.52
2.89260	34.52
2.90927	34.52
2.92593	34.52
2.94260	34.52
2.95927	34.52
2.97593	34.52
2.99260	34.52
3.00927	34.52
3.02593	34.52
3.04260	34.52
3.05927	34.52
3.07593	34.52
3.09260	34.52
3.10927	34.52
3.12593	34.52
3.14260	34.52
3.15927	34.52
3.17593	34.52
3.19260	34.52
3.20927	34.52
3.22593	34.52
3.24260	34.52
3.25927	34.52
3.27593	34.52
3.29260	34.52
3.30927	34.52
3.32593	34.52
3.34260	34.52
3.35927	34.52
3.37593	34.52
3.39260	34.52
3.40927	34.52
3.42593	34.52
3.44260	34.52
3.45927	34.52
3.47593	34.52
3.49260	34.52
3.50927	34.52
3.52593	34.52
3.54260	34.52
3.55927	34.52
3.57593	34.52
3.59260	34.52
3.60927	34.52
3.62593	34.52
3.64260	34.52
3.65927	34.52
3.67593	34.52
3.69260	34.52
3.70927	34.52
3.72593	34.52
3.74260	34.52
3.75927	34.52
3.77593	34.52
3.79260	34.52
3.80927	34.52
3.82593	34.52
3.84260	34.52
3.85927	34.52
3.87593	34.52
3.89260	34.52
3.90927	34.52
3.92593	34.52
3.94260	34.52
3.95927	34.52
3.97593	34.52
3.99260	34.52

[Status Trace (Column Flow)]
Interval(msec)	1000
# of Points	240
Start Time(min)	0.009
End Time(min)	3.993
Intensity Units	
Intensity Multiplier	1
R.Time (min)	Intensity
0.00927	5.50
0.02593	5.18
0.04260	5.41
0.05927	5.64
0.07593	5.66
0.09260	5.50
0.10927	5.49
0.12593	5.50
0.14260	5.50
0.15927	5.50
0.17593	5.50
0.19260	5.50
0.20927	5.50
0.22593	5.50
0.24260	5.50
0.25927	5.50
0.27593	5.50
0.29260	5.50
0.30927	5.50
0.32593	5.50
0.34260	5.50
0.35927	5.50
0.37593	5.49
0.39260	5.50
0.40927	5.50
0.42593	5.50
0.44260	5.50
0.45927	5.50
0.47593	5.50
0.49260	5.50
0.50927	5.50
0.52593	5.50
0.54260	5.50
0.55927	5.50
0.57593	5.50
0.59260	5.50
0.60927	5.50
0.62593	5.50
0.64260	5.50
0.65927	5.50
0.67593	5.50
0.69260	5.50
0.70927	5.50
0.72593	5.50
0.74260	5.50
0.75927	5.50
0.77593	5.50
0.79260	5.50
0.80927	5.50
0.82593	5.50
0.84260	5.50
0.85927	5.50
0.87593	5.50
0.89260	5.50
0.90927	5.50
0.92593	5.50
0.94260	5.50
0.95927	5.50
0.97593	5.50
0.99260	5.50
1.00927	5.50
1.02593	5.50
1.04260	5.50
1.05927	5.50
1.07593	5.50
1.09260	5.50
1.10927	5.50
1.12593	5.50
1.14260	5.50
1.15927	5.50
1.17593	5.50
1.19260	5.50
1.20927	5.50
1.22593	5.50
1.24260	5.50
1.25927	5.50
1.27593	5.50
1.29260	5.50
1.30927	5.50
1.32593	5.50
1.34260	5.50
1.35927	5.50
1.37593	5.50
1.39260	5.50
1.40927	5.50
1.42593	5.50
1.44260	5.50
1.45927	5.50
1.47593	5.50
1.49260	5.50
1.50927	5.50
1.52593	5.50
1.54260	5.50
1.55927	5.50
1.57593	5.50
1.59260	5.50
1.60927	5.50
1.62593	5.49
1.64260	5.49
1.65927	5.48
1.67593	5.47
1.69260	5.46
1.70927	5.44
1.72593	5.43
1.74260	5.42
1.75927	5.41
1.77593	5.41
1.79260	5.39
1.80927	5.38
1.82593	5.37
1.84260	5.36
1.85927	5.35
1.87593	5.34
1.89260	5.33
1.90927	5.32
1.92593	5.31
1.94260	5.30
1.95927	5.29
1.97593	5.28
1.99260	5.27
2.00927	5.27
2.02593	5.26
2.04260	5.25
2.05927	5.24
2.07593	5.23
2.09260	5.22
2.10927	5.21
2.12593	5.20
2.14260	5.19
2.15927	5.18
2.17593	5.17
2.19260	5.16
2.20927	5.15
2.22593	5.14
2.24260	5.13
2.25927	5.12
2.27593	5.12
2.29260	5.11
2.30927	5.10
2.32593	5.09
2.34260	5.08
2.35927	5.07
2.37593	5.06
2.39260	5.06
2.40927	5.06
2.42593	5.06
2.44260	5.06
2.45927	5.06
2.47593	5.06
2.49260	5.06
2.50927	5.06
2.52593	5.06
2.54260	5.06
2.55927	5.06
2.57593	5.06
2.59260	5.06
2.60927	5.06
2.62593	5.06
2.64260	5.06
2.65927	5.06
2.67593	5.06
2.69260	5.06
2.70927	5.06
2.72593	5.06
2.74260	5.06
2.75927	5.06
2.77593	5.06
2.79260	5.06
2.80927	5.06
2.82593	5.06
2.84260	5.06
2.85927	5.06
2.87593	5.06
2.89260	5.06
2.90927	5.06
2.92593	5.06
2.94260	5.05
2.95927	5.05
2.97593	5.05
2.99260	5.05
3.00927	5.05
3.02593	5.05
3.04260	5.05
3.05927	5.05
3.07593	5.05
3.09260	5.05
3.10927	5.05
3.12593	5.05
3.14260	5.05
3.15927	5.05
3.17593	5.05
3.19260	5.05
3.20927	5.05
3.22593	5.05
3.24260	5.05
3.25927	5.05
3.27593	5.05
3.29260	5.05
3.30927	5.05
3.32593	5.05
3.34260	5.05
3.35927	5.05
3.37593	5.05
3.39260	5.05
3.40927	5.05
3.42593	5.05
3.44260	5.05
3.45927	5.05
3.47593	5.05
3.49260	5.05
3.50927	5.05
3.52593	5.05
3.54260	5.05
3.55927	5.05
3.57593	5.05
3.59260	5.05
3.60927	5.05
3.62593	5.05
3.64260	5.05
3.65927	5.05
3.67593	5.05
3.69260	5.05
3.70927	5.05
3.72593	5.05
3.74260	5.05
3.75927	5.05
3.77593	5.05
3.79260	5.05
3.80927	5.05
3.82593	5.05
3.84260	5.05
3.85927	5.05
3.87593	5.05
3.89260	5.05
3.90927	5.05
3.92593	5.05
3.94260	5.05
3.95927	5.05
3.97593	5.05
3.99260	5.05

[Status Trace (Linear Velocity)]
Interval(msec)	1000
# of Points	240
Start Time(min)	0.009
End Time(min)	3.993
Intensity Units	
Intensity Multiplier	1
R.Time (min)	Intensity
0.00927	39.01
0.02593	37.20
0.04260	38.52
0.05927	39.84
0.07593	39.94
0.09260	39.04
0.10927	39.00
0.12593	39.02
0.14260	39.02
0.15927	39.01
0.17593	39.01
0.19260	39.01
0.20927	39.01
0.22593	39.01
0.24260	39.01
0.25927	39.01
0.27593	39.01
0.29260	39.01
0.30927	39.01
0.32593	39.01
0.34260	39.01
0.35927	39.00
0.37593	39.00
0.39260	39.00
0.40927	39.01
0.42593	39.01
0.44260	39.01
0.45927	39.01
0.47593	39.01
0.49260	39.01
0.50927	39.01
0.52593	39.01
0.54260	39.01
0.55927	39.01
0.57593	39.01
0.59260	39.01
0.60927	39.01
0.62593	39.01
0.64260	39.01
0.65927	39.01
0.67593	39.02
0.69260	39.02
0.70927	39.02
0.72593	39.01
0.74260	39.01
0.75927	39.01
0.77593	39.02
0.79260	39.02
0.80927	39.02
0.82593	39.02
0.84260	39.02
0.85927	39.01
0.87593	39.01
0.89260	39.01
0.90927	39.01
0.92593	39.01
0.94260	39.01
0.95927	39.01
0.97593	39.01
0.99260	39.01
1.00927	39.01
1.02593	39.01
1.04260	39.01
1.05927	39.01
1.07593	39.01
1.09260	39.01
1.10927	39.01
1.12593	39.01
1.14260	39.01
1.15927	39.01
1.17593	39.01
1.19260	39.01
1.20927	39.01
1.22593	39.01
1.24260	39.01
1.25927	39.01
1.27593	39.01
1.29260	39.01
1.30927	39.01
1.32593	39.01
1.34260	39.01
1.35927	39.01
1.37593	39.01
1.39260	39.01
1.40927	39.01
1.42593	39.01
1.44260	39.01
1.45927	39.01
1.47593	39.01
1.49260	39.01
1.50927	39.01
1.52593	39.01
1.54260	39.01
1.55927	39.01
1.57593	39.01
1.59260	39.01
1.60927	39.01
1.62593	39.00
1.64260	38.98
1.65927	38.95
1.67593	38.92
1.69260	38.88
1.70927	38.85
1.72593	38.81
1.74260	38.78
1.75927	38.75
1.77593	38.73
1.79260	38.69
1.80927	38.66
1.82593	38.63
1.84260	38.60
1.85927	38.57
1.87593	38.53
1.89260	38.50
1.90927	38.47
1.92593	38.44
1.94260	38.41
1.95927	38.38
1.97593	38.35
1.99260	38.32
2.00927	38.29
2.02593	38.26
2.04260	38.23
2.05927	38.20
2.07593	38.17
2.09260	38.14
2.10927	38.11
2.12593	38.08
2.14260	38.05
2.15927	38.02
2.17593	37.99
2.19260	37.96
2.20927	37.93
2.22593	37.91
2.24260	37.88
2.25927	37.85
2.27593	37.82
2.29260	37.79
2.30927	37.76
2.32593	37.73
2.34260	37.70
2.35927	37.67
2.37593	37.65
2.39260	37.64
2.40927	37.64
2.42593	37.64
2.44260	37.64
2.45927	37.64
2.47593	37.64
2.49260	37.64
2.50927	37.64
2.52593	37.63
2.54260	37.64
2.55927	37.64
2.57593	37.64
2.59260	37.64
2.60927	37.64
2.62593	37.64
2.64260	37.64
2.65927	37.64
2.67593	37.64
2.69260	37.64
2.70927	37.64
2.72593	37.64
2.74260	37.64
2.75927	37.64
2.77593	37.64
2.79260	37.64
2.80927	37.63
2.82593	37.63
2.84260	37.63
2.85927	37.63
2.87593	37.63
2.89260	37.63
2.90927	37.63
2.92593	37.62
2.94260	37.62
2.95927	37.62
2.97593	37.62
2.99260	37.62
3.00927	37.62
3.02593	37.62
3.04260	37.62
3.05927	37.62
3.07593	37.62
3.09260	37.62
3.10927	37.62
3.12593	37.62
3.14260	37.62
3.15927	37.62
3.17593	37.62
3.19260	37.62
3.20927	37.62
3.22593	37.62
3.24260	37.62
3.25927	37.62
3.27593	37.62
3.29260	37.62
3.30927	37.62
3.32593	37.62
3.34260	37.62
3.35927	37.62
3.37593	37.62
3.39260	37.62
3.40927	37.62
3.42593	37.62
3.44260	37.62
3.45927	37.62
3.47593	37.62
3.49260	37.62
3.50927	37.62
3.52593	37.62
3.54260	37.62
3.55927	37.62
3.57593	37.62
3.59260	37.62
3.60927	37.62
3.62593	37.62
3.64260	37.62
3.65927	37.62
3.67593	37.62
3.69260	37.62
3.70927	37.62
3.72593	37.62
3.74260	37.62
3.75927	37.62
3.77593	37.62
3.79260	37.62
3.80927	37.62
3.82593	37.62
3.84260	37.62
3.85927	37.62
3.87593	37.62
3.89260	37.62
3.90927	37.62
3.92593	37.62
3.94260	37.62
3.95927	37.62
3.97593	37.62
3.99260	37.62

