[Header]
Application Name	LabSolutions
Version	5.110
Data File Name	C:\Users\User\Desktop\GC Analyses\Jack\UIC Prairie Sampling\7.9.22\220909_001.gcd
Output Date	9/28/2022
Output Time	11:29:49 AM

[File Information]
Type	Data File
Generated	9/9/2022 11:50:16 AM
Generated by	System Administrator
Modified	9/9/2022 11:55:18 AM
Modified by	System Administrator

[Sample Information]
Operator Name	System Administrator
Acquired	9/9/2022 11:51:16 AM
Sample Type	1:Standard
Level	1
Sample Name	220909_Run
Sample ID	220909_Run
ISTD Amount1	1
ISTD Amount2	1
ISTD Amount3	1
ISTD Amount4	1
ISTD Amount5	1
ISTD Amount6	1
ISTD Amount7	1
ISTD Amount8	1
ISTD Amount9	1
ISTD Amount10	1
ISTD Amount11	1
ISTD Amount12	1
ISTD Amount13	1
ISTD Amount14	1
ISTD Amount15	1
ISTD Amount16	1
ISTD Amount17	1
ISTD Amount18	1
ISTD Amount19	1
ISTD Amount20	1
ISTD Amount21	1
ISTD Amount22	1
ISTD Amount23	1
ISTD Amount24	1
ISTD Amount25	1
ISTD Amount26	1
ISTD Amount27	1
ISTD Amount28	1
ISTD Amount29	1
ISTD Amount30	1
ISTD Amount31	1
ISTD Amount32	1
Sample Amount	1
Dilution Factor	1
Vial#	1
Injection Volume	1
Injection Count	1
Bar Code	

[Original Files]
Data File	C:\Users\User\Desktop\GC Analyses\Jack\220909\220909_001.gcd
Method File	C:\LabSolutions\Data\GHG_4min_2022\ghg3_togas_w_acet_4 min_new_int.gcm
Batch File	
Report Format File	c:\LabSolutions\System\DEFAULT.lsr

[File Description]


[Configuration]
Instrument Name	C0B7VH3-Instrument1
Instrument #	1
Line #	1
# of Detectors	3
Detector ID	DET#1	DET#2	DET#3
Detector Name	FID	PTCD	ECD
# of Channels	1	1	1

[Peak Table(Ch1)]
# of Peaks	3
Peak#	R.Time	I.Time	F.Time	Area	Height	A/H	Conc.	Mark	ID#	Name	k'	Plate #	Plate Ht.	Tailing	Resolution	Sep.Factor	Area Ratio	Height Ratio	Conc. %	Norm Conc.
1	1.468	1.424	1.534	11613	5120	2.268	100.000	   	1	CO	0.000	7980	18.798	1.432	0.000	0.000	0	0	16.667	16.667
2	1.567	1.534	1.633	20474	10477	1.954	100.000	 V 	2	CH4	0.067	11531	13.008	1.206	1.595	0.000	0	0	16.667	16.667
3	1.996	1.949	2.337	2149719	1051697	2.044	400.000	   	3	CO2	0.360	17811	8.422	1.174	7.258	5.333	0	0	66.667	66.667

[Peak Table(Ch2)]
# of Peaks	0

[Peak Table(Ch3)]
# of Peaks	2
Peak#	R.Time	I.Time	F.Time	Area	Height	A/H	Conc.	Mark	ID#	Name	k'	Plate #	Plate Ht.	Tailing	Resolution	Sep.Factor	Area Ratio	Height Ratio	Conc. %	Norm Conc.
1	2.458	0.948	2.638	28399	777	36.531	0.000	   			0.000	99	1515.855	0.567	0.000	0.000	0	0	0.000	0.000
2	2.873	2.649	3.287	72423	17791	4.071	1.000	   	1	N2O	0.169	12161	12.335	1.644	0.758	0.000	0	0	100.000	100.000

[Compound Results(Ch1)]
# of IDs	6
ID#	Name	R.Time	Area	Height	Conc.	Curve	3rd	2nd	1st	Constant	Area Ratio	Height Ratio	Conc. %	Norm Conc.
1	CO	1.468	11613	5120	100.000	Linear	0.000000e+00	0.000000e+00	1.161317e+002	0.000000e+00	0	0	16.667	16.667
2	CH4	1.567	20474	10477	100.000	Linear	0.000000e+00	0.000000e+00	2.047423e+002	0.000000e+00	0	0	16.667	16.667
3	CO2	1.996	2149719	1051697	400.000	Linear	0.000000e+00	0.000000e+00	5.374297e+003	0.000000e+00	0	0	66.667	66.667
4	Ethylene	0.000	0	0	0.000	Linear	0.000000e+00	0.000000e+00	0.000000e+00	0.000000e+00	0	0	0.000	0.000
5	Acetylene	0.000	0	0	0.000	Linear	0.000000e+00	0.000000e+00	0.000000e+00	0.000000e+00	0	0	0.000	0.000
6	Ethane	0.000	0	0	0.000	Linear	0.000000e+00	0.000000e+00	0.000000e+00	0.000000e+00	0	0	0.000	0.000

[Compound Results(Ch2)]
# of IDs	5
ID#	Name	R.Time	Area	Height	Conc.	Curve	3rd	2nd	1st	Constant	Area Ratio	Height Ratio	Conc. %	Norm Conc.
1	Hydrogen	0.000	0	0	0.000	Linear	0.000000e+00	0.000000e+00	0.000000e+00	0.000000e+00	0	0	0.000	0.000
2	Oxygen	0.000	0	0	0.000	Linear	0.000000e+00	0.000000e+00	0.000000e+00	0.000000e+00	0	0	0.000	0.000
3	Nitrogen	0.000	0	0	0.000	Linear	0.000000e+00	0.000000e+00	0.000000e+00	0.000000e+00	0	0	0.000	0.000
4	Methane	0.000	0	0	0.000	Linear	0.000000e+00	0.000000e+00	0.000000e+00	0.000000e+00	0	0	0.000	0.000
5	Carbon Monoxide	0.000	0	0	0.000	Linear	0.000000e+00	0.000000e+00	0.000000e+00	0.000000e+00	0	0	0.000	0.000

[Compound Results(Ch3)]
# of IDs	2
ID#	Name	R.Time	Area	Height	Conc.	Curve	3rd	2nd	1st	Constant	Area Ratio	Height Ratio	Conc. %	Norm Conc.
1	N2O	2.873	72423	17791	1.000	Linear	0.000000e+00	0.000000e+00	7.242279e+004	0.000000e+00	0	0	100.000	100.000
2	SF6	0.000	0	0	0.000	Linear	0.000000e+00	0.000000e+00	0.000000e+00	0.000000e+00	0	0	0.000	0.000

[Group Results(Ch1)]
# of Groups	0

[Group Results(Ch2)]
# of Groups	0

[Group Results(Ch3)]
# of Groups	0

[Chromatogram (Ch1)]
Interval(msec)	220
# of Points	1091
Start Time(min)	0.002
End Time(min)	3.998
R.Time (min)	Intensity
0.00167	-0
0.00533	-9
0.00900	-14
0.01267	-15
0.01633	-12
0.02000	-11
0.02367	-11
0.02733	-19
0.03100	-17
0.03467	-14
0.03833	-13
0.04200	-11
0.04567	-9
0.04933	-7
0.05300	-5
0.05667	-1
0.06033	1
0.06400	-1
0.06767	-5
0.07133	-11
0.07500	-17
0.07867	-19
0.08233	-20
0.08600	-19
0.08967	-14
0.09333	-9
0.09700	-7
0.10067	-9
0.10433	-12
0.10800	-14
0.11167	-12
0.11533	-10
0.11900	-12
0.12267	-16
0.12633	-19
0.13000	-19
0.13367	-15
0.13733	-8
0.14100	-2
0.14467	2
0.14833	5
0.15200	6
0.15567	4
0.15933	-3
0.16300	-11
0.16667	-17
0.17033	-18
0.17400	-23
0.17767	-28
0.18133	-27
0.18500	-19
0.18867	-6
0.19233	1
0.19600	6
0.19967	-3
0.20333	-6
0.20700	0
0.21067	-1
0.21433	-7
0.21800	-12
0.22167	-11
0.22533	-6
0.22900	-0
0.23267	2
0.23633	2
0.24000	-4
0.24367	-11
0.24733	-16
0.25100	-18
0.25467	-16
0.25833	-11
0.26200	-3
0.26567	2
0.26933	1
0.27300	3
0.27667	7
0.28033	9
0.28400	6
0.28767	1
0.29133	-4
0.29500	-10
0.29867	-14
0.30233	-15
0.30600	-14
0.30967	-12
0.31333	-14
0.31700	-18
0.32067	-20
0.32433	-17
0.32800	-13
0.33167	-10
0.33533	-9
0.33900	-12
0.34267	-21
0.34633	-37
0.35000	-46
0.35367	-46
0.35733	-38
0.36100	-34
0.36467	-24
0.36833	-19
0.37200	-7
0.37567	3
0.37933	5
0.38300	-3
0.38667	3
0.39033	6
0.39400	-0
0.39767	-6
0.40133	-11
0.40500	-16
0.40867	-22
0.41233	-23
0.41600	-21
0.41967	-21
0.42333	-21
0.42700	-24
0.43067	-20
0.43433	-18
0.43800	-21
0.44167	-20
0.44533	-17
0.44900	-12
0.45267	-5
0.45633	-2
0.46000	0
0.46367	2
0.46733	1
0.47100	-2
0.47467	-6
0.47833	-13
0.48200	-18
0.48567	-19
0.48933	-18
0.49300	-18
0.49667	-18
0.50033	-18
0.50400	-19
0.50767	-27
0.51133	-20
0.51500	-5
0.51867	9
0.52233	16
0.52600	17
0.52967	9
0.53333	-1
0.53700	-6
0.54067	-9
0.54433	-13
0.54800	-19
0.55167	-25
0.55533	-29
0.55900	-29
0.56267	-28
0.56633	-26
0.57000	-24
0.57367	-22
0.57733	-18
0.58100	-8
0.58467	4
0.58833	10
0.59200	11
0.59567	6
0.59933	-4
0.60300	-17
0.60667	-25
0.61033	-27
0.61400	-25
0.61767	-26
0.62133	-24
0.62500	-21
0.62867	-18
0.63233	-14
0.63600	-18
0.63967	-22
0.64333	-20
0.64700	-17
0.65067	-16
0.65433	-19
0.65800	-16
0.66167	-8
0.66533	-4
0.66900	-14
0.67267	-15
0.67633	-6
0.68000	1
0.68367	7
0.68733	5
0.69100	-5
0.69467	-12
0.69833	-15
0.70200	-16
0.70567	-18
0.70933	-22
0.71300	-29
0.71667	-31
0.72033	-36
0.72400	-26
0.72767	-15
0.73133	-11
0.73500	-15
0.73867	-13
0.74233	-9
0.74600	-7
0.74967	-10
0.75333	-15
0.75700	-20
0.76067	-16
0.76433	-10
0.76800	-10
0.77167	-13
0.77533	-17
0.77900	-22
0.78267	-28
0.78633	-31
0.79000	-33
0.79367	-34
0.79733	-34
0.80100	-33
0.80467	-31
0.80833	-29
0.81200	-30
0.81567	-33
0.81933	-35
0.82300	-35
0.82667	-44
0.83033	-35
0.83400	-28
0.83767	-24
0.84133	-22
0.84500	-18
0.84867	-14
0.85233	-14
0.85600	-14
0.85967	-17
0.86333	-19
0.86700	-20
0.87067	-20
0.87433	-22
0.87800	-21
0.88167	-19
0.88533	-15
0.88900	-13
0.89267	-11
0.89633	-13
0.90000	-15
0.90367	-17
0.90733	-15
0.91100	-10
0.91467	-3
0.91833	-1
0.92200	-1
0.92567	-3
0.92933	-5
0.93300	-12
0.93667	-24
0.94033	-30
0.94400	-30
0.94767	-27
0.95133	-24
0.95500	-23
0.95867	-20
0.96233	-17
0.96600	-17
0.96967	-18
0.97333	-17
0.97700	-14
0.98067	-12
0.98433	-10
0.98800	-10
0.99167	-10
0.99533	-9
0.99900	-10
1.00267	-14
1.00633	-18
1.01000	-20
1.01367	-20
1.01733	-19
1.02100	-14
1.02467	-11
1.02833	-9
1.03200	-7
1.03567	-7
1.03933	-8
1.04300	-11
1.04667	-12
1.05033	-10
1.05400	-9
1.05767	-10
1.06133	-16
1.06500	-24
1.06867	-31
1.07233	-35
1.07600	-34
1.07967	-28
1.08333	-21
1.08700	-18
1.09067	-17
1.09433	-12
1.09800	-4
1.10167	-1
1.10533	-5
1.10900	-12
1.11267	-21
1.11633	-29
1.12000	-37
1.12367	-44
1.12733	-45
1.13100	-44
1.13467	-43
1.13833	-43
1.14200	-41
1.14567	-39
1.14933	-39
1.15300	-39
1.15667	-34
1.16033	-32
1.16400	-32
1.16767	-33
1.17133	-31
1.17500	-24
1.17867	-19
1.18233	-17
1.18600	-18
1.18967	-24
1.19333	-32
1.19700	-38
1.20067	-38
1.20433	-36
1.20800	-32
1.21167	-26
1.21533	-23
1.21900	-22
1.22267	-28
1.22633	-35
1.23000	-39
1.23367	-41
1.23733	-42
1.24100	-41
1.24467	-42
1.24833	-43
1.25200	-44
1.25567	-43
1.25933	-43
1.26300	-41
1.26667	-38
1.27033	-31
1.27400	-24
1.27767	-16
1.28133	-5
1.28500	5
1.28867	6
1.29233	-7
1.29600	-18
1.29967	-29
1.30333	-40
1.30700	-48
1.31067	-52
1.31433	-51
1.31800	-51
1.32167	-52
1.32533	-49
1.32900	-39
1.33267	-26
1.33633	-15
1.34000	-5
1.34367	1
1.34733	4
1.35100	4
1.35467	5
1.35833	5
1.36200	6
1.36567	9
1.36933	16
1.37300	26
1.37667	38
1.38033	46
1.38400	51
1.38767	56
1.39133	58
1.39500	57
1.39867	52
1.40233	46
1.40600	43
1.40967	39
1.41333	38
1.41700	40
1.42067	44
1.42433	48
1.42800	50
1.43167	51
1.43533	59
1.43900	127
1.44267	420
1.44633	1072
1.45000	1976
1.45367	2957
1.45733	3858
1.46100	4571
1.46467	5026
1.46833	5165
1.47200	4974
1.47567	4522
1.47933	3931
1.48300	3302
1.48667	2703
1.49033	2169
1.49400	1714
1.49767	1339
1.50133	1040
1.50500	803
1.50867	616
1.51233	472
1.51600	365
1.51967	282
1.52333	216
1.52700	164
1.53067	121
1.53433	103
1.53800	194
1.54167	619
1.54533	1662
1.54900	3364
1.55267	5408
1.55633	7366
1.56000	8962
1.56367	10057
1.56733	10517
1.57100	10209
1.57467	9142
1.57833	7564
1.58200	5840
1.58567	4267
1.58933	2993
1.59300	2036
1.59667	1354
1.60033	888
1.60400	576
1.60767	373
1.61133	243
1.61500	159
1.61867	106
1.62233	74
1.62600	56
1.62967	45
1.63333	38
1.63700	34
1.64067	31
1.64433	25
1.64800	16
1.65167	7
1.65533	3
1.65900	3
1.66267	7
1.66633	13
1.67000	14
1.67367	12
1.67733	10
1.68100	10
1.68467	10
1.68833	4
1.69200	-4
1.69567	-7
1.69933	-9
1.70300	-10
1.70667	-5
1.71033	3
1.71400	11
1.71767	17
1.72133	18
1.72500	18
1.72867	17
1.73233	13
1.73600	8
1.73967	4
1.74333	3
1.74700	2
1.75067	4
1.75433	9
1.75800	16
1.76167	23
1.76533	29
1.76900	29
1.77267	24
1.77633	18
1.78000	12
1.78367	6
1.78733	3
1.79100	3
1.79467	5
1.79833	12
1.80200	24
1.80567	35
1.80933	38
1.81300	34
1.81667	26
1.82033	17
1.82400	12
1.82767	11
1.83133	14
1.83500	20
1.83867	24
1.84233	26
1.84600	28
1.84967	29
1.85333	30
1.85700	29
1.86067	24
1.86433	19
1.86800	15
1.87167	11
1.87533	9
1.87900	10
1.88267	13
1.88633	17
1.89000	19
1.89367	20
1.89733	19
1.90100	21
1.90467	23
1.90833	24
1.91200	22
1.91567	27
1.91933	33
1.92300	35
1.92667	37
1.93033	38
1.93400	37
1.93767	35
1.94133	32
1.94500	29
1.94867	33
1.95233	94
1.95600	521
1.95967	2779
1.96333	11864
1.96700	39754
1.97067	105706
1.97433	226589
1.97800	401034
1.98167	603896
1.98533	798279
1.98900	950725
1.99267	1038730
1.99633	1051760
2.00000	991693
2.00367	873313
2.00733	721173
2.01100	562036
2.01467	417029
2.01833	297621
2.02200	206406
2.02567	140436
2.02933	94544
2.03300	63459
2.03667	42758
2.04033	29103
2.04400	20127
2.04767	14219
2.05133	10306
2.05500	7678
2.05867	5885
2.06233	4640
2.06600	3759
2.06967	3123
2.07333	2652
2.07700	2294
2.08067	2017
2.08433	1798
2.08800	1619
2.09167	1469
2.09533	1346
2.09900	1247
2.10267	1161
2.10633	1088
2.11000	1029
2.11367	979
2.11733	934
2.12100	892
2.12467	853
2.12833	816
2.13200	780
2.13567	749
2.13933	725
2.14300	703
2.14667	681
2.15033	659
2.15400	634
2.15767	612
2.16133	594
2.16500	579
2.16867	564
2.17233	546
2.17600	531
2.17967	515
2.18333	501
2.18700	491
2.19067	486
2.19433	481
2.19800	476
2.20167	470
2.20533	462
2.20900	455
2.21267	449
2.21633	442
2.22000	434
2.22367	426
2.22733	421
2.23100	416
2.23467	408
2.23833	394
2.24200	381
2.24567	372
2.24933	368
2.25300	365
2.25667	360
2.26033	355
2.26400	352
2.26767	349
2.27133	348
2.27500	348
2.27867	346
2.28233	343
2.28600	336
2.28967	329
2.29333	320
2.29700	313
2.30067	310
2.30433	309
2.30800	307
2.31167	306
2.31533	305
2.31900	305
2.32267	303
2.32633	301
2.33000	295
2.33367	288
2.33733	281
2.34100	276
2.34467	272
2.34833	269
2.35200	270
2.35567	273
2.35933	275
2.36300	274
2.36667	271
2.37033	270
2.37400	272
2.37767	277
2.38133	280
2.38500	282
2.38867	277
2.39233	277
2.39600	268
2.39967	254
2.40333	239
2.40700	229
2.41067	223
2.41433	226
2.41800	232
2.42167	237
2.42533	239
2.42900	237
2.43267	234
2.43633	231
2.44000	229
2.44367	229
2.44733	231
2.45100	231
2.45467	231
2.45833	231
2.46200	231
2.46567	231
2.46933	231
2.47300	228
2.47667	221
2.48033	212
2.48400	203
2.48767	193
2.49133	182
2.49500	178
2.49867	180
2.50233	183
2.50600	186
2.50967	189
2.51333	190
2.51700	189
2.52067	190
2.52433	192
2.52800	195
2.53167	201
2.53533	204
2.53900	206
2.54267	206
2.54633	204
2.55000	200
2.55367	196
2.55733	192
2.56100	189
2.56467	187
2.56833	184
2.57200	180
2.57567	177
2.57933	173
2.58300	169
2.58667	165
2.59033	164
2.59400	167
2.59767	170
2.60133	169
2.60500	165
2.60867	164
2.61233	166
2.61600	168
2.61967	169
2.62333	167
2.62700	165
2.63067	163
2.63433	164
2.63800	166
2.64167	168
2.64533	168
2.64900	167
2.65267	166
2.65633	165
2.66000	165
2.66367	162
2.66733	159
2.67100	158
2.67467	157
2.67833	157
2.68200	155
2.68567	158
2.68933	156
2.69300	148
2.69667	140
2.70033	134
2.70400	132
2.70767	133
2.71133	135
2.71500	136
2.71867	136
2.72233	135
2.72600	135
2.72967	137
2.73333	140
2.73700	143
2.74067	141
2.74433	134
2.74800	128
2.75167	126
2.75533	130
2.75900	130
2.76267	125
2.76633	124
2.77000	130
2.77367	134
2.77733	138
2.78100	142
2.78467	140
2.78833	133
2.79200	131
2.79567	132
2.79933	135
2.80300	134
2.80667	131
2.81033	128
2.81400	129
2.81767	129
2.82133	129
2.82500	130
2.82867	133
2.83233	138
2.83600	145
2.83967	151
2.84333	156
2.84700	158
2.85067	157
2.85433	153
2.85800	148
2.86167	144
2.86533	143
2.86900	140
2.87267	133
2.87633	126
2.88000	125
2.88367	134
2.88733	144
2.89100	146
2.89467	139
2.89833	130
2.90200	121
2.90567	119
2.90933	120
2.91300	128
2.91667	139
2.92033	145
2.92400	145
2.92767	138
2.93133	131
2.93500	128
2.93867	127
2.94233	130
2.94600	134
2.94967	135
2.95333	134
2.95700	132
2.96067	133
2.96433	136
2.96800	136
2.97167	130
2.97533	120
2.97900	113
2.98267	107
2.98633	104
2.99000	106
2.99367	107
2.99733	110
3.00100	118
3.00467	126
3.00833	132
3.01200	133
3.01567	132
3.01933	128
3.02300	122
3.02667	115
3.03033	112
3.03400	119
3.03767	131
3.04133	141
3.04500	147
3.04867	150
3.05233	150
3.05600	148
3.05967	145
3.06333	141
3.06700	138
3.07067	132
3.07433	126
3.07800	122
3.08167	120
3.08533	122
3.08900	124
3.09267	125
3.09633	122
3.10000	120
3.10367	119
3.10733	117
3.11100	116
3.11467	114
3.11833	118
3.12200	123
3.12567	130
3.12933	138
3.13300	147
3.13667	154
3.14033	156
3.14400	151
3.14767	142
3.15133	134
3.15500	129
3.15867	125
3.16233	125
3.16600	125
3.16967	127
3.17333	128
3.17700	130
3.18067	129
3.18433	124
3.18800	120
3.19167	121
3.19533	127
3.19900	136
3.20267	141
3.20633	143
3.21000	139
3.21367	129
3.21733	120
3.22100	112
3.22467	108
3.22833	106
3.23200	105
3.23567	106
3.23933	106
3.24300	105
3.24667	105
3.25033	106
3.25400	107
3.25767	106
3.26133	105
3.26500	105
3.26867	108
3.27233	115
3.27600	122
3.27967	134
3.28333	146
3.28700	151
3.29067	151
3.29433	146
3.29800	140
3.30167	137
3.30533	134
3.30900	130
3.31267	125
3.31633	119
3.32000	117
3.32367	120
3.32733	126
3.33100	131
3.33467	134
3.33833	136
3.34200	135
3.34567	135
3.34933	138
3.35300	138
3.35667	137
3.36033	135
3.36400	136
3.36767	136
3.37133	136
3.37500	135
3.37867	133
3.38233	126
3.38600	117
3.38967	110
3.39333	106
3.39700	103
3.40067	99
3.40433	99
3.40800	101
3.41167	103
3.41533	105
3.41900	111
3.42267	118
3.42633	121
3.43000	120
3.43367	117
3.43733	115
3.44100	111
3.44467	109
3.44833	113
3.45200	120
3.45567	125
3.45933	122
3.46300	119
3.46667	115
3.47033	114
3.47400	116
3.47767	121
3.48133	124
3.48500	125
3.48867	123
3.49233	114
3.49600	106
3.49967	101
3.50333	102
3.50700	106
3.51067	110
3.51433	109
3.51800	105
3.52167	101
3.52533	100
3.52900	102
3.53267	107
3.53633	107
3.54000	108
3.54367	108
3.54733	105
3.55100	104
3.55467	104
3.55833	104
3.56200	105
3.56567	106
3.56933	103
3.57300	99
3.57667	96
3.58033	95
3.58400	97
3.58767	101
3.59133	108
3.59500	115
3.59867	121
3.60233	125
3.60600	123
3.60967	117
3.61333	109
3.61700	102
3.62067	99
3.62433	100
3.62800	104
3.63167	108
3.63533	114
3.63900	117
3.64267	116
3.64633	112
3.65000	109
3.65367	106
3.65733	100
3.66100	98
3.66467	99
3.66833	98
3.67200	94
3.67567	92
3.67933	96
3.68300	106
3.68667	113
3.69033	114
3.69400	113
3.69767	116
3.70133	118
3.70500	118
3.70867	119
3.71233	121
3.71600	122
3.71967	123
3.72333	124
3.72700	124
3.73067	121
3.73433	116
3.73800	114
3.74167	116
3.74533	117
3.74900	114
3.75267	109
3.75633	102
3.76000	92
3.76367	83
3.76733	78
3.77100	77
3.77467	79
3.77833	82
3.78200	80
3.78567	80
3.78933	84
3.79300	91
3.79667	100
3.80033	108
3.80400	113
3.80767	120
3.81133	124
3.81500	120
3.81867	113
3.82233	107
3.82600	104
3.82967	101
3.83333	98
3.83700	95
3.84067	94
3.84433	94
3.84800	93
3.85167	94
3.85533	96
3.85900	97
3.86267	97
3.86633	98
3.87000	99
3.87367	104
3.87733	109
3.88100	110
3.88467	108
3.88833	107
3.89200	105
3.89567	105
3.89933	110
3.90300	112
3.90667	111
3.91033	110
3.91400	110
3.91767	111
3.92133	114
3.92500	119
3.92867	127
3.93233	133
3.93600	135
3.93967	133
3.94333	130
3.94700	124
3.95067	118
3.95433	113
3.95800	108
3.96167	105
3.96533	101
3.96900	98
3.97267	100
3.97633	103
3.98000	104
3.98367	105
3.98733	109
3.99100	112
3.99467	116
3.99833	119

[Chromatogram (Ch2)]
Interval(msec)	220
# of Points	1091
Start Time(min)	0.002
End Time(min)	3.998
R.Time (min)	Intensity
0.00167	0
0.00533	0
0.00900	1
0.01267	1
0.01633	2
0.02000	2
0.02367	2
0.02733	2
0.03100	2
0.03467	2
0.03833	2
0.04200	1
0.04567	1
0.04933	1
0.05300	1
0.05667	1
0.06033	1
0.06400	2
0.06767	2
0.07133	2
0.07500	3
0.07867	3
0.08233	4
0.08600	5
0.08967	5
0.09333	5
0.09700	5
0.10067	5
0.10433	5
0.10800	5
0.11167	4
0.11533	4
0.11900	4
0.12267	3
0.12633	3
0.13000	3
0.13367	3
0.13733	3
0.14100	2
0.14467	2
0.14833	2
0.15200	3
0.15567	3
0.15933	3
0.16300	3
0.16667	3
0.17033	3
0.17400	3
0.17767	3
0.18133	3
0.18500	3
0.18867	3
0.19233	3
0.19600	3
0.19967	3
0.20333	3
0.20700	3
0.21067	3
0.21433	3
0.21800	4
0.22167	4
0.22533	5
0.22900	5
0.23267	6
0.23633	6
0.24000	6
0.24367	6
0.24733	7
0.25100	7
0.25467	6
0.25833	6
0.26200	6
0.26567	6
0.26933	6
0.27300	6
0.27667	6
0.28033	6
0.28400	6
0.28767	6
0.29133	6
0.29500	6
0.29867	6
0.30233	6
0.30600	6
0.30967	5
0.31333	5
0.31700	5
0.32067	4
0.32433	4
0.32800	4
0.33167	4
0.33533	4
0.33900	4
0.34267	4
0.34633	4
0.35000	4
0.35367	4
0.35733	4
0.36100	5
0.36467	5
0.36833	5
0.37200	5
0.37567	5
0.37933	5
0.38300	5
0.38667	5
0.39033	5
0.39400	5
0.39767	5
0.40133	5
0.40500	4
0.40867	4
0.41233	4
0.41600	4
0.41967	4
0.42333	5
0.42700	5
0.43067	5
0.43433	5
0.43800	5
0.44167	4
0.44533	4
0.44900	3
0.45267	3
0.45633	3
0.46000	2
0.46367	2
0.46733	1
0.47100	1
0.47467	0
0.47833	-0
0.48200	-1
0.48567	-1
0.48933	-1
0.49300	-1
0.49667	-2
0.50033	-2
0.50400	-2
0.50767	-2
0.51133	-2
0.51500	-2
0.51867	-2
0.52233	-1
0.52600	-1
0.52967	-0
0.53333	0
0.53700	0
0.54067	0
0.54433	1
0.54800	1
0.55167	1
0.55533	1
0.55900	2
0.56267	2
0.56633	2
0.57000	1
0.57367	1
0.57733	1
0.58100	2
0.58467	2
0.58833	2
0.59200	2
0.59567	2
0.59933	2
0.60300	2
0.60667	2
0.61033	2
0.61400	2
0.61767	2
0.62133	2
0.62500	2
0.62867	2
0.63233	1
0.63600	2
0.63967	2
0.64333	2
0.64700	2
0.65067	2
0.65433	2
0.65800	2
0.66167	2
0.66533	2
0.66900	1
0.67267	1
0.67633	1
0.68000	1
0.68367	1
0.68733	1
0.69100	1
0.69467	1
0.69833	1
0.70200	2
0.70567	2
0.70933	3
0.71300	3
0.71667	3
0.72033	4
0.72400	4
0.72767	4
0.73133	4
0.73500	4
0.73867	3
0.74233	3
0.74600	3
0.74967	3
0.75333	3
0.75700	3
0.76067	2
0.76433	2
0.76800	2
0.77167	2
0.77533	2
0.77900	2
0.78267	2
0.78633	2
0.79000	2
0.79367	2
0.79733	2
0.80100	2
0.80467	2
0.80833	2
0.81200	3
0.81567	3
0.81933	3
0.82300	4
0.82667	4
0.83033	4
0.83400	4
0.83767	5
0.84133	5
0.84500	5
0.84867	5
0.85233	5
0.85600	6
0.85967	6
0.86333	7
0.86700	7
0.87067	8
0.87433	8
0.87800	8
0.88167	8
0.88533	9
0.88900	9
0.89267	9
0.89633	8
0.90000	8
0.90367	8
0.90733	8
0.91100	7
0.91467	6
0.91833	6
0.92200	5
0.92567	5
0.92933	5
0.93300	5
0.93667	5
0.94033	4
0.94400	4
0.94767	4
0.95133	4
0.95500	3
0.95867	3
0.96233	3
0.96600	3
0.96967	2
0.97333	2
0.97700	2
0.98067	2
0.98433	1
0.98800	1
0.99167	1
0.99533	0
0.99900	0
1.00267	-0
1.00633	-1
1.01000	-1
1.01367	-1
1.01733	-1
1.02100	-1
1.02467	-1
1.02833	-1
1.03200	-1
1.03567	-0
1.03933	0
1.04300	0
1.04667	1
1.05033	1
1.05400	2
1.05767	2
1.06133	2
1.06500	2
1.06867	2
1.07233	2
1.07600	2
1.07967	2
1.08333	3
1.08700	3
1.09067	3
1.09433	3
1.09800	4
1.10167	4
1.10533	4
1.10900	4
1.11267	5
1.11633	5
1.12000	5
1.12367	5
1.12733	5
1.13100	5
1.13467	5
1.13833	4
1.14200	4
1.14567	4
1.14933	4
1.15300	3
1.15667	3
1.16033	3
1.16400	3
1.16767	2
1.17133	2
1.17500	2
1.17867	2
1.18233	1
1.18600	1
1.18967	1
1.19333	1
1.19700	1
1.20067	2
1.20433	2
1.20800	2
1.21167	2
1.21533	2
1.21900	2
1.22267	2
1.22633	2
1.23000	3
1.23367	3
1.23733	3
1.24100	4
1.24467	4
1.24833	4
1.25200	4
1.25567	4
1.25933	4
1.26300	4
1.26667	4
1.27033	4
1.27400	4
1.27767	4
1.28133	3
1.28500	3
1.28867	3
1.29233	3
1.29600	3
1.29967	3
1.30333	3
1.30700	3
1.31067	3
1.31433	3
1.31800	3
1.32167	3
1.32533	3
1.32900	3
1.33267	3
1.33633	3
1.34000	3
1.34367	2
1.34733	2
1.35100	3
1.35467	3
1.35833	3
1.36200	3
1.36567	3
1.36933	3
1.37300	3
1.37667	3
1.38033	3
1.38400	2
1.38767	2
1.39133	2
1.39500	2
1.39867	2
1.40233	2
1.40600	2
1.40967	1
1.41333	1
1.41700	1
1.42067	2
1.42433	2
1.42800	2
1.43167	1
1.43533	1
1.43900	1
1.44267	1
1.44633	1
1.45000	1
1.45367	1
1.45733	1
1.46100	1
1.46467	2
1.46833	2
1.47200	2
1.47567	2
1.47933	2
1.48300	2
1.48667	2
1.49033	2
1.49400	2
1.49767	2
1.50133	2
1.50500	2
1.50867	2
1.51233	2
1.51600	1
1.51967	1
1.52333	1
1.52700	0
1.53067	0
1.53433	1
1.53800	1
1.54167	1
1.54533	2
1.54900	2
1.55267	2
1.55633	3
1.56000	3
1.56367	3
1.56733	3
1.57100	3
1.57467	3
1.57833	3
1.58200	3
1.58567	2
1.58933	2
1.59300	1
1.59667	1
1.60033	0
1.60400	-1
1.60767	-2
1.61133	-4
1.61500	-6
1.61867	-8
1.62233	-10
1.62600	-13
1.62967	-16
1.63333	-19
1.63700	-22
1.64067	-25
1.64433	-29
1.64800	-32
1.65167	-36
1.65533	-39
1.65900	-43
1.66267	-46
1.66633	-51
1.67000	-55
1.67367	-60
1.67733	-66
1.68100	-71
1.68467	-76
1.68833	-81
1.69200	-86
1.69567	-90
1.69933	-93
1.70300	-97
1.70667	-99
1.71033	-102
1.71400	-104
1.71767	-105
1.72133	-107
1.72500	-108
1.72867	-109
1.73233	-109
1.73600	-110
1.73967	-110
1.74333	-110
1.74700	-110
1.75067	-109
1.75433	-109
1.75800	-108
1.76167	-108
1.76533	-108
1.76900	-109
1.77267	-110
1.77633	-110
1.78000	-111
1.78367	-112
1.78733	-113
1.79100	-113
1.79467	-114
1.79833	-114
1.80200	-114
1.80567	-114
1.80933	-115
1.81300	-115
1.81667	-116
1.82033	-116
1.82400	-116
1.82767	-117
1.83133	-117
1.83500	-117
1.83867	-117
1.84233	-117
1.84600	-117
1.84967	-117
1.85333	-117
1.85700	-117
1.86067	-116
1.86433	-116
1.86800	-115
1.87167	-115
1.87533	-115
1.87900	-114
1.88267	-114
1.88633	-113
1.89000	-113
1.89367	-113
1.89733	-112
1.90100	-112
1.90467	-112
1.90833	-113
1.91200	-113
1.91567	-113
1.91933	-114
1.92300	-114
1.92667	-115
1.93033	-115
1.93400	-116
1.93767	-116
1.94133	-115
1.94500	-115
1.94867	-114
1.95233	-113
1.95600	-112
1.95967	-112
1.96333	-111
1.96700	-111
1.97067	-110
1.97433	-110
1.97800	-110
1.98167	-110
1.98533	-110
1.98900	-110
1.99267	-110
1.99633	-111
2.00000	-110
2.00367	-110
2.00733	-110
2.01100	-109
2.01467	-109
2.01833	-108
2.02200	-107
2.02567	-106
2.02933	-106
2.03300	-105
2.03667	-104
2.04033	-104
2.04400	-103
2.04767	-103
2.05133	-103
2.05500	-102
2.05867	-102
2.06233	-101
2.06600	-101
2.06967	-100
2.07333	-100
2.07700	-100
2.08067	-100
2.08433	-100
2.08800	-100
2.09167	-100
2.09533	-100
2.09900	-100
2.10267	-99
2.10633	-99
2.11000	-98
2.11367	-98
2.11733	-98
2.12100	-98
2.12467	-98
2.12833	-98
2.13200	-98
2.13567	-98
2.13933	-98
2.14300	-97
2.14667	-97
2.15033	-96
2.15400	-96
2.15767	-95
2.16133	-94
2.16500	-94
2.16867	-94
2.17233	-93
2.17600	-93
2.17967	-93
2.18333	-93
2.18700	-93
2.19067	-93
2.19433	-93
2.19800	-93
2.20167	-92
2.20533	-91
2.20900	-90
2.21267	-90
2.21633	-89
2.22000	-89
2.22367	-89
2.22733	-89
2.23100	-90
2.23467	-90
2.23833	-91
2.24200	-91
2.24567	-90
2.24933	-90
2.25300	-89
2.25667	-88
2.26033	-88
2.26400	-87
2.26767	-86
2.27133	-86
2.27500	-86
2.27867	-85
2.28233	-85
2.28600	-84
2.28967	-84
2.29333	-84
2.29700	-83
2.30067	-83
2.30433	-83
2.30800	-82
2.31167	-82
2.31533	-81
2.31900	-81
2.32267	-81
2.32633	-81
2.33000	-81
2.33367	-81
2.33733	-81
2.34100	-81
2.34467	-81
2.34833	-81
2.35200	-81
2.35567	-80
2.35933	-80
2.36300	-79
2.36667	-78
2.37033	-77
2.37400	-75
2.37767	-72
2.38133	-69
2.38500	-66
2.38867	-62
2.39233	-57
2.39600	-52
2.39967	-47
2.40333	-42
2.40700	-37
2.41067	-33
2.41433	-29
2.41800	-25
2.42167	-22
2.42533	-19
2.42900	-16
2.43267	-13
2.43633	-10
2.44000	-8
2.44367	-5
2.44733	-3
2.45100	-2
2.45467	-1
2.45833	1
2.46200	2
2.46567	3
2.46933	4
2.47300	6
2.47667	7
2.48033	8
2.48400	9
2.48767	11
2.49133	11
2.49500	12
2.49867	13
2.50233	14
2.50600	15
2.50967	15
2.51333	16
2.51700	17
2.52067	17
2.52433	18
2.52800	18
2.53167	19
2.53533	19
2.53900	19
2.54267	20
2.54633	21
2.55000	21
2.55367	22
2.55733	22
2.56100	23
2.56467	23
2.56833	23
2.57200	23
2.57567	23
2.57933	23
2.58300	23
2.58667	23
2.59033	23
2.59400	24
2.59767	24
2.60133	25
2.60500	25
2.60867	25
2.61233	25
2.61600	25
2.61967	25
2.62333	25
2.62700	25
2.63067	25
2.63433	26
2.63800	26
2.64167	27
2.64533	27
2.64900	27
2.65267	27
2.65633	28
2.66000	28
2.66367	28
2.66733	28
2.67100	28
2.67467	28
2.67833	29
2.68200	29
2.68567	29
2.68933	29
2.69300	29
2.69667	29
2.70033	29
2.70400	29
2.70767	30
2.71133	30
2.71500	30
2.71867	30
2.72233	30
2.72600	30
2.72967	30
2.73333	29
2.73700	29
2.74067	29
2.74433	29
2.74800	30
2.75167	30
2.75533	30
2.75900	30
2.76267	31
2.76633	31
2.77000	31
2.77367	31
2.77733	32
2.78100	32
2.78467	32
2.78833	32
2.79200	32
2.79567	32
2.79933	32
2.80300	32
2.80667	32
2.81033	32
2.81400	32
2.81767	32
2.82133	32
2.82500	32
2.82867	32
2.83233	32
2.83600	32
2.83967	30
2.84333	27
2.84700	22
2.85067	14
2.85433	3
2.85800	-12
2.86167	-33
2.86533	-58
2.86900	-88
2.87267	-124
2.87633	-165
2.88000	-211
2.88367	-263
2.88733	-318
2.89100	-379
2.89467	-443
2.89833	-510
2.90200	-581
2.90567	-655
2.90933	-731
2.91300	-809
2.91667	-891
2.92033	-974
2.92400	-1059
2.92767	-1145
2.93133	-1234
2.93500	-1323
2.93867	-1411
2.94233	-1484
2.94600	-1532
2.94967	-1545
2.95333	-1522
2.95700	-1466
2.96067	-1385
2.96433	-1287
2.96800	-1178
2.97167	-1066
2.97533	-954
2.97900	-846
2.98267	-745
2.98633	-652
2.99000	-567
2.99367	-491
2.99733	-423
3.00100	-363
3.00467	-311
3.00833	-265
3.01200	-225
3.01567	-191
3.01933	-161
3.02300	-136
3.02667	-114
3.03033	-95
3.03400	-79
3.03767	-65
3.04133	-53
3.04500	-43
3.04867	-34
3.05233	-27
3.05600	-20
3.05967	-15
3.06333	-10
3.06700	-6
3.07067	-2
3.07433	1
3.07800	3
3.08167	6
3.08533	7
3.08900	9
3.09267	10
3.09633	11
3.10000	13
3.10367	14
3.10733	14
3.11100	15
3.11467	16
3.11833	17
3.12200	17
3.12567	18
3.12933	18
3.13300	19
3.13667	19
3.14033	20
3.14400	20
3.14767	21
3.15133	21
3.15500	21
3.15867	22
3.16233	22
3.16600	23
3.16967	24
3.17333	24
3.17700	25
3.18067	25
3.18433	26
3.18800	26
3.19167	26
3.19533	27
3.19900	27
3.20267	27
3.20633	28
3.21000	28
3.21367	28
3.21733	28
3.22100	28
3.22467	28
3.22833	28
3.23200	28
3.23567	28
3.23933	28
3.24300	29
3.24667	29
3.25033	29
3.25400	30
3.25767	31
3.26133	31
3.26500	31
3.26867	32
3.27233	32
3.27600	32
3.27967	32
3.28333	33
3.28700	33
3.29067	33
3.29433	33
3.29800	33
3.30167	33
3.30533	33
3.30900	33
3.31267	33
3.31633	33
3.32000	33
3.32367	33
3.32733	33
3.33100	33
3.33467	33
3.33833	33
3.34200	33
3.34567	33
3.34933	32
3.35300	32
3.35667	32
3.36033	32
3.36400	32
3.36767	32
3.37133	32
3.37500	32
3.37867	32
3.38233	32
3.38600	31
3.38967	31
3.39333	31
3.39700	32
3.40067	32
3.40433	32
3.40800	33
3.41167	33
3.41533	33
3.41900	33
3.42267	34
3.42633	34
3.43000	34
3.43367	34
3.43733	34
3.44100	35
3.44467	35
3.44833	35
3.45200	36
3.45567	36
3.45933	36
3.46300	36
3.46667	36
3.47033	36
3.47400	36
3.47767	36
3.48133	36
3.48500	36
3.48867	36
3.49233	36
3.49600	35
3.49967	35
3.50333	35
3.50700	35
3.51067	35
3.51433	35
3.51800	35
3.52167	35
3.52533	35
3.52900	35
3.53267	36
3.53633	36
3.54000	36
3.54367	35
3.54733	35
3.55100	35
3.55467	35
3.55833	35
3.56200	35
3.56567	35
3.56933	35
3.57300	35
3.57667	35
3.58033	35
3.58400	34
3.58767	34
3.59133	34
3.59500	34
3.59867	34
3.60233	34
3.60600	34
3.60967	34
3.61333	34
3.61700	34
3.62067	34
3.62433	34
3.62800	34
3.63167	34
3.63533	35
3.63900	35
3.64267	35
3.64633	35
3.65000	35
3.65367	35
3.65733	35
3.66100	35
3.66467	35
3.66833	34
3.67200	34
3.67567	34
3.67933	34
3.68300	34
3.68667	33
3.69033	33
3.69400	33
3.69767	33
3.70133	32
3.70500	32
3.70867	32
3.71233	32
3.71600	32
3.71967	32
3.72333	32
3.72700	32
3.73067	32
3.73433	33
3.73800	33
3.74167	34
3.74533	34
3.74900	34
3.75267	34
3.75633	35
3.76000	35
3.76367	35
3.76733	35
3.77100	36
3.77467	36
3.77833	36
3.78200	36
3.78567	36
3.78933	36
3.79300	36
3.79667	36
3.80033	36
3.80400	36
3.80767	36
3.81133	36
3.81500	37
3.81867	36
3.82233	36
3.82600	36
3.82967	36
3.83333	36
3.83700	36
3.84067	36
3.84433	36
3.84800	36
3.85167	35
3.85533	35
3.85900	35
3.86267	35
3.86633	35
3.87000	36
3.87367	36
3.87733	36
3.88100	36
3.88467	36
3.88833	36
3.89200	36
3.89567	36
3.89933	36
3.90300	36
3.90667	37
3.91033	37
3.91400	37
3.91767	37
3.92133	37
3.92500	37
3.92867	37
3.93233	37
3.93600	37
3.93967	37
3.94333	37
3.94700	37
3.95067	37
3.95433	37
3.95800	37
3.96167	37
3.96533	36
3.96900	36
3.97267	36
3.97633	36
3.98000	36
3.98367	36
3.98733	36
3.99100	36
3.99467	36
3.99833	36

[Chromatogram (Ch3)]
Interval(msec)	220
# of Points	1091
Start Time(min)	0.002
End Time(min)	3.998
R.Time (min)	Intensity
0.00167	-0
0.00533	-1
0.00900	-3
0.01267	-4
0.01633	-4
0.02000	-4
0.02367	-3
0.02733	-5
0.03100	-7
0.03467	-6
0.03833	-4
0.04200	-1
0.04567	1
0.04933	2
0.05300	0
0.05667	-1
0.06033	-2
0.06400	-5
0.06767	-9
0.07133	-12
0.07500	-13
0.07867	-11
0.08233	-8
0.08600	-6
0.08967	-8
0.09333	-9
0.09700	-9
0.10067	-11
0.10433	-13
0.10800	-13
0.11167	-13
0.11533	-13
0.11900	-12
0.12267	-11
0.12633	-9
0.13000	-9
0.13367	-11
0.13733	-11
0.14100	-11
0.14467	-10
0.14833	-7
0.15200	-8
0.15567	-9
0.15933	-8
0.16300	-10
0.16667	-9
0.17033	-7
0.17400	-7
0.17767	-8
0.18133	-9
0.18500	-11
0.18867	-12
0.19233	-9
0.19600	-10
0.19967	-13
0.20333	-12
0.20700	-10
0.21067	-13
0.21433	-15
0.21800	-15
0.22167	-16
0.22533	-17
0.22900	-17
0.23267	-19
0.23633	-19
0.24000	-20
0.24367	-19
0.24733	-19
0.25100	-20
0.25467	-17
0.25833	-14
0.26200	-14
0.26567	-16
0.26933	-18
0.27300	-20
0.27667	-19
0.28033	-18
0.28400	-17
0.28767	-15
0.29133	-16
0.29500	-17
0.29867	-18
0.30233	-20
0.30600	-21
0.30967	-21
0.31333	-23
0.31700	-25
0.32067	-26
0.32433	-28
0.32800	-26
0.33167	-23
0.33533	-23
0.33900	-23
0.34267	-24
0.34633	-21
0.35000	-20
0.35367	-20
0.35733	-20
0.36100	-21
0.36467	-22
0.36833	-23
0.37200	-25
0.37567	-24
0.37933	-23
0.38300	-25
0.38667	-26
0.39033	-25
0.39400	-26
0.39767	-26
0.40133	-26
0.40500	-29
0.40867	-31
0.41233	-30
0.41600	-28
0.41967	-28
0.42333	-27
0.42700	-28
0.43067	-29
0.43433	-31
0.43800	-29
0.44167	-27
0.44533	-27
0.44900	-29
0.45267	-30
0.45633	-31
0.46000	-30
0.46367	-28
0.46733	-27
0.47100	-25
0.47467	-23
0.47833	-23
0.48200	-25
0.48567	-26
0.48933	-27
0.49300	-28
0.49667	-28
0.50033	-28
0.50400	-29
0.50767	-29
0.51133	-29
0.51500	-33
0.51867	-33
0.52233	-30
0.52600	-29
0.52967	-29
0.53333	-28
0.53700	-28
0.54067	-28
0.54433	-31
0.54800	-34
0.55167	-35
0.55533	-32
0.55900	-32
0.56267	-31
0.56633	-29
0.57000	-30
0.57367	-30
0.57733	-27
0.58100	-24
0.58467	-23
0.58833	-22
0.59200	-22
0.59567	-21
0.59933	-21
0.60300	-21
0.60667	-22
0.61033	-23
0.61400	-24
0.61767	-22
0.62133	-20
0.62500	-22
0.62867	-24
0.63233	-24
0.63600	-25
0.63967	-26
0.64333	-25
0.64700	-24
0.65067	-24
0.65433	-24
0.65800	-25
0.66167	-24
0.66533	-23
0.66900	-22
0.67267	-23
0.67633	-24
0.68000	-23
0.68367	-23
0.68733	-24
0.69100	-24
0.69467	-23
0.69833	-23
0.70200	-24
0.70567	-25
0.70933	-24
0.71300	-26
0.71667	-27
0.72033	-29
0.72400	-30
0.72767	-31
0.73133	-31
0.73500	-30
0.73867	-29
0.74233	-27
0.74600	-27
0.74967	-28
0.75333	-27
0.75700	-26
0.76067	-28
0.76433	-30
0.76800	-29
0.77167	-29
0.77533	-28
0.77900	-29
0.78267	-30
0.78633	-31
0.79000	-30
0.79367	-28
0.79733	-29
0.80100	-29
0.80467	-27
0.80833	-27
0.81200	-28
0.81567	-29
0.81933	-31
0.82300	-31
0.82667	-30
0.83033	-28
0.83400	-30
0.83767	-33
0.84133	-35
0.84500	-36
0.84867	-36
0.85233	-34
0.85600	-33
0.85967	-35
0.86333	-35
0.86700	-33
0.87067	-33
0.87433	-33
0.87800	-36
0.88167	-39
0.88533	-40
0.88900	-42
0.89267	-41
0.89633	-39
0.90000	-36
0.90367	-36
0.90733	-38
0.91100	-39
0.91467	-43
0.91833	-45
0.92200	-44
0.92567	-44
0.92933	-42
0.93300	-40
0.93667	-42
0.94033	-43
0.94400	-45
0.94767	-45
0.95133	-45
0.95500	-45
0.95867	-45
0.96233	-45
0.96600	-46
0.96967	-47
0.97333	-47
0.97700	-48
0.98067	-50
0.98433	-51
0.98800	-53
0.99167	-53
0.99533	-51
0.99900	-49
1.00267	-50
1.00633	-50
1.01000	-50
1.01367	-49
1.01733	-50
1.02100	-51
1.02467	-51
1.02833	-54
1.03200	-58
1.03567	-58
1.03933	-56
1.04300	-54
1.04667	-54
1.05033	-53
1.05400	-55
1.05767	-55
1.06133	-53
1.06500	-54
1.06867	-55
1.07233	-57
1.07600	-58
1.07967	-57
1.08333	-58
1.08700	-56
1.09067	-56
1.09433	-58
1.09800	-60
1.10167	-61
1.10533	-65
1.10900	-67
1.11267	-68
1.11633	-69
1.12000	-68
1.12367	-66
1.12733	-64
1.13100	-64
1.13467	-62
1.13833	-59
1.14200	-57
1.14567	-55
1.14933	-56
1.15300	-58
1.15667	-61
1.16033	-64
1.16400	-67
1.16767	-68
1.17133	-68
1.17500	-67
1.17867	-67
1.18233	-66
1.18600	-66
1.18967	-66
1.19333	-65
1.19700	-65
1.20067	-67
1.20433	-69
1.20800	-71
1.21167	-73
1.21533	-73
1.21900	-71
1.22267	-70
1.22633	-70
1.23000	-70
1.23367	-71
1.23733	-71
1.24100	-72
1.24467	-72
1.24833	-71
1.25200	-70
1.25567	-68
1.25933	-67
1.26300	-66
1.26667	-65
1.27033	-66
1.27400	-69
1.27767	-68
1.28133	-69
1.28500	-71
1.28867	-73
1.29233	-76
1.29600	-74
1.29967	-75
1.30333	-74
1.30700	-74
1.31067	-76
1.31433	-78
1.31800	-78
1.32167	-77
1.32533	-77
1.32900	-79
1.33267	-78
1.33633	-78
1.34000	-78
1.34367	-78
1.34733	-78
1.35100	-79
1.35467	-79
1.35833	-79
1.36200	-78
1.36567	-76
1.36933	-76
1.37300	-77
1.37667	-78
1.38033	-77
1.38400	-78
1.38767	-80
1.39133	-81
1.39500	-79
1.39867	-78
1.40233	-77
1.40600	-75
1.40967	-74
1.41333	-74
1.41700	-75
1.42067	-79
1.42433	-82
1.42800	-81
1.43167	-81
1.43533	-81
1.43900	-79
1.44267	-79
1.44633	-77
1.45000	-77
1.45367	-79
1.45733	-79
1.46100	-78
1.46467	-78
1.46833	-78
1.47200	-79
1.47567	-80
1.47933	-79
1.48300	-78
1.48667	-79
1.49033	-81
1.49400	-82
1.49767	-84
1.50133	-85
1.50500	-85
1.50867	-84
1.51233	-83
1.51600	-85
1.51967	-85
1.52333	-86
1.52700	-84
1.53067	-85
1.53433	-86
1.53800	-83
1.54167	-80
1.54533	-80
1.54900	-83
1.55267	-85
1.55633	-86
1.56000	-88
1.56367	-89
1.56733	-88
1.57100	-87
1.57467	-90
1.57833	-90
1.58200	-88
1.58567	-87
1.58933	-87
1.59300	-87
1.59667	-87
1.60033	-89
1.60400	-91
1.60767	-90
1.61133	-87
1.61500	-86
1.61867	-85
1.62233	-85
1.62600	-85
1.62967	-87
1.63333	-87
1.63700	-85
1.64067	-83
1.64433	-80
1.64800	-78
1.65167	-75
1.65533	-71
1.65900	-69
1.66267	-67
1.66633	-66
1.67000	-66
1.67367	-67
1.67733	-69
1.68100	-68
1.68467	-66
1.68833	-65
1.69200	-65
1.69567	-64
1.69933	-65
1.70300	-66
1.70667	-68
1.71033	-68
1.71400	-67
1.71767	-63
1.72133	-62
1.72500	-62
1.72867	-63
1.73233	-65
1.73600	-64
1.73967	-60
1.74333	-58
1.74700	-58
1.75067	-56
1.75433	-56
1.75800	-57
1.76167	-57
1.76533	-58
1.76900	-56
1.77267	-55
1.77633	-55
1.78000	-56
1.78367	-55
1.78733	-54
1.79100	-53
1.79467	-53
1.79833	-55
1.80200	-55
1.80567	-53
1.80933	-52
1.81300	-52
1.81667	-52
1.82033	-53
1.82400	-49
1.82767	-44
1.83133	-43
1.83500	-43
1.83867	-41
1.84233	-38
1.84600	-36
1.84967	-35
1.85333	-35
1.85700	-37
1.86067	-39
1.86433	-39
1.86800	-38
1.87167	-37
1.87533	-35
1.87900	-35
1.88267	-35
1.88633	-35
1.89000	-34
1.89367	-33
1.89733	-31
1.90100	-31
1.90467	-31
1.90833	-30
1.91200	-29
1.91567	-28
1.91933	-27
1.92300	-26
1.92667	-25
1.93033	-23
1.93400	-22
1.93767	-22
1.94133	-22
1.94500	-20
1.94867	-19
1.95233	-17
1.95600	-17
1.95967	-16
1.96333	-15
1.96700	-12
1.97067	-12
1.97433	-12
1.97800	-12
1.98167	-8
1.98533	-3
1.98900	-0
1.99267	1
1.99633	1
2.00000	1
2.00367	2
2.00733	3
2.01100	2
2.01467	2
2.01833	3
2.02200	6
2.02567	7
2.02933	9
2.03300	10
2.03667	9
2.04033	10
2.04400	11
2.04767	14
2.05133	18
2.05500	21
2.05867	24
2.06233	26
2.06600	28
2.06967	28
2.07333	29
2.07700	32
2.08067	33
2.08433	36
2.08800	37
2.09167	36
2.09533	37
2.09900	38
2.10267	40
2.10633	44
2.11000	47
2.11367	48
2.11733	53
2.12100	54
2.12467	52
2.12833	55
2.13200	61
2.13567	67
2.13933	71
2.14300	74
2.14667	74
2.15033	76
2.15400	78
2.15767	78
2.16133	78
2.16500	78
2.16867	80
2.17233	84
2.17600	88
2.17967	90
2.18333	92
2.18700	93
2.19067	94
2.19433	93
2.19800	92
2.20167	92
2.20533	93
2.20900	95
2.21267	96
2.21633	97
2.22000	98
2.22367	101
2.22733	105
2.23100	108
2.23467	110
2.23833	112
2.24200	112
2.24567	113
2.24933	115
2.25300	117
2.25667	119
2.26033	120
2.26400	120
2.26767	124
2.27133	127
2.27500	129
2.27867	130
2.28233	131
2.28600	132
2.28967	133
2.29333	137
2.29700	142
2.30067	145
2.30433	147
2.30800	149
2.31167	149
2.31533	148
2.31900	149
2.32267	153
2.32633	159
2.33000	164
2.33367	168
2.33733	170
2.34100	171
2.34467	173
2.34833	175
2.35200	176
2.35567	178
2.35933	179
2.36300	180
2.36667	182
2.37033	183
2.37400	182
2.37767	180
2.38133	175
2.38500	168
2.38867	161
2.39233	163
2.39600	174
2.39967	190
2.40333	208
2.40700	225
2.41067	241
2.41433	255
2.41800	267
2.42167	277
2.42533	286
2.42900	292
2.43267	295
2.43633	299
2.44000	303
2.44367	307
2.44733	311
2.45100	314
2.45467	317
2.45833	318
2.46200	316
2.46567	312
2.46933	304
2.47300	298
2.47667	293
2.48033	291
2.48400	288
2.48767	282
2.49133	275
2.49500	270
2.49867	262
2.50233	254
2.50600	248
2.50967	240
2.51333	232
2.51700	226
2.52067	220
2.52433	214
2.52800	206
2.53167	197
2.53533	188
2.53900	180
2.54267	174
2.54633	168
2.55000	161
2.55367	154
2.55733	147
2.56100	142
2.56467	137
2.56833	131
2.57200	121
2.57567	112
2.57933	107
2.58300	103
2.58667	95
2.59033	82
2.59400	63
2.59767	35
2.60133	-5
2.60500	-57
2.60867	-120
2.61233	-191
2.61600	-265
2.61967	-334
2.62333	-394
2.62700	-441
2.63067	-475
2.63433	-496
2.63800	-509
2.64167	-512
2.64533	-510
2.64900	-505
2.65267	-498
2.65633	-491
2.66000	-481
2.66367	-470
2.66733	-459
2.67100	-451
2.67467	-445
2.67833	-437
2.68200	-427
2.68567	-417
2.68933	-408
2.69300	-402
2.69667	-397
2.70033	-394
2.70400	-392
2.70767	-385
2.71133	-376
2.71500	-368
2.71867	-362
2.72233	-357
2.72600	-353
2.72967	-350
2.73333	-344
2.73700	-339
2.74067	-338
2.74433	-336
2.74800	-333
2.75167	-329
2.75533	-326
2.75900	-325
2.76267	-326
2.76633	-327
2.77000	-325
2.77367	-321
2.77733	-318
2.78100	-317
2.78467	-318
2.78833	-317
2.79200	-316
2.79567	-316
2.79933	-313
2.80300	-308
2.80667	-303
2.81033	-297
2.81400	-282
2.81767	-241
2.82133	-148
2.82500	49
2.82867	418
2.83233	1027
2.83600	1946
2.83967	3213
2.84333	4817
2.84700	6701
2.85067	8771
2.85433	10894
2.85800	12914
2.86167	14675
2.86533	16049
2.86900	16957
2.87267	17367
2.87633	17311
2.88000	16844
2.88367	16058
2.88733	15050
2.89100	13906
2.89467	12697
2.89833	11482
2.90200	10301
2.90567	9176
2.90933	8125
2.91300	7160
2.91667	6287
2.92033	5501
2.92400	4793
2.92767	4162
2.93133	3606
2.93500	3112
2.93867	2677
2.94233	2292
2.94600	1953
2.94967	1661
2.95333	1406
2.95700	1181
2.96067	985
2.96433	815
2.96800	666
2.97167	537
2.97533	427
2.97900	335
2.98267	254
2.98633	182
2.99000	120
2.99367	66
2.99733	21
3.00100	-18
3.00467	-52
3.00833	-82
3.01200	-105
3.01567	-127
3.01933	-146
3.02300	-161
3.02667	-173
3.03033	-185
3.03400	-195
3.03767	-201
3.04133	-207
3.04500	-212
3.04867	-214
3.05233	-218
3.05600	-222
3.05967	-228
3.06333	-232
3.06700	-236
3.07067	-242
3.07433	-246
3.07800	-247
3.08167	-245
3.08533	-244
3.08900	-244
3.09267	-244
3.09633	-243
3.10000	-244
3.10367	-244
3.10733	-244
3.11100	-244
3.11467	-248
3.11833	-251
3.12200	-252
3.12567	-251
3.12933	-249
3.13300	-247
3.13667	-250
3.14033	-252
3.14400	-250
3.14767	-250
3.15133	-251
3.15500	-250
3.15867	-252
3.16233	-254
3.16600	-257
3.16967	-258
3.17333	-257
3.17700	-257
3.18067	-259
3.18433	-259
3.18800	-259
3.19167	-260
3.19533	-263
3.19900	-263
3.20267	-259
3.20633	-256
3.21000	-255
3.21367	-257
3.21733	-257
3.22100	-256
3.22467	-257
3.22833	-258
3.23200	-258
3.23567	-257
3.23933	-260
3.24300	-260
3.24667	-262
3.25033	-264
3.25400	-265
3.25767	-267
3.26133	-269
3.26500	-270
3.26867	-272
3.27233	-274
3.27600	-276
3.27967	-276
3.28333	-276
3.28700	-275
3.29067	-275
3.29433	-278
3.29800	-280
3.30167	-282
3.30533	-283
3.30900	-282
3.31267	-280
3.31633	-277
3.32000	-277
3.32367	-279
3.32733	-282
3.33100	-283
3.33467	-282
3.33833	-282
3.34200	-282
3.34567	-283
3.34933	-285
3.35300	-288
3.35667	-291
3.36033	-290
3.36400	-290
3.36767	-292
3.37133	-294
3.37500	-292
3.37867	-292
3.38233	-292
3.38600	-290
3.38967	-291
3.39333	-293
3.39700	-294
3.40067	-293
3.40433	-294
3.40800	-296
3.41167	-301
3.41533	-305
3.41900	-306
3.42267	-305
3.42633	-305
3.43000	-304
3.43367	-302
3.43733	-302
3.44100	-304
3.44467	-307
3.44833	-309
3.45200	-309
3.45567	-311
3.45933	-314
3.46300	-318
3.46667	-320
3.47033	-322
3.47400	-323
3.47767	-322
3.48133	-322
3.48500	-322
3.48867	-322
3.49233	-324
3.49600	-324
3.49967	-324
3.50333	-327
3.50700	-327
3.51067	-328
3.51433	-330
3.51800	-330
3.52167	-330
3.52533	-331
3.52900	-329
3.53267	-330
3.53633	-330
3.54000	-329
3.54367	-329
3.54733	-328
3.55100	-329
3.55467	-329
3.55833	-328
3.56200	-330
3.56567	-331
3.56933	-333
3.57300	-333
3.57667	-333
3.58033	-335
3.58400	-336
3.58767	-335
3.59133	-336
3.59500	-339
3.59867	-340
3.60233	-340
3.60600	-340
3.60967	-342
3.61333	-343
3.61700	-343
3.62067	-340
3.62433	-339
3.62800	-341
3.63167	-345
3.63533	-346
3.63900	-347
3.64267	-349
3.64633	-348
3.65000	-346
3.65367	-346
3.65733	-346
3.66100	-347
3.66467	-350
3.66833	-350
3.67200	-348
3.67567	-344
3.67933	-342
3.68300	-342
3.68667	-341
3.69033	-341
3.69400	-345
3.69767	-349
3.70133	-351
3.70500	-351
3.70867	-351
3.71233	-348
3.71600	-346
3.71967	-344
3.72333	-344
3.72700	-346
3.73067	-350
3.73433	-352
3.73800	-353
3.74167	-352
3.74533	-352
3.74900	-352
3.75267	-353
3.75633	-354
3.76000	-354
3.76367	-354
3.76733	-354
3.77100	-352
3.77467	-352
3.77833	-351
3.78200	-348
3.78567	-348
3.78933	-350
3.79300	-352
3.79667	-356
3.80033	-359
3.80400	-360
3.80767	-360
3.81133	-360
3.81500	-361
3.81867	-364
3.82233	-365
3.82600	-365
3.82967	-366
3.83333	-365
3.83700	-360
3.84067	-357
3.84433	-358
3.84800	-359
3.85167	-360
3.85533	-361
3.85900	-362
3.86267	-362
3.86633	-362
3.87000	-363
3.87367	-365
3.87733	-365
3.88100	-364
3.88467	-364
3.88833	-366
3.89200	-367
3.89567	-368
3.89933	-366
3.90300	-365
3.90667	-367
3.91033	-367
3.91400	-365
3.91767	-365
3.92133	-366
3.92500	-367
3.92867	-365
3.93233	-363
3.93600	-364
3.93967	-365
3.94333	-366
3.94700	-366
3.95067	-363
3.95433	-363
3.95800	-365
3.96167	-365
3.96533	-363
3.96900	-362
3.97267	-363
3.97633	-363
3.98000	-365
3.98367	-366
3.98733	-368
3.99100	-369
3.99467	-373
3.99833	-385

[Status Trace (Column Oven Temperature)]
Interval(msec)	1000
# of Points	240
Start Time(min)	0.005
End Time(min)	3.988
Intensity Units	
Intensity Multiplier	1
R.Time (min)	Intensity
0.00460	35.02
0.02127	35.03
0.03793	35.05
0.05460	35.05
0.07127	35.05
0.08793	35.04
0.10460	35.04
0.12127	35.05
0.13793	35.05
0.15460	35.06
0.17127	35.06
0.18793	35.06
0.20460	35.05
0.22127	35.03
0.23793	35.01
0.25460	35.00
0.27127	35.00
0.28793	34.98
0.30460	34.98
0.32127	34.97
0.33793	34.97
0.35460	34.96
0.37127	34.95
0.38793	34.96
0.40460	34.96
0.42127	34.96
0.43793	34.96
0.45460	34.97
0.47127	34.99
0.48793	35.01
0.50460	35.02
0.52127	35.03
0.53793	35.03
0.55460	35.02
0.57127	35.02
0.58793	35.03
0.60460	35.03
0.62127	35.03
0.63793	35.03
0.65460	35.04
0.67127	35.05
0.68793	35.05
0.70460	35.04
0.72127	35.04
0.73793	35.03
0.75460	35.04
0.77127	35.05
0.78793	35.05
0.80460	35.05
0.82127	35.03
0.83793	35.01
0.85460	35.00
0.87127	34.98
0.88793	34.96
0.90460	34.96
0.92127	34.96
0.93793	34.96
0.95460	34.96
0.97127	34.98
0.98793	34.98
1.00460	35.00
1.02127	35.01
1.03793	35.01
1.05460	35.01
1.07127	35.01
1.08793	35.00
1.10460	34.99
1.12127	34.98
1.13793	34.98
1.15460	34.98
1.17127	34.99
1.18793	34.99
1.20460	34.99
1.22127	34.98
1.23793	34.97
1.25460	34.96
1.27127	34.96
1.28793	34.96
1.30460	34.96
1.32127	34.96
1.33793	34.96
1.35460	34.97
1.37127	34.96
1.38793	34.96
1.40460	34.97
1.42127	34.97
1.43793	34.98
1.45460	34.98
1.47127	34.97
1.48793	34.98
1.50460	34.99
1.52127	34.99
1.53793	34.99
1.55460	34.98
1.57127	34.98
1.58793	34.99
1.60460	35.04
1.62127	35.15
1.63793	35.32
1.65460	35.54
1.67127	35.85
1.68793	36.23
1.70460	36.60
1.72127	36.95
1.73793	37.28
1.75460	37.59
1.77127	37.93
1.78793	38.27
1.80460	38.60
1.82127	38.94
1.83793	39.27
1.85460	39.61
1.87127	39.92
1.88793	40.24
1.90460	40.58
1.92127	40.90
1.93793	41.24
1.95460	41.57
1.97127	41.88
1.98793	42.21
2.00460	42.54
2.02127	42.86
2.03793	43.19
2.05460	43.51
2.07127	43.83
2.08793	44.17
2.10460	44.50
2.12127	44.82
2.13793	45.15
2.15460	45.48
2.17127	45.80
2.18793	46.13
2.20460	46.44
2.22127	46.76
2.23793	47.12
2.25460	47.44
2.27127	47.77
2.28793	48.11
2.30460	48.42
2.32127	48.76
2.33793	49.09
2.35460	49.37
2.37127	49.61
2.38793	49.69
2.40460	49.68
2.42127	49.70
2.43793	49.69
2.45460	49.71
2.47127	49.72
2.48793	49.73
2.50460	49.73
2.52127	49.74
2.53793	49.77
2.55460	49.78
2.57127	49.79
2.58793	49.79
2.60460	49.82
2.62127	49.83
2.63793	49.83
2.65460	49.84
2.67127	49.85
2.68793	49.85
2.70460	49.85
2.72127	49.86
2.73793	49.88
2.75460	49.88
2.77127	49.87
2.78793	49.86
2.80460	49.86
2.82127	49.87
2.83793	49.88
2.85460	49.90
2.87127	49.93
2.88793	49.95
2.90460	49.97
2.92127	49.99
2.93793	50.00
2.95460	50.02
2.97127	50.02
2.98793	50.03
3.00460	50.04
3.02127	50.05
3.03793	50.05
3.05460	50.05
3.07127	50.05
3.08793	50.06
3.10460	50.07
3.12127	50.08
3.13793	50.08
3.15460	50.09
3.17127	50.09
3.18793	50.09
3.20460	50.09
3.22127	50.10
3.23793	50.10
3.25460	50.09
3.27127	50.08
3.28793	50.09
3.30460	50.08
3.32127	50.09
3.33793	50.08
3.35460	50.09
3.37127	50.10
3.38793	50.10
3.40460	50.10
3.42127	50.08
3.43793	50.07
3.45460	50.07
3.47127	50.06
3.48793	50.06
3.50460	50.05
3.52127	50.05
3.53793	50.05
3.55460	50.05
3.57127	50.06
3.58793	50.06
3.60460	50.07
3.62127	50.07
3.63793	50.07
3.65460	50.07
3.67127	50.07
3.68793	50.09
3.70460	50.11
3.72127	50.11
3.73793	50.10
3.75460	50.09
3.77127	50.07
3.78793	50.06
3.80460	50.05
3.82127	50.04
3.83793	50.04
3.85460	50.04
3.87127	50.03
3.88793	50.02
3.90460	50.01
3.92127	50.01
3.93793	50.00
3.95460	50.00
3.97127	50.01
3.98793	50.01

[Status Trace (Injection Unit Temperature)]
Interval(msec)	1000
# of Points	240
Start Time(min)	0.005
End Time(min)	3.988
Intensity Units	
Intensity Multiplier	1
R.Time (min)	Intensity
0.00460	100.00
0.02127	100.00
0.03793	100.00
0.05460	100.00
0.07127	100.00
0.08793	100.00
0.10460	100.00
0.12127	100.00
0.13793	100.00
0.15460	100.00
0.17127	100.00
0.18793	100.00
0.20460	100.00
0.22127	100.00
0.23793	99.99
0.25460	100.00
0.27127	100.00
0.28793	100.00
0.30460	100.00
0.32127	100.00
0.33793	99.99
0.35460	100.00
0.37127	100.00
0.38793	100.00
0.40460	100.00
0.42127	100.00
0.43793	100.00
0.45460	100.00
0.47127	99.99
0.48793	100.00
0.50460	100.00
0.52127	100.00
0.53793	100.00
0.55460	100.00
0.57127	100.00
0.58793	100.00
0.60460	100.00
0.62127	100.00
0.63793	100.00
0.65460	100.00
0.67127	100.00
0.68793	100.00
0.70460	100.00
0.72127	100.00
0.73793	100.00
0.75460	100.00
0.77127	100.00
0.78793	100.00
0.80460	100.00
0.82127	100.00
0.83793	99.99
0.85460	99.99
0.87127	100.00
0.88793	99.99
0.90460	100.00
0.92127	99.99
0.93793	100.00
0.95460	100.00
0.97127	99.99
0.98793	100.00
1.00460	100.00
1.02127	100.00
1.03793	99.99
1.05460	100.00
1.07127	100.00
1.08793	100.00
1.10460	99.99
1.12127	100.00
1.13793	100.00
1.15460	99.99
1.17127	100.00
1.18793	100.00
1.20460	100.00
1.22127	100.00
1.23793	100.00
1.25460	99.99
1.27127	100.00
1.28793	100.00
1.30460	100.00
1.32127	99.99
1.33793	100.00
1.35460	100.00
1.37127	100.00
1.38793	100.00
1.40460	100.00
1.42127	100.00
1.43793	100.00
1.45460	100.00
1.47127	100.00
1.48793	100.00
1.50460	100.00
1.52127	100.00
1.53793	100.00
1.55460	100.00
1.57127	100.00
1.58793	100.00
1.60460	100.00
1.62127	100.00
1.63793	100.00
1.65460	100.00
1.67127	100.00
1.68793	100.00
1.70460	100.00
1.72127	100.00
1.73793	100.00
1.75460	100.00
1.77127	100.00
1.78793	100.00
1.80460	100.00
1.82127	100.00
1.83793	99.99
1.85460	99.99
1.87127	99.99
1.88793	99.99
1.90460	99.99
1.92127	99.99
1.93793	99.99
1.95460	99.99
1.97127	99.99
1.98793	99.99
2.00460	99.99
2.02127	99.99
2.03793	99.99
2.05460	99.99
2.07127	99.99
2.08793	99.98
2.10460	99.98
2.12127	99.99
2.13793	99.98
2.15460	99.98
2.17127	99.98
2.18793	99.98
2.20460	99.98
2.22127	99.98
2.23793	99.98
2.25460	99.98
2.27127	99.98
2.28793	99.98
2.30460	99.98
2.32127	99.98
2.33793	99.97
2.35460	99.98
2.37127	99.97
2.38793	99.98
2.40460	99.98
2.42127	99.98
2.43793	99.98
2.45460	99.98
2.47127	99.98
2.48793	99.98
2.50460	99.98
2.52127	99.98
2.53793	99.97
2.55460	99.98
2.57127	99.98
2.58793	99.98
2.60460	99.98
2.62127	99.98
2.63793	99.98
2.65460	99.99
2.67127	99.99
2.68793	99.98
2.70460	99.99
2.72127	99.99
2.73793	99.99
2.75460	99.99
2.77127	99.99
2.78793	99.99
2.80460	100.00
2.82127	100.00
2.83793	100.00
2.85460	100.00
2.87127	100.00
2.88793	100.00
2.90460	100.01
2.92127	100.01
2.93793	100.01
2.95460	100.01
2.97127	100.01
2.98793	100.01
3.00460	100.01
3.02127	100.02
3.03793	100.02
3.05460	100.02
3.07127	100.02
3.08793	100.02
3.10460	100.03
3.12127	100.02
3.13793	100.03
3.15460	100.03
3.17127	100.03
3.18793	100.03
3.20460	100.03
3.22127	100.03
3.23793	100.03
3.25460	100.04
3.27127	100.03
3.28793	100.04
3.30460	100.04
3.32127	100.04
3.33793	100.04
3.35460	100.04
3.37127	100.04
3.38793	100.04
3.40460	100.04
3.42127	100.04
3.43793	100.04
3.45460	100.04
3.47127	100.04
3.48793	100.04
3.50460	100.05
3.52127	100.04
3.53793	100.04
3.55460	100.04
3.57127	100.04
3.58793	100.04
3.60460	100.04
3.62127	100.04
3.63793	100.04
3.65460	100.04
3.67127	100.05
3.68793	100.04
3.70460	100.05
3.72127	100.05
3.73793	100.05
3.75460	100.05
3.77127	100.05
3.78793	100.05
3.80460	100.05
3.82127	100.05
3.83793	100.05
3.85460	100.05
3.87127	100.05
3.88793	100.05
3.90460	100.05
3.92127	100.05
3.93793	100.05
3.95460	100.05
3.97127	100.05
3.98793	100.05

[Status Trace (Carrier Gas Pressure)]
Interval(msec)	1000
# of Points	240
Start Time(min)	0.005
End Time(min)	3.988
Intensity Units	
Intensity Multiplier	1
R.Time (min)	Intensity
0.00460	58.00
0.02127	55.94
0.03793	56.58
0.05460	58.80
0.07127	59.84
0.08793	58.23
0.10460	57.98
0.12127	58.01
0.13793	58.01
0.15460	58.01
0.17127	58.00
0.18793	58.00
0.20460	58.00
0.22127	58.00
0.23793	58.00
0.25460	58.00
0.27127	58.00
0.28793	58.00
0.30460	58.00
0.32127	58.00
0.33793	58.00
0.35460	58.00
0.37127	58.00
0.38793	58.00
0.40460	58.00
0.42127	58.00
0.43793	58.00
0.45460	58.00
0.47127	58.00
0.48793	58.00
0.50460	58.00
0.52127	58.00
0.53793	58.00
0.55460	58.00
0.57127	58.00
0.58793	58.00
0.60460	58.00
0.62127	58.00
0.63793	58.00
0.65460	58.00
0.67127	58.00
0.68793	58.00
0.70460	58.00
0.72127	58.00
0.73793	58.00
0.75460	58.00
0.77127	58.00
0.78793	58.00
0.80460	58.00
0.82127	58.00
0.83793	58.00
0.85460	58.00
0.87127	58.00
0.88793	58.00
0.90460	58.00
0.92127	58.00
0.93793	58.00
0.95460	58.00
0.97127	58.00
0.98793	58.00
1.00460	58.00
1.02127	58.00
1.03793	58.00
1.05460	58.00
1.07127	58.00
1.08793	58.00
1.10460	58.00
1.12127	58.00
1.13793	58.00
1.15460	58.00
1.17127	58.00
1.18793	58.00
1.20460	58.00
1.22127	58.00
1.23793	58.00
1.25460	58.00
1.27127	58.00
1.28793	58.00
1.30460	58.00
1.32127	58.00
1.33793	58.00
1.35460	58.00
1.37127	58.00
1.38793	58.00
1.40460	58.00
1.42127	58.00
1.43793	58.00
1.45460	58.00
1.47127	58.00
1.48793	58.00
1.50460	58.00
1.52127	58.00
1.53793	58.00
1.55460	58.00
1.57127	58.00
1.58793	58.00
1.60460	58.00
1.62127	58.00
1.63793	58.00
1.65460	58.00
1.67127	58.01
1.68793	58.01
1.70460	58.00
1.72127	58.00
1.73793	58.00
1.75460	58.00
1.77127	58.00
1.78793	58.00
1.80460	58.00
1.82127	58.00
1.83793	58.00
1.85460	58.00
1.87127	58.00
1.88793	58.00
1.90460	58.00
1.92127	58.00
1.93793	58.00
1.95460	58.00
1.97127	58.00
1.98793	58.00
2.00460	58.00
2.02127	58.00
2.03793	58.00
2.05460	58.00
2.07127	58.00
2.08793	58.00
2.10460	58.00
2.12127	58.00
2.13793	58.00
2.15460	58.00
2.17127	58.00
2.18793	58.00
2.20460	58.00
2.22127	58.00
2.23793	58.00
2.25460	58.00
2.27127	58.00
2.28793	58.00
2.30460	58.00
2.32127	58.00
2.33793	58.00
2.35460	58.00
2.37127	58.00
2.38793	57.99
2.40460	57.99
2.42127	58.00
2.43793	58.00
2.45460	58.00
2.47127	58.00
2.48793	58.00
2.50460	57.99
2.52127	57.99
2.53793	58.00
2.55460	58.00
2.57127	58.00
2.58793	58.00
2.60460	58.00
2.62127	58.00
2.63793	58.00
2.65460	58.00
2.67127	58.00
2.68793	58.00
2.70460	58.00
2.72127	58.00
2.73793	58.00
2.75460	58.00
2.77127	58.00
2.78793	58.00
2.80460	58.00
2.82127	58.00
2.83793	58.00
2.85460	58.00
2.87127	58.00
2.88793	58.00
2.90460	58.00
2.92127	58.00
2.93793	58.00
2.95460	58.00
2.97127	58.00
2.98793	58.00
3.00460	58.00
3.02127	58.00
3.03793	58.00
3.05460	58.00
3.07127	58.00
3.08793	58.00
3.10460	58.00
3.12127	58.00
3.13793	58.00
3.15460	58.00
3.17127	58.00
3.18793	58.00
3.20460	58.00
3.22127	58.00
3.23793	58.00
3.25460	58.00
3.27127	58.00
3.28793	58.00
3.30460	58.00
3.32127	58.00
3.33793	58.00
3.35460	58.00
3.37127	58.00
3.38793	58.00
3.40460	58.00
3.42127	58.00
3.43793	58.00
3.45460	58.00
3.47127	58.00
3.48793	58.00
3.50460	58.00
3.52127	58.00
3.53793	58.00
3.55460	58.00
3.57127	58.00
3.58793	58.00
3.60460	58.00
3.62127	58.00
3.63793	58.00
3.65460	58.00
3.67127	58.00
3.68793	58.00
3.70460	58.00
3.72127	58.00
3.73793	58.00
3.75460	58.00
3.77127	58.00
3.78793	58.00
3.80460	58.00
3.82127	58.00
3.83793	58.00
3.85460	58.00
3.87127	58.00
3.88793	58.00
3.90460	58.00
3.92127	58.00
3.93793	58.00
3.95460	58.00
3.97127	58.00
3.98793	58.00

[Status Trace (Carrier Gas Flow)]
Interval(msec)	1000
# of Points	240
Start Time(min)	0.005
End Time(min)	3.988
Intensity Units	
Intensity Multiplier	1
R.Time (min)	Intensity
0.00460	34.52
0.02127	34.57
0.03793	34.54
0.05460	34.54
0.07127	34.49
0.08793	34.51
0.10460	34.52
0.12127	34.52
0.13793	34.52
0.15460	34.52
0.17127	34.51
0.18793	34.51
0.20460	34.52
0.22127	34.52
0.23793	34.52
0.25460	34.52
0.27127	34.52
0.28793	34.52
0.30460	34.52
0.32127	34.52
0.33793	34.52
0.35460	34.52
0.37127	34.52
0.38793	34.52
0.40460	34.52
0.42127	34.52
0.43793	34.51
0.45460	34.52
0.47127	34.52
0.48793	34.52
0.50460	34.52
0.52127	34.53
0.53793	34.53
0.55460	34.53
0.57127	34.53
0.58793	34.54
0.60460	34.52
0.62127	34.50
0.63793	34.53
0.65460	34.50
0.67127	34.53
0.68793	34.52
0.70460	34.53
0.72127	34.50
0.73793	34.51
0.75460	34.51
0.77127	34.51
0.78793	34.53
0.80460	34.52
0.82127	34.51
0.83793	34.51
0.85460	34.51
0.87127	34.52
0.88793	34.52
0.90460	34.50
0.92127	34.53
0.93793	34.53
0.95460	34.53
0.97127	34.52
0.98793	34.51
1.00460	34.51
1.02127	34.51
1.03793	34.52
1.05460	34.52
1.07127	34.50
1.08793	34.52
1.10460	34.52
1.12127	34.53
1.13793	34.51
1.15460	34.51
1.17127	34.51
1.18793	34.52
1.20460	34.52
1.22127	34.51
1.23793	34.51
1.25460	34.52
1.27127	34.52
1.28793	34.52
1.30460	34.52
1.32127	34.52
1.33793	34.51
1.35460	34.52
1.37127	34.52
1.38793	34.51
1.40460	34.52
1.42127	34.52
1.43793	34.52
1.45460	34.53
1.47127	34.52
1.48793	34.51
1.50460	34.52
1.52127	34.52
1.53793	34.52
1.55460	34.52
1.57127	34.52
1.58793	34.52
1.60460	34.52
1.62127	34.52
1.63793	34.52
1.65460	34.52
1.67127	34.52
1.68793	34.52
1.70460	34.52
1.72127	34.52
1.73793	34.52
1.75460	34.52
1.77127	34.52
1.78793	34.52
1.80460	34.52
1.82127	34.52
1.83793	34.52
1.85460	34.52
1.87127	34.52
1.88793	34.52
1.90460	34.52
1.92127	34.52
1.93793	34.52
1.95460	34.52
1.97127	34.52
1.98793	34.52
2.00460	34.52
2.02127	34.52
2.03793	34.52
2.05460	34.52
2.07127	34.52
2.08793	34.52
2.10460	34.52
2.12127	34.52
2.13793	34.52
2.15460	34.52
2.17127	34.52
2.18793	34.52
2.20460	34.52
2.22127	34.52
2.23793	34.52
2.25460	34.52
2.27127	34.52
2.28793	34.52
2.30460	34.52
2.32127	34.52
2.33793	34.52
2.35460	34.52
2.37127	34.52
2.38793	34.52
2.40460	34.52
2.42127	34.52
2.43793	34.52
2.45460	34.52
2.47127	34.52
2.48793	34.52
2.50460	34.54
2.52127	34.52
2.53793	34.52
2.55460	34.52
2.57127	34.52
2.58793	34.52
2.60460	34.52
2.62127	34.52
2.63793	34.52
2.65460	34.52
2.67127	34.52
2.68793	34.52
2.70460	34.52
2.72127	34.52
2.73793	34.52
2.75460	34.52
2.77127	34.52
2.78793	34.52
2.80460	34.52
2.82127	34.52
2.83793	34.52
2.85460	34.52
2.87127	34.52
2.88793	34.52
2.90460	34.52
2.92127	34.52
2.93793	34.52
2.95460	34.52
2.97127	34.52
2.98793	34.52
3.00460	34.52
3.02127	34.52
3.03793	34.52
3.05460	34.52
3.07127	34.52
3.08793	34.52
3.10460	34.52
3.12127	34.52
3.13793	34.52
3.15460	34.52
3.17127	34.52
3.18793	34.52
3.20460	34.52
3.22127	34.52
3.23793	34.52
3.25460	34.52
3.27127	34.51
3.28793	34.52
3.30460	34.52
3.32127	34.51
3.33793	34.52
3.35460	34.53
3.37127	34.53
3.38793	34.51
3.40460	34.52
3.42127	34.53
3.43793	34.51
3.45460	34.53
3.47127	34.52
3.48793	34.52
3.50460	34.51
3.52127	34.52
3.53793	34.52
3.55460	34.52
3.57127	34.52
3.58793	34.52
3.60460	34.52
3.62127	34.52
3.63793	34.51
3.65460	34.52
3.67127	34.52
3.68793	34.52
3.70460	34.52
3.72127	34.52
3.73793	34.52
3.75460	34.52
3.77127	34.51
3.78793	34.52
3.80460	34.52
3.82127	34.52
3.83793	34.52
3.85460	34.52
3.87127	34.52
3.88793	34.52
3.90460	34.52
3.92127	34.52
3.93793	34.52
3.95460	34.52
3.97127	34.52
3.98793	34.52

[Status Trace (Column Flow)]
Interval(msec)	1000
# of Points	240
Start Time(min)	0.005
End Time(min)	3.988
Intensity Units	
Intensity Multiplier	1
R.Time (min)	Intensity
0.00460	5.50
0.02127	5.26
0.03793	5.33
0.05460	5.59
0.07127	5.71
0.08793	5.52
0.10460	5.49
0.12127	5.50
0.13793	5.50
0.15460	5.50
0.17127	5.50
0.18793	5.50
0.20460	5.50
0.22127	5.50
0.23793	5.50
0.25460	5.50
0.27127	5.50
0.28793	5.50
0.30460	5.50
0.32127	5.50
0.33793	5.50
0.35460	5.50
0.37127	5.50
0.38793	5.50
0.40460	5.50
0.42127	5.50
0.43793	5.50
0.45460	5.50
0.47127	5.50
0.48793	5.50
0.50460	5.50
0.52127	5.50
0.53793	5.50
0.55460	5.50
0.57127	5.50
0.58793	5.50
0.60460	5.50
0.62127	5.50
0.63793	5.50
0.65460	5.50
0.67127	5.50
0.68793	5.50
0.70460	5.50
0.72127	5.50
0.73793	5.50
0.75460	5.50
0.77127	5.50
0.78793	5.50
0.80460	5.50
0.82127	5.50
0.83793	5.50
0.85460	5.50
0.87127	5.50
0.88793	5.50
0.90460	5.50
0.92127	5.50
0.93793	5.50
0.95460	5.50
0.97127	5.50
0.98793	5.50
1.00460	5.50
1.02127	5.50
1.03793	5.50
1.05460	5.50
1.07127	5.50
1.08793	5.50
1.10460	5.50
1.12127	5.50
1.13793	5.50
1.15460	5.50
1.17127	5.50
1.18793	5.50
1.20460	5.50
1.22127	5.50
1.23793	5.50
1.25460	5.50
1.27127	5.50
1.28793	5.50
1.30460	5.50
1.32127	5.50
1.33793	5.50
1.35460	5.50
1.37127	5.50
1.38793	5.50
1.40460	5.50
1.42127	5.50
1.43793	5.50
1.45460	5.50
1.47127	5.50
1.48793	5.50
1.50460	5.50
1.52127	5.50
1.53793	5.50
1.55460	5.50
1.57127	5.50
1.58793	5.50
1.60460	5.50
1.62127	5.49
1.63793	5.49
1.65460	5.48
1.67127	5.47
1.68793	5.46
1.70460	5.45
1.72127	5.44
1.73793	5.43
1.75460	5.42
1.77127	5.41
1.78793	5.40
1.80460	5.39
1.82127	5.38
1.83793	5.37
1.85460	5.36
1.87127	5.35
1.88793	5.34
1.90460	5.33
1.92127	5.32
1.93793	5.31
1.95460	5.30
1.97127	5.29
1.98793	5.28
2.00460	5.27
2.02127	5.26
2.03793	5.25
2.05460	5.24
2.07127	5.23
2.08793	5.22
2.10460	5.21
2.12127	5.20
2.13793	5.19
2.15460	5.18
2.17127	5.17
2.18793	5.17
2.20460	5.16
2.22127	5.15
2.23793	5.14
2.25460	5.13
2.27127	5.12
2.28793	5.11
2.30460	5.10
2.32127	5.09
2.33793	5.08
2.35460	5.07
2.37127	5.07
2.38793	5.07
2.40460	5.07
2.42127	5.07
2.43793	5.07
2.45460	5.07
2.47127	5.06
2.48793	5.06
2.50460	5.06
2.52127	5.06
2.53793	5.06
2.55460	5.06
2.57127	5.06
2.58793	5.06
2.60460	5.06
2.62127	5.06
2.63793	5.06
2.65460	5.06
2.67127	5.06
2.68793	5.06
2.70460	5.06
2.72127	5.06
2.73793	5.06
2.75460	5.06
2.77127	5.06
2.78793	5.06
2.80460	5.06
2.82127	5.06
2.83793	5.06
2.85460	5.06
2.87127	5.06
2.88793	5.06
2.90460	5.06
2.92127	5.06
2.93793	5.06
2.95460	5.06
2.97127	5.06
2.98793	5.06
3.00460	5.06
3.02127	5.06
3.03793	5.06
3.05460	5.06
3.07127	5.06
3.08793	5.06
3.10460	5.06
3.12127	5.05
3.13793	5.05
3.15460	5.05
3.17127	5.05
3.18793	5.05
3.20460	5.05
3.22127	5.05
3.23793	5.05
3.25460	5.05
3.27127	5.05
3.28793	5.05
3.30460	5.05
3.32127	5.05
3.33793	5.05
3.35460	5.05
3.37127	5.05
3.38793	5.05
3.40460	5.05
3.42127	5.05
3.43793	5.05
3.45460	5.06
3.47127	5.06
3.48793	5.06
3.50460	5.06
3.52127	5.06
3.53793	5.06
3.55460	5.06
3.57127	5.06
3.58793	5.06
3.60460	5.05
3.62127	5.05
3.63793	5.06
3.65460	5.06
3.67127	5.05
3.68793	5.05
3.70460	5.05
3.72127	5.05
3.73793	5.05
3.75460	5.05
3.77127	5.06
3.78793	5.06
3.80460	5.06
3.82127	5.06
3.83793	5.06
3.85460	5.06
3.87127	5.06
3.88793	5.06
3.90460	5.06
3.92127	5.06
3.93793	5.06
3.95460	5.06
3.97127	5.06
3.98793	5.06

[Status Trace (Linear Velocity)]
Interval(msec)	1000
# of Points	240
Start Time(min)	0.005
End Time(min)	3.988
Intensity Units	
Intensity Multiplier	1
R.Time (min)	Intensity
0.00460	39.01
0.02127	37.65
0.03793	38.08
0.05460	39.53
0.07127	40.21
0.08793	39.15
0.10460	38.99
0.12127	39.01
0.13793	39.01
0.15460	39.01
0.17127	39.01
0.18793	39.01
0.20460	39.01
0.22127	39.01
0.23793	39.01
0.25460	39.01
0.27127	39.01
0.28793	39.01
0.30460	39.02
0.32127	39.02
0.33793	39.02
0.35460	39.01
0.37127	39.02
0.38793	39.02
0.40460	39.02
0.42127	39.02
0.43793	39.02
0.45460	39.01
0.47127	39.01
0.48793	39.01
0.50460	39.01
0.52127	39.01
0.53793	39.01
0.55460	39.01
0.57127	39.01
0.58793	39.01
0.60460	39.01
0.62127	39.01
0.63793	39.01
0.65460	39.01
0.67127	39.01
0.68793	39.01
0.70460	39.01
0.72127	39.01
0.73793	39.01
0.75460	39.01
0.77127	39.01
0.78793	39.01
0.80460	39.01
0.82127	39.01
0.83793	39.01
0.85460	39.01
0.87127	39.01
0.88793	39.01
0.90460	39.02
0.92127	39.02
0.93793	39.02
0.95460	39.02
0.97127	39.01
0.98793	39.01
1.00460	39.01
1.02127	39.01
1.03793	39.01
1.05460	39.01
1.07127	39.01
1.08793	39.01
1.10460	39.01
1.12127	39.01
1.13793	39.01
1.15460	39.01
1.17127	39.01
1.18793	39.01
1.20460	39.01
1.22127	39.01
1.23793	39.01
1.25460	39.01
1.27127	39.02
1.28793	39.01
1.30460	39.02
1.32127	39.02
1.33793	39.01
1.35460	39.01
1.37127	39.02
1.38793	39.02
1.40460	39.01
1.42127	39.01
1.43793	39.01
1.45460	39.01
1.47127	39.01
1.48793	39.01
1.50460	39.01
1.52127	39.01
1.53793	39.01
1.55460	39.01
1.57127	39.01
1.58793	39.01
1.60460	39.01
1.62127	39.00
1.63793	38.98
1.65460	38.96
1.67127	38.93
1.68793	38.90
1.70460	38.86
1.72127	38.82
1.73793	38.79
1.75460	38.76
1.77127	38.74
1.78793	38.70
1.80460	38.67
1.82127	38.64
1.83793	38.61
1.85460	38.57
1.87127	38.54
1.88793	38.51
1.90460	38.48
1.92127	38.45
1.93793	38.42
1.95460	38.39
1.97127	38.36
1.98793	38.33
2.00460	38.30
2.02127	38.27
2.03793	38.24
2.05460	38.21
2.07127	38.18
2.08793	38.15
2.10460	38.12
2.12127	38.09
2.13793	38.06
2.15460	38.03
2.17127	38.00
2.18793	37.97
2.20460	37.94
2.22127	37.92
2.23793	37.89
2.25460	37.85
2.27127	37.83
2.28793	37.80
2.30460	37.77
2.32127	37.74
2.33793	37.71
2.35460	37.68
2.37127	37.66
2.38793	37.65
2.40460	37.65
2.42127	37.65
2.43793	37.65
2.45460	37.65
2.47127	37.65
2.48793	37.65
2.50460	37.64
2.52127	37.64
2.53793	37.65
2.55460	37.65
2.57127	37.65
2.58793	37.65
2.60460	37.64
2.62127	37.64
2.63793	37.64
2.65460	37.64
2.67127	37.64
2.68793	37.64
2.70460	37.64
2.72127	37.64
2.73793	37.64
2.75460	37.64
2.77127	37.64
2.78793	37.64
2.80460	37.64
2.82127	37.64
2.83793	37.64
2.85460	37.64
2.87127	37.63
2.88793	37.63
2.90460	37.63
2.92127	37.63
2.93793	37.63
2.95460	37.63
2.97127	37.63
2.98793	37.62
3.00460	37.62
3.02127	37.62
3.03793	37.62
3.05460	37.62
3.07127	37.62
3.08793	37.62
3.10460	37.62
3.12127	37.62
3.13793	37.62
3.15460	37.62
3.17127	37.62
3.18793	37.62
3.20460	37.62
3.22127	37.62
3.23793	37.62
3.25460	37.62
3.27127	37.62
3.28793	37.62
3.30460	37.62
3.32127	37.62
3.33793	37.62
3.35460	37.62
3.37127	37.62
3.38793	37.62
3.40460	37.62
3.42127	37.62
3.43793	37.62
3.45460	37.62
3.47127	37.62
3.48793	37.62
3.50460	37.62
3.52127	37.62
3.53793	37.62
3.55460	37.62
3.57127	37.62
3.58793	37.62
3.60460	37.62
3.62127	37.62
3.63793	37.62
3.65460	37.62
3.67127	37.62
3.68793	37.62
3.70460	37.62
3.72127	37.62
3.73793	37.62
3.75460	37.62
3.77127	37.62
3.78793	37.62
3.80460	37.62
3.82127	37.62
3.83793	37.62
3.85460	37.62
3.87127	37.62
3.88793	37.63
3.90460	37.63
3.92127	37.63
3.93793	37.63
3.95460	37.63
3.97127	37.63
3.98793	37.63

