[Header]
Application Name	LabSolutions
Version	5.110
Data File Name	C:\Users\User\Desktop\GC Analyses\Jack\UIC Prairie Sampling\7.9.22\220909_103.gcd
Output Date	9/28/2022
Output Time	11:29:56 AM

[File Information]
Type	Data File
Generated	9/20/2022 12:59:52 PM
Generated by	System Administrator
Modified	9/20/2022 1:04:14 PM
Modified by	System Administrator

[Sample Information]
Operator Name	System Administrator
Acquired	9/20/2022 1:00:14 PM
Sample Type	1:Standard
Level	1
Sample Name	220909_Run
Sample ID	220909_Run
ISTD Amount1	1
ISTD Amount2	1
ISTD Amount3	1
ISTD Amount4	1
ISTD Amount5	1
ISTD Amount6	1
ISTD Amount7	1
ISTD Amount8	1
ISTD Amount9	1
ISTD Amount10	1
ISTD Amount11	1
ISTD Amount12	1
ISTD Amount13	1
ISTD Amount14	1
ISTD Amount15	1
ISTD Amount16	1
ISTD Amount17	1
ISTD Amount18	1
ISTD Amount19	1
ISTD Amount20	1
ISTD Amount21	1
ISTD Amount22	1
ISTD Amount23	1
ISTD Amount24	1
ISTD Amount25	1
ISTD Amount26	1
ISTD Amount27	1
ISTD Amount28	1
ISTD Amount29	1
ISTD Amount30	1
ISTD Amount31	1
ISTD Amount32	1
Sample Amount	1
Dilution Factor	1
Vial#	1
Injection Volume	1
Injection Count	1
Bar Code	

[Original Files]
Data File	C:\Users\User\Desktop\GC Analyses\Jack\220909\220909_103.gcd
Method File	C:\LabSolutions\Data\GHG_4min_2022\ghg3_togas_w_acet_4 min_new_int.gcm
Batch File	
Report Format File	c:\LabSolutions\System\DEFAULT.lsr

[File Description]


[Configuration]
Instrument Name	C0B7VH3-Instrument1
Instrument #	1
Line #	1
# of Detectors	3
Detector ID	DET#1	DET#2	DET#3
Detector Name	FID	PTCD	ECD
# of Channels	1	1	1

[Peak Table(Ch1)]
# of Peaks	3
Peak#	R.Time	I.Time	F.Time	Area	Height	A/H	Conc.	Mark	ID#	Name	k'	Plate #	Plate Ht.	Tailing	Resolution	Sep.Factor	Area Ratio	Height Ratio	Conc. %	Norm Conc.
1	1.479	1.439	1.542	15591	7619	2.046	100.000	   	1	CO	0.000	9598	15.628	1.216	0.000	0.000	0	0	16.667	16.667
2	1.575	1.542	1.630	3911	2095	1.867	100.000	 V 	2	CH4	0.064	13489	11.121	1.156	1.663	0.000	0	0	16.667	16.667
3	2.004	1.956	2.282	1222310	636171	1.921	400.000	   	3	CO2	0.354	20087	7.468	1.166	7.745	5.500	0	0	66.667	66.667

[Peak Table(Ch2)]
# of Peaks	0

[Peak Table(Ch3)]
# of Peaks	3
Peak#	R.Time	I.Time	F.Time	Area	Height	A/H	Conc.	Mark	ID#	Name	k'	Plate #	Plate Ht.	Tailing	Resolution	Sep.Factor	Area Ratio	Height Ratio	Conc. %	Norm Conc.
1	2.455	1.219	2.653	15356	419	36.652	0.000	   			0.000	114	1320.700	0.585	0.000	0.000	0	0	0.000	0.000
2	2.887	2.667	3.419	21360	4137	5.163	1.000	   	1	N2O	0.176	13219	11.347	1.777	0.847	0.000	0	0	50.000	50.000
3	3.536	3.426	3.984	5952	355	16.783	1.000	   	2	SF6	0.441	1160	129.359	2.393	2.516	2.500	0	0	50.000	50.000

[Compound Results(Ch1)]
# of IDs	6
ID#	Name	R.Time	Area	Height	Conc.	Curve	3rd	2nd	1st	Constant	Area Ratio	Height Ratio	Conc. %	Norm Conc.
1	CO	1.479	15591	7619	100.000	Linear	0.000000e+00	0.000000e+00	1.559106e+002	0.000000e+00	0	0	16.667	16.667
2	CH4	1.575	3911	2095	100.000	Linear	0.000000e+00	0.000000e+00	3.911452e+001	0.000000e+00	0	0	16.667	16.667
3	CO2	2.004	1222310	636171	400.000	Linear	0.000000e+00	0.000000e+00	3.055776e+003	0.000000e+00	0	0	66.667	66.667
4	Ethylene	0.000	0	0	0.000	Linear	0.000000e+00	0.000000e+00	0.000000e+00	0.000000e+00	0	0	0.000	0.000
5	Acetylene	0.000	0	0	0.000	Linear	0.000000e+00	0.000000e+00	0.000000e+00	0.000000e+00	0	0	0.000	0.000
6	Ethane	0.000	0	0	0.000	Linear	0.000000e+00	0.000000e+00	0.000000e+00	0.000000e+00	0	0	0.000	0.000

[Compound Results(Ch2)]
# of IDs	5
ID#	Name	R.Time	Area	Height	Conc.	Curve	3rd	2nd	1st	Constant	Area Ratio	Height Ratio	Conc. %	Norm Conc.
1	Hydrogen	0.000	0	0	0.000	Linear	0.000000e+00	0.000000e+00	0.000000e+00	0.000000e+00	0	0	0.000	0.000
2	Oxygen	0.000	0	0	0.000	Linear	0.000000e+00	0.000000e+00	0.000000e+00	0.000000e+00	0	0	0.000	0.000
3	Nitrogen	0.000	0	0	0.000	Linear	0.000000e+00	0.000000e+00	0.000000e+00	0.000000e+00	0	0	0.000	0.000
4	Methane	0.000	0	0	0.000	Linear	0.000000e+00	0.000000e+00	0.000000e+00	0.000000e+00	0	0	0.000	0.000
5	Carbon Monoxide	0.000	0	0	0.000	Linear	0.000000e+00	0.000000e+00	0.000000e+00	0.000000e+00	0	0	0.000	0.000

[Compound Results(Ch3)]
# of IDs	2
ID#	Name	R.Time	Area	Height	Conc.	Curve	3rd	2nd	1st	Constant	Area Ratio	Height Ratio	Conc. %	Norm Conc.
1	N2O	2.887	21360	4137	1.000	Linear	0.000000e+00	0.000000e+00	2.136039e+004	0.000000e+00	0	0	50.000	50.000
2	SF6	3.536	5952	355	1.000	Linear	0.000000e+00	0.000000e+00	5.952119e+003	0.000000e+00	0	0	50.000	50.000

[Group Results(Ch1)]
# of Groups	0

[Group Results(Ch2)]
# of Groups	0

[Group Results(Ch3)]
# of Groups	0

[Chromatogram (Ch1)]
Interval(msec)	220
# of Points	1091
Start Time(min)	0.002
End Time(min)	3.998
R.Time (min)	Intensity
0.00167	-19
0.00533	-20
0.00900	-20
0.01267	-18
0.01633	-14
0.02000	-9
0.02367	-3
0.02733	1
0.03100	5
0.03467	8
0.03833	4
0.04200	-3
0.04567	-10
0.04933	-16
0.05300	-25
0.05667	-32
0.06033	-35
0.06400	-37
0.06767	-35
0.07133	-33
0.07500	-30
0.07867	-26
0.08233	-22
0.08600	-16
0.08967	-9
0.09333	-9
0.09700	-14
0.10067	-19
0.10433	-22
0.10800	-24
0.11167	-28
0.11533	-31
0.11900	-31
0.12267	-25
0.12633	-18
0.13000	-12
0.13367	-9
0.13733	-14
0.14100	-24
0.14467	-38
0.14833	-49
0.15200	-54
0.15567	-59
0.15933	-63
0.16300	-63
0.16667	-57
0.17033	-48
0.17400	-38
0.17767	-32
0.18133	-29
0.18500	-27
0.18867	-26
0.19233	-27
0.19600	-32
0.19967	-39
0.20333	-45
0.20700	-48
0.21067	-50
0.21433	-49
0.21800	-46
0.22167	-41
0.22533	-35
0.22900	-29
0.23267	-25
0.23633	-21
0.24000	-21
0.24367	-25
0.24733	-33
0.25100	-40
0.25467	-45
0.25833	-48
0.26200	-53
0.26567	-57
0.26933	-58
0.27300	-56
0.27667	-55
0.28033	-57
0.28400	-58
0.28767	-52
0.29133	-43
0.29500	-34
0.29867	-33
0.30233	-36
0.30600	-44
0.30967	-51
0.31333	-53
0.31700	-52
0.32067	-49
0.32433	-50
0.32800	-54
0.33167	-59
0.33533	-62
0.33900	-64
0.34267	-64
0.34633	-64
0.35000	-64
0.35367	-64
0.35733	-64
0.36100	-65
0.36467	-68
0.36833	-70
0.37200	-68
0.37567	-63
0.37933	-57
0.38300	-56
0.38667	-58
0.39033	-58
0.39400	-58
0.39767	-57
0.40133	-56
0.40500	-55
0.40867	-53
0.41233	-51
0.41600	-48
0.41967	-46
0.42333	-48
0.42700	-51
0.43067	-56
0.43433	-60
0.43800	-60
0.44167	-58
0.44533	-55
0.44900	-52
0.45267	-51
0.45633	-51
0.46000	-52
0.46367	-56
0.46733	-60
0.47100	-64
0.47467	-69
0.47833	-74
0.48200	-77
0.48567	-79
0.48933	-78
0.49300	-76
0.49667	-74
0.50033	-71
0.50400	-69
0.50767	-68
0.51133	-67
0.51500	-62
0.51867	-58
0.52233	-57
0.52600	-59
0.52967	-63
0.53333	-67
0.53700	-72
0.54067	-71
0.54433	-68
0.54800	-66
0.55167	-70
0.55533	-78
0.55900	-87
0.56267	-93
0.56633	-94
0.57000	-91
0.57367	-87
0.57733	-86
0.58100	-85
0.58467	-85
0.58833	-86
0.59200	-84
0.59567	-80
0.59933	-78
0.60300	-79
0.60667	-81
0.61033	-80
0.61400	-81
0.61767	-86
0.62133	-92
0.62500	-93
0.62867	-91
0.63233	-85
0.63600	-80
0.63967	-75
0.64333	-71
0.64700	-71
0.65067	-70
0.65433	-69
0.65800	-70
0.66167	-76
0.66533	-86
0.66900	-95
0.67267	-101
0.67633	-106
0.68000	-107
0.68367	-105
0.68733	-100
0.69100	-93
0.69467	-83
0.69833	-75
0.70200	-70
0.70567	-70
0.70933	-72
0.71300	-77
0.71667	-81
0.72033	-87
0.72400	-90
0.72767	-90
0.73133	-93
0.73500	-99
0.73867	-105
0.74233	-107
0.74600	-105
0.74967	-104
0.75333	-103
0.75700	-100
0.76067	-98
0.76433	-98
0.76800	-99
0.77167	-102
0.77533	-104
0.77900	-105
0.78267	-103
0.78633	-100
0.79000	-97
0.79367	-97
0.79733	-95
0.80100	-92
0.80467	-92
0.80833	-95
0.81200	-99
0.81567	-103
0.81933	-106
0.82300	-107
0.82667	-111
0.83033	-115
0.83400	-116
0.83767	-117
0.84133	-117
0.84500	-116
0.84867	-111
0.85233	-107
0.85600	-104
0.85967	-102
0.86333	-101
0.86700	-99
0.87067	-100
0.87433	-101
0.87800	-100
0.88167	-98
0.88533	-95
0.88900	-90
0.89267	-88
0.89633	-89
0.90000	-92
0.90367	-94
0.90733	-98
0.91100	-103
0.91467	-105
0.91833	-105
0.92200	-104
0.92567	-103
0.92933	-107
0.93300	-114
0.93667	-119
0.94033	-124
0.94400	-126
0.94767	-126
0.95133	-124
0.95500	-119
0.95867	-114
0.96233	-108
0.96600	-102
0.96967	-98
0.97333	-98
0.97700	-103
0.98067	-113
0.98433	-125
0.98800	-132
0.99167	-134
0.99533	-133
0.99900	-128
1.00267	-123
1.00633	-117
1.01000	-111
1.01367	-108
1.01733	-107
1.02100	-110
1.02467	-113
1.02833	-114
1.03200	-117
1.03567	-121
1.03933	-124
1.04300	-123
1.04667	-121
1.05033	-121
1.05400	-124
1.05767	-125
1.06133	-124
1.06500	-121
1.06867	-118
1.07233	-116
1.07600	-114
1.07967	-111
1.08333	-111
1.08700	-114
1.09067	-115
1.09433	-116
1.09800	-120
1.10167	-124
1.10533	-126
1.10900	-126
1.11267	-123
1.11633	-121
1.12000	-121
1.12367	-125
1.12733	-129
1.13100	-134
1.13467	-138
1.13833	-138
1.14200	-136
1.14567	-135
1.14933	-137
1.15300	-139
1.15667	-137
1.16033	-134
1.16400	-129
1.16767	-125
1.17133	-126
1.17500	-130
1.17867	-132
1.18233	-132
1.18600	-131
1.18967	-133
1.19333	-138
1.19700	-143
1.20067	-147
1.20433	-149
1.20800	-150
1.21167	-152
1.21533	-154
1.21900	-156
1.22267	-153
1.22633	-147
1.23000	-143
1.23367	-143
1.23733	-144
1.24100	-146
1.24467	-148
1.24833	-146
1.25200	-141
1.25567	-134
1.25933	-129
1.26300	-130
1.26667	-135
1.27033	-143
1.27400	-148
1.27767	-151
1.28133	-152
1.28500	-149
1.28867	-143
1.29233	-139
1.29600	-137
1.29967	-135
1.30333	-135
1.30700	-138
1.31067	-140
1.31433	-141
1.31800	-144
1.32167	-146
1.32533	-145
1.32900	-143
1.33267	-143
1.33633	-141
1.34000	-134
1.34367	-126
1.34733	-120
1.35100	-121
1.35467	-125
1.35833	-132
1.36200	-138
1.36567	-141
1.36933	-143
1.37300	-149
1.37667	-156
1.38033	-161
1.38400	-164
1.38767	-165
1.39133	-164
1.39500	-162
1.39867	-160
1.40233	-158
1.40600	-158
1.40967	-161
1.41333	-164
1.41700	-168
1.42067	-170
1.42433	-171
1.42800	-174
1.43167	-175
1.43533	-174
1.43900	-170
1.44267	-154
1.44633	-77
1.45000	170
1.45367	650
1.45733	1349
1.46100	2274
1.46467	3427
1.46833	4723
1.47200	5977
1.47567	6957
1.47933	7444
1.48300	7319
1.48667	6621
1.49033	5543
1.49400	4344
1.49767	3230
1.50133	2309
1.50500	1600
1.50867	1078
1.51233	701
1.51600	434
1.51967	244
1.52333	113
1.52700	22
1.53067	-40
1.53433	-83
1.53800	-115
1.54167	-138
1.54533	-131
1.54900	-46
1.55267	171
1.55633	530
1.56000	965
1.56367	1386
1.56733	1717
1.57100	1904
1.57467	1906
1.57833	1725
1.58200	1415
1.58567	1061
1.58933	734
1.59300	464
1.59667	260
1.60033	115
1.60400	15
1.60767	-55
1.61133	-104
1.61500	-139
1.61867	-163
1.62233	-178
1.62600	-189
1.62967	-197
1.63333	-200
1.63700	-200
1.64067	-203
1.64433	-207
1.64800	-211
1.65167	-211
1.65533	-207
1.65900	-206
1.66267	-207
1.66633	-209
1.67000	-211
1.67367	-212
1.67733	-213
1.68100	-214
1.68467	-211
1.68833	-205
1.69200	-203
1.69567	-203
1.69933	-203
1.70300	-200
1.70667	-198
1.71033	-197
1.71400	-195
1.71767	-190
1.72133	-184
1.72500	-181
1.72867	-182
1.73233	-182
1.73600	-182
1.73967	-184
1.74333	-184
1.74700	-183
1.75067	-183
1.75433	-185
1.75800	-190
1.76167	-194
1.76533	-195
1.76900	-197
1.77267	-196
1.77633	-189
1.78000	-182
1.78367	-179
1.78733	-182
1.79100	-187
1.79467	-191
1.79833	-190
1.80200	-188
1.80567	-185
1.80933	-182
1.81300	-180
1.81667	-179
1.82033	-182
1.82400	-185
1.82767	-186
1.83133	-185
1.83500	-184
1.83867	-184
1.84233	-183
1.84600	-181
1.84967	-180
1.85333	-179
1.85700	-179
1.86067	-180
1.86433	-184
1.86800	-187
1.87167	-189
1.87533	-189
1.87900	-187
1.88267	-183
1.88633	-181
1.89000	-179
1.89367	-177
1.89733	-174
1.90100	-171
1.90467	-170
1.90833	-169
1.91200	-170
1.91567	-175
1.91933	-178
1.92300	-174
1.92667	-166
1.93033	-159
1.93400	-152
1.93767	-146
1.94133	-145
1.94500	-148
1.94867	-152
1.95233	-155
1.95600	-153
1.95967	-125
1.96333	55
1.96700	992
1.97067	4902
1.97433	17483
1.97800	48899
1.98167	110619
1.98533	207502
1.98900	330767
1.99267	458971
1.99633	565623
2.00000	628421
2.00367	636045
2.00733	590788
2.01100	507471
2.01467	406908
2.01833	307958
2.02200	222674
2.02567	155660
2.02933	106333
2.03300	71647
2.03667	48009
2.04033	32231
2.04400	21823
2.04767	14989
2.05133	10497
2.05500	7525
2.05867	5536
2.06233	4184
2.06600	3248
2.06967	2586
2.07333	2106
2.07700	1746
2.08067	1472
2.08433	1263
2.08800	1101
2.09167	973
2.09533	869
2.09900	779
2.10267	699
2.10633	632
2.11000	576
2.11367	529
2.11733	486
2.12100	445
2.12467	409
2.12833	380
2.13200	359
2.13567	341
2.13933	325
2.14300	306
2.14667	285
2.15033	262
2.15400	238
2.15767	217
2.16133	202
2.16500	195
2.16867	191
2.17233	187
2.17600	179
2.17967	169
2.18333	158
2.18700	144
2.19067	133
2.19433	130
2.19800	134
2.20167	140
2.20533	143
2.20900	139
2.21267	126
2.21633	105
2.22000	87
2.22367	76
2.22733	70
2.23100	64
2.23467	62
2.23833	63
2.24200	63
2.24567	63
2.24933	64
2.25300	65
2.25667	67
2.26033	65
2.26400	61
2.26767	55
2.27133	49
2.27500	43
2.27867	34
2.28233	30
2.28600	30
2.28967	30
2.29333	29
2.29700	29
2.30067	30
2.30433	29
2.30800	27
2.31167	21
2.31533	16
2.31900	10
2.32267	3
2.32633	-3
2.33000	-4
2.33367	-2
2.33733	4
2.34100	11
2.34467	13
2.34833	13
2.35200	17
2.35567	19
2.35933	17
2.36300	13
2.36667	8
2.37033	4
2.37400	-0
2.37767	-1
2.38133	1
2.38500	5
2.38867	7
2.39233	4
2.39600	2
2.39967	5
2.40333	8
2.40700	8
2.41067	3
2.41433	-5
2.41800	-12
2.42167	-18
2.42533	-22
2.42900	-22
2.43267	-21
2.43633	-18
2.44000	-13
2.44367	-7
2.44733	-4
2.45100	-4
2.45467	-7
2.45833	-13
2.46200	-16
2.46567	-16
2.46933	-16
2.47300	-15
2.47667	-16
2.48033	-16
2.48400	-16
2.48767	-20
2.49133	-24
2.49500	-27
2.49867	-28
2.50233	-23
2.50600	-18
2.50967	-14
2.51333	-11
2.51700	-11
2.52067	-13
2.52433	-14
2.52800	-15
2.53167	-15
2.53533	-12
2.53900	-9
2.54267	-8
2.54633	-10
2.55000	-11
2.55367	-12
2.55733	-11
2.56100	-9
2.56467	-9
2.56833	-14
2.57200	-21
2.57567	-29
2.57933	-37
2.58300	-38
2.58667	-40
2.59033	-42
2.59400	-42
2.59767	-39
2.60133	-30
2.60500	-25
2.60867	-29
2.61233	-36
2.61600	-44
2.61967	-49
2.62333	-51
2.62700	-53
2.63067	-56
2.63433	-56
2.63800	-55
2.64167	-54
2.64533	-55
2.64900	-56
2.65267	-52
2.65633	-43
2.66000	-39
2.66367	-39
2.66733	-39
2.67100	-39
2.67467	-37
2.67833	-34
2.68200	-33
2.68567	-36
2.68933	-40
2.69300	-46
2.69667	-49
2.70033	-48
2.70400	-46
2.70767	-43
2.71133	-37
2.71500	-32
2.71867	-33
2.72233	-37
2.72600	-42
2.72967	-48
2.73333	-52
2.73700	-53
2.74067	-49
2.74433	-43
2.74800	-37
2.75167	-34
2.75533	-36
2.75900	-39
2.76267	-42
2.76633	-45
2.77000	-46
2.77367	-48
2.77733	-51
2.78100	-53
2.78467	-54
2.78833	-55
2.79200	-52
2.79567	-47
2.79933	-44
2.80300	-43
2.80667	-40
2.81033	-38
2.81400	-42
2.81767	-50
2.82133	-57
2.82500	-57
2.82867	-53
2.83233	-51
2.83600	-52
2.83967	-51
2.84333	-48
2.84700	-45
2.85067	-42
2.85433	-40
2.85800	-39
2.86167	-40
2.86533	-45
2.86900	-50
2.87267	-54
2.87633	-58
2.88000	-63
2.88367	-68
2.88733	-70
2.89100	-66
2.89467	-62
2.89833	-59
2.90200	-58
2.90567	-58
2.90933	-57
2.91300	-55
2.91667	-53
2.92033	-52
2.92400	-55
2.92767	-61
2.93133	-63
2.93500	-66
2.93867	-66
2.94233	-67
2.94600	-70
2.94967	-74
2.95333	-76
2.95700	-76
2.96067	-73
2.96433	-71
2.96800	-70
2.97167	-69
2.97533	-67
2.97900	-65
2.98267	-60
2.98633	-55
2.99000	-52
2.99367	-50
2.99733	-49
3.00100	-49
3.00467	-46
3.00833	-42
3.01200	-40
3.01567	-39
3.01933	-40
3.02300	-41
3.02667	-40
3.03033	-35
3.03400	-28
3.03767	-24
3.04133	-25
3.04500	-30
3.04867	-38
3.05233	-45
3.05600	-52
3.05967	-57
3.06333	-61
3.06700	-65
3.07067	-64
3.07433	-57
3.07800	-48
3.08167	-44
3.08533	-43
3.08900	-45
3.09267	-50
3.09633	-54
3.10000	-52
3.10367	-52
3.10733	-54
3.11100	-55
3.11467	-53
3.11833	-50
3.12200	-48
3.12567	-47
3.12933	-47
3.13300	-49
3.13667	-53
3.14033	-60
3.14400	-64
3.14767	-70
3.15133	-77
3.15500	-80
3.15867	-78
3.16233	-75
3.16600	-71
3.16967	-66
3.17333	-60
3.17700	-54
3.18067	-49
3.18433	-47
3.18800	-46
3.19167	-48
3.19533	-53
3.19900	-59
3.20267	-61
3.20633	-61
3.21000	-59
3.21367	-56
3.21733	-55
3.22100	-55
3.22467	-53
3.22833	-50
3.23200	-47
3.23567	-46
3.23933	-45
3.24300	-45
3.24667	-44
3.25033	-43
3.25400	-46
3.25767	-48
3.26133	-52
3.26500	-59
3.26867	-67
3.27233	-74
3.27600	-77
3.27967	-76
3.28333	-73
3.28700	-67
3.29067	-61
3.29433	-58
3.29800	-59
3.30167	-62
3.30533	-67
3.30900	-73
3.31267	-78
3.31633	-79
3.32000	-79
3.32367	-77
3.32733	-72
3.33100	-67
3.33467	-63
3.33833	-60
3.34200	-57
3.34567	-53
3.34933	-50
3.35300	-48
3.35667	-45
3.36033	-42
3.36400	-40
3.36767	-38
3.37133	-36
3.37500	-36
3.37867	-41
3.38233	-47
3.38600	-50
3.38967	-50
3.39333	-45
3.39700	-42
3.40067	-40
3.40433	-38
3.40800	-35
3.41167	-33
3.41533	-32
3.41900	-36
3.42267	-42
3.42633	-48
3.43000	-56
3.43367	-62
3.43733	-57
3.44100	-52
3.44467	-48
3.44833	-41
3.45200	-38
3.45567	-34
3.45933	-35
3.46300	-36
3.46667	-34
3.47033	-29
3.47400	-23
3.47767	-21
3.48133	-23
3.48500	-21
3.48867	-18
3.49233	-21
3.49600	-25
3.49967	-27
3.50333	-26
3.50700	-27
3.51067	-31
3.51433	-35
3.51800	-40
3.52167	-37
3.52533	-33
3.52900	-31
3.53267	-30
3.53633	-31
3.54000	-32
3.54367	-33
3.54733	-30
3.55100	-25
3.55467	-19
3.55833	-15
3.56200	-16
3.56567	-23
3.56933	-31
3.57300	-32
3.57667	-29
3.58033	-24
3.58400	-19
3.58767	-12
3.59133	-6
3.59500	-5
3.59867	-8
3.60233	-12
3.60600	-14
3.60967	-15
3.61333	-16
3.61700	-19
3.62067	-20
3.62433	-21
3.62800	-24
3.63167	-25
3.63533	-22
3.63900	-20
3.64267	-19
3.64633	-15
3.65000	-8
3.65367	-1
3.65733	4
3.66100	3
3.66467	1
3.66833	-2
3.67200	-8
3.67567	-13
3.67933	-11
3.68300	-8
3.68667	-7
3.69033	-10
3.69400	-13
3.69767	-11
3.70133	-8
3.70500	-7
3.70867	-7
3.71233	-4
3.71600	0
3.71967	4
3.72333	7
3.72700	7
3.73067	5
3.73433	5
3.73800	5
3.74167	4
3.74533	3
3.74900	1
3.75267	-1
3.75633	-1
3.76000	-1
3.76367	-4
3.76733	-6
3.77100	-4
3.77467	-1
3.77833	2
3.78200	5
3.78567	4
3.78933	-1
3.79300	-5
3.79667	-6
3.80033	-9
3.80400	-12
3.80767	-14
3.81133	-14
3.81500	-10
3.81867	-6
3.82233	-4
3.82600	-5
3.82967	-9
3.83333	-14
3.83700	-18
3.84067	-19
3.84433	-15
3.84800	-9
3.85167	-5
3.85533	-4
3.85900	-7
3.86267	-12
3.86633	-18
3.87000	-20
3.87367	-21
3.87733	-21
3.88100	-21
3.88467	-23
3.88833	-28
3.89200	-32
3.89567	-32
3.89933	-29
3.90300	-28
3.90667	-28
3.91033	-26
3.91400	-21
3.91767	-17
3.92133	-17
3.92500	-16
3.92867	-16
3.93233	-20
3.93600	-24
3.93967	-28
3.94333	-31
3.94700	-35
3.95067	-37
3.95433	-34
3.95800	-28
3.96167	-23
3.96533	-18
3.96900	-16
3.97267	-17
3.97633	-21
3.98000	-25
3.98367	-28
3.98733	-25
3.99100	-20
3.99467	-18
3.99833	-21

[Chromatogram (Ch2)]
Interval(msec)	220
# of Points	1091
Start Time(min)	0.002
End Time(min)	3.998
R.Time (min)	Intensity
0.00167	-0
0.00533	-0
0.00900	-0
0.01267	-0
0.01633	-0
0.02000	-0
0.02367	-0
0.02733	-0
0.03100	-0
0.03467	-0
0.03833	-0
0.04200	-0
0.04567	-0
0.04933	0
0.05300	1
0.05667	1
0.06033	2
0.06400	2
0.06767	3
0.07133	3
0.07500	4
0.07867	4
0.08233	4
0.08600	4
0.08967	4
0.09333	4
0.09700	4
0.10067	4
0.10433	4
0.10800	4
0.11167	4
0.11533	5
0.11900	5
0.12267	5
0.12633	5
0.13000	6
0.13367	6
0.13733	7
0.14100	7
0.14467	7
0.14833	7
0.15200	7
0.15567	7
0.15933	7
0.16300	7
0.16667	7
0.17033	6
0.17400	6
0.17767	6
0.18133	6
0.18500	5
0.18867	5
0.19233	5
0.19600	5
0.19967	5
0.20333	5
0.20700	5
0.21067	4
0.21433	4
0.21800	4
0.22167	3
0.22533	3
0.22900	2
0.23267	2
0.23633	2
0.24000	1
0.24367	1
0.24733	1
0.25100	1
0.25467	1
0.25833	1
0.26200	1
0.26567	1
0.26933	1
0.27300	1
0.27667	1
0.28033	1
0.28400	1
0.28767	0
0.29133	0
0.29500	0
0.29867	0
0.30233	0
0.30600	1
0.30967	1
0.31333	1
0.31700	1
0.32067	1
0.32433	1
0.32800	1
0.33167	1
0.33533	1
0.33900	1
0.34267	1
0.34633	2
0.35000	2
0.35367	2
0.35733	2
0.36100	3
0.36467	3
0.36833	3
0.37200	3
0.37567	2
0.37933	2
0.38300	2
0.38667	2
0.39033	2
0.39400	2
0.39767	3
0.40133	3
0.40500	2
0.40867	2
0.41233	2
0.41600	2
0.41967	1
0.42333	0
0.42700	-0
0.43067	-1
0.43433	-1
0.43800	-2
0.44167	-2
0.44533	-2
0.44900	-2
0.45267	-2
0.45633	-2
0.46000	-2
0.46367	-2
0.46733	-2
0.47100	-2
0.47467	-2
0.47833	-1
0.48200	-1
0.48567	-1
0.48933	-1
0.49300	-0
0.49667	-0
0.50033	0
0.50400	0
0.50767	0
0.51133	0
0.51500	0
0.51867	0
0.52233	0
0.52600	0
0.52967	0
0.53333	-0
0.53700	-0
0.54067	-0
0.54433	-0
0.54800	-1
0.55167	-1
0.55533	-1
0.55900	-1
0.56267	-1
0.56633	-0
0.57000	-0
0.57367	-1
0.57733	-1
0.58100	-1
0.58467	-2
0.58833	-2
0.59200	-2
0.59567	-3
0.59933	-3
0.60300	-3
0.60667	-4
0.61033	-4
0.61400	-4
0.61767	-3
0.62133	-3
0.62500	-3
0.62867	-3
0.63233	-2
0.63600	-2
0.63967	-2
0.64333	-2
0.64700	-2
0.65067	-2
0.65433	-2
0.65800	-2
0.66167	-2
0.66533	-2
0.66900	-1
0.67267	-1
0.67633	-1
0.68000	-0
0.68367	0
0.68733	1
0.69100	1
0.69467	2
0.69833	2
0.70200	2
0.70567	2
0.70933	2
0.71300	3
0.71667	3
0.72033	3
0.72400	3
0.72767	3
0.73133	3
0.73500	3
0.73867	3
0.74233	3
0.74600	3
0.74967	2
0.75333	2
0.75700	2
0.76067	3
0.76433	3
0.76800	3
0.77167	3
0.77533	3
0.77900	3
0.78267	2
0.78633	2
0.79000	2
0.79367	2
0.79733	1
0.80100	1
0.80467	1
0.80833	0
0.81200	-0
0.81567	-1
0.81933	-1
0.82300	-1
0.82667	-1
0.83033	-1
0.83400	-1
0.83767	-2
0.84133	-2
0.84500	-2
0.84867	-3
0.85233	-3
0.85600	-3
0.85967	-3
0.86333	-3
0.86700	-3
0.87067	-3
0.87433	-3
0.87800	-3
0.88167	-3
0.88533	-3
0.88900	-3
0.89267	-3
0.89633	-4
0.90000	-4
0.90367	-4
0.90733	-4
0.91100	-4
0.91467	-4
0.91833	-4
0.92200	-3
0.92567	-3
0.92933	-2
0.93300	-2
0.93667	-1
0.94033	-1
0.94400	-0
0.94767	0
0.95133	1
0.95500	1
0.95867	2
0.96233	2
0.96600	2
0.96967	3
0.97333	3
0.97700	3
0.98067	3
0.98433	3
0.98800	3
0.99167	3
0.99533	3
0.99900	3
1.00267	3
1.00633	3
1.01000	3
1.01367	2
1.01733	2
1.02100	2
1.02467	2
1.02833	1
1.03200	1
1.03567	1
1.03933	0
1.04300	-0
1.04667	-1
1.05033	-1
1.05400	-2
1.05767	-2
1.06133	-3
1.06500	-3
1.06867	-3
1.07233	-3
1.07600	-3
1.07967	-2
1.08333	-2
1.08700	-2
1.09067	-2
1.09433	-2
1.09800	-2
1.10167	-2
1.10533	-2
1.10900	-2
1.11267	-2
1.11633	-2
1.12000	-2
1.12367	-2
1.12733	-2
1.13100	-3
1.13467	-3
1.13833	-3
1.14200	-3
1.14567	-3
1.14933	-3
1.15300	-3
1.15667	-3
1.16033	-2
1.16400	-2
1.16767	-2
1.17133	-1
1.17500	-1
1.17867	-1
1.18233	-0
1.18600	-1
1.18967	-1
1.19333	-1
1.19700	-1
1.20067	-1
1.20433	-1
1.20800	-1
1.21167	-1
1.21533	-1
1.21900	-0
1.22267	0
1.22633	0
1.23000	0
1.23367	0
1.23733	1
1.24100	1
1.24467	1
1.24833	1
1.25200	1
1.25567	2
1.25933	2
1.26300	2
1.26667	3
1.27033	3
1.27400	2
1.27767	2
1.28133	2
1.28500	2
1.28867	1
1.29233	1
1.29600	1
1.29967	0
1.30333	0
1.30700	0
1.31067	0
1.31433	1
1.31800	1
1.32167	1
1.32533	1
1.32900	0
1.33267	0
1.33633	0
1.34000	-0
1.34367	-0
1.34733	-0
1.35100	-0
1.35467	-0
1.35833	0
1.36200	0
1.36567	1
1.36933	1
1.37300	1
1.37667	1
1.38033	1
1.38400	0
1.38767	-0
1.39133	-0
1.39500	-1
1.39867	-1
1.40233	-1
1.40600	-2
1.40967	-2
1.41333	-2
1.41700	-2
1.42067	-2
1.42433	-1
1.42800	-1
1.43167	-1
1.43533	-1
1.43900	-1
1.44267	-1
1.44633	-1
1.45000	-1
1.45367	-1
1.45733	-1
1.46100	-1
1.46467	-1
1.46833	-0
1.47200	-0
1.47567	-0
1.47933	-0
1.48300	-0
1.48667	-0
1.49033	-0
1.49400	-0
1.49767	-0
1.50133	-0
1.50500	-0
1.50867	-0
1.51233	-1
1.51600	-1
1.51967	-1
1.52333	-1
1.52700	-2
1.53067	-2
1.53433	-2
1.53800	-1
1.54167	-1
1.54533	-1
1.54900	-1
1.55267	-0
1.55633	-0
1.56000	0
1.56367	0
1.56733	1
1.57100	1
1.57467	2
1.57833	2
1.58200	2
1.58567	1
1.58933	1
1.59300	1
1.59667	-0
1.60033	-1
1.60400	-3
1.60767	-4
1.61133	-6
1.61500	-9
1.61867	-11
1.62233	-13
1.62600	-16
1.62967	-19
1.63333	-22
1.63700	-26
1.64067	-29
1.64433	-33
1.64800	-36
1.65167	-39
1.65533	-43
1.65900	-47
1.66267	-50
1.66633	-55
1.67000	-59
1.67367	-64
1.67733	-70
1.68100	-75
1.68467	-80
1.68833	-85
1.69200	-89
1.69567	-93
1.69933	-97
1.70300	-100
1.70667	-102
1.71033	-104
1.71400	-106
1.71767	-107
1.72133	-108
1.72500	-109
1.72867	-110
1.73233	-111
1.73600	-111
1.73967	-112
1.74333	-112
1.74700	-112
1.75067	-112
1.75433	-112
1.75800	-113
1.76167	-113
1.76533	-114
1.76900	-115
1.77267	-116
1.77633	-116
1.78000	-117
1.78367	-117
1.78733	-117
1.79100	-117
1.79467	-117
1.79833	-117
1.80200	-117
1.80567	-118
1.80933	-119
1.81300	-119
1.81667	-120
1.82033	-120
1.82400	-119
1.82767	-119
1.83133	-118
1.83500	-117
1.83867	-117
1.84233	-117
1.84600	-117
1.84967	-117
1.85333	-118
1.85700	-118
1.86067	-119
1.86433	-120
1.86800	-120
1.87167	-121
1.87533	-121
1.87900	-120
1.88267	-120
1.88633	-120
1.89000	-119
1.89367	-119
1.89733	-119
1.90100	-119
1.90467	-119
1.90833	-119
1.91200	-119
1.91567	-119
1.91933	-118
1.92300	-118
1.92667	-118
1.93033	-118
1.93400	-118
1.93767	-117
1.94133	-117
1.94500	-116
1.94867	-115
1.95233	-115
1.95600	-114
1.95967	-114
1.96333	-114
1.96700	-114
1.97067	-115
1.97433	-115
1.97800	-115
1.98167	-115
1.98533	-115
1.98900	-114
1.99267	-114
1.99633	-114
2.00000	-114
2.00367	-114
2.00733	-114
2.01100	-114
2.01467	-114
2.01833	-113
2.02200	-113
2.02567	-112
2.02933	-112
2.03300	-111
2.03667	-110
2.04033	-110
2.04400	-110
2.04767	-109
2.05133	-109
2.05500	-108
2.05867	-108
2.06233	-107
2.06600	-106
2.06967	-106
2.07333	-105
2.07700	-105
2.08067	-104
2.08433	-104
2.08800	-104
2.09167	-104
2.09533	-104
2.09900	-104
2.10267	-104
2.10633	-104
2.11000	-103
2.11367	-103
2.11733	-103
2.12100	-103
2.12467	-103
2.12833	-104
2.13200	-104
2.13567	-105
2.13933	-105
2.14300	-104
2.14667	-104
2.15033	-103
2.15400	-102
2.15767	-102
2.16133	-101
2.16500	-100
2.16867	-100
2.17233	-99
2.17600	-99
2.17967	-98
2.18333	-98
2.18700	-98
2.19067	-98
2.19433	-97
2.19800	-97
2.20167	-96
2.20533	-96
2.20900	-96
2.21267	-96
2.21633	-96
2.22000	-96
2.22367	-95
2.22733	-95
2.23100	-95
2.23467	-95
2.23833	-95
2.24200	-95
2.24567	-95
2.24933	-94
2.25300	-94
2.25667	-94
2.26033	-93
2.26400	-92
2.26767	-92
2.27133	-91
2.27500	-91
2.27867	-90
2.28233	-90
2.28600	-89
2.28967	-89
2.29333	-89
2.29700	-89
2.30067	-90
2.30433	-90
2.30800	-90
2.31167	-91
2.31533	-90
2.31900	-90
2.32267	-89
2.32633	-89
2.33000	-89
2.33367	-89
2.33733	-89
2.34100	-89
2.34467	-88
2.34833	-88
2.35200	-87
2.35567	-86
2.35933	-84
2.36300	-82
2.36667	-80
2.37033	-77
2.37400	-75
2.37767	-71
2.38133	-68
2.38500	-64
2.38867	-60
2.39233	-56
2.39600	-52
2.39967	-48
2.40333	-44
2.40700	-40
2.41067	-36
2.41433	-32
2.41800	-29
2.42167	-26
2.42533	-23
2.42900	-21
2.43267	-18
2.43633	-16
2.44000	-14
2.44367	-12
2.44733	-10
2.45100	-8
2.45467	-7
2.45833	-6
2.46200	-4
2.46567	-4
2.46933	-3
2.47300	-2
2.47667	-1
2.48033	-0
2.48400	0
2.48767	1
2.49133	2
2.49500	3
2.49867	4
2.50233	4
2.50600	5
2.50967	6
2.51333	6
2.51700	7
2.52067	8
2.52433	8
2.52800	9
2.53167	10
2.53533	10
2.53900	11
2.54267	11
2.54633	12
2.55000	12
2.55367	12
2.55733	12
2.56100	13
2.56467	13
2.56833	13
2.57200	13
2.57567	13
2.57933	13
2.58300	13
2.58667	12
2.59033	12
2.59400	12
2.59767	12
2.60133	13
2.60500	13
2.60867	14
2.61233	14
2.61600	14
2.61967	14
2.62333	14
2.62700	14
2.63067	14
2.63433	15
2.63800	15
2.64167	16
2.64533	16
2.64900	17
2.65267	17
2.65633	17
2.66000	18
2.66367	18
2.66733	18
2.67100	18
2.67467	18
2.67833	18
2.68200	19
2.68567	19
2.68933	19
2.69300	20
2.69667	20
2.70033	20
2.70400	20
2.70767	20
2.71133	20
2.71500	20
2.71867	20
2.72233	20
2.72600	20
2.72967	21
2.73333	21
2.73700	21
2.74067	21
2.74433	21
2.74800	22
2.75167	22
2.75533	22
2.75900	23
2.76267	23
2.76633	23
2.77000	23
2.77367	24
2.77733	24
2.78100	24
2.78467	24
2.78833	24
2.79200	25
2.79567	25
2.79933	25
2.80300	25
2.80667	25
2.81033	25
2.81400	24
2.81767	24
2.82133	24
2.82500	24
2.82867	24
2.83233	24
2.83600	23
2.83967	23
2.84333	23
2.84700	23
2.85067	23
2.85433	22
2.85800	20
2.86167	16
2.86533	10
2.86900	1
2.87267	-12
2.87633	-28
2.88000	-49
2.88367	-73
2.88733	-101
2.89100	-134
2.89467	-169
2.89833	-208
2.90200	-250
2.90567	-294
2.90933	-339
2.91300	-385
2.91667	-432
2.92033	-480
2.92400	-528
2.92767	-575
2.93133	-623
2.93500	-674
2.93867	-730
2.94233	-790
2.94600	-846
2.94967	-888
2.95333	-909
2.95700	-906
2.96067	-881
2.96433	-839
2.96800	-784
2.97167	-720
2.97533	-654
2.97900	-586
2.98267	-521
2.98633	-459
2.99000	-402
2.99367	-349
2.99733	-302
3.00100	-260
3.00467	-223
3.00833	-190
3.01200	-161
3.01567	-136
3.01933	-115
3.02300	-96
3.02667	-80
3.03033	-67
3.03400	-55
3.03767	-45
3.04133	-36
3.04500	-29
3.04867	-23
3.05233	-18
3.05600	-13
3.05967	-9
3.06333	-6
3.06700	-3
3.07067	-1
3.07433	2
3.07800	3
3.08167	5
3.08533	6
3.08900	7
3.09267	8
3.09633	9
3.10000	10
3.10367	11
3.10733	11
3.11100	12
3.11467	13
3.11833	13
3.12200	14
3.12567	15
3.12933	15
3.13300	16
3.13667	16
3.14033	16
3.14400	17
3.14767	17
3.15133	17
3.15500	17
3.15867	17
3.16233	17
3.16600	17
3.16967	17
3.17333	17
3.17700	17
3.18067	18
3.18433	18
3.18800	19
3.19167	19
3.19533	20
3.19900	20
3.20267	21
3.20633	21
3.21000	22
3.21367	22
3.21733	22
3.22100	23
3.22467	23
3.22833	23
3.23200	23
3.23567	24
3.23933	24
3.24300	24
3.24667	24
3.25033	25
3.25400	25
3.25767	25
3.26133	25
3.26500	25
3.26867	25
3.27233	25
3.27600	26
3.27967	26
3.28333	26
3.28700	26
3.29067	27
3.29433	27
3.29800	27
3.30167	27
3.30533	27
3.30900	27
3.31267	27
3.31633	27
3.32000	27
3.32367	27
3.32733	27
3.33100	27
3.33467	27
3.33833	27
3.34200	27
3.34567	27
3.34933	27
3.35300	27
3.35667	26
3.36033	26
3.36400	26
3.36767	26
3.37133	26
3.37500	25
3.37867	25
3.38233	25
3.38600	25
3.38967	25
3.39333	25
3.39700	25
3.40067	25
3.40433	25
3.40800	25
3.41167	25
3.41533	25
3.41900	25
3.42267	25
3.42633	25
3.43000	25
3.43367	25
3.43733	25
3.44100	25
3.44467	25
3.44833	25
3.45200	25
3.45567	25
3.45933	25
3.46300	25
3.46667	24
3.47033	24
3.47400	24
3.47767	24
3.48133	24
3.48500	24
3.48867	25
3.49233	25
3.49600	24
3.49967	24
3.50333	24
3.50700	24
3.51067	24
3.51433	24
3.51800	24
3.52167	24
3.52533	24
3.52900	24
3.53267	24
3.53633	24
3.54000	24
3.54367	24
3.54733	24
3.55100	24
3.55467	24
3.55833	24
3.56200	24
3.56567	24
3.56933	25
3.57300	25
3.57667	25
3.58033	25
3.58400	25
3.58767	25
3.59133	25
3.59500	25
3.59867	24
3.60233	24
3.60600	24
3.60967	24
3.61333	24
3.61700	24
3.62067	24
3.62433	24
3.62800	25
3.63167	25
3.63533	25
3.63900	25
3.64267	25
3.64633	25
3.65000	25
3.65367	25
3.65733	25
3.66100	25
3.66467	25
3.66833	24
3.67200	24
3.67567	24
3.67933	23
3.68300	23
3.68667	23
3.69033	23
3.69400	23
3.69767	23
3.70133	23
3.70500	23
3.70867	23
3.71233	23
3.71600	23
3.71967	23
3.72333	23
3.72700	23
3.73067	24
3.73433	24
3.73800	24
3.74167	25
3.74533	25
3.74900	25
3.75267	25
3.75633	25
3.76000	25
3.76367	24
3.76733	24
3.77100	24
3.77467	24
3.77833	24
3.78200	24
3.78567	25
3.78933	25
3.79300	25
3.79667	25
3.80033	25
3.80400	24
3.80767	24
3.81133	24
3.81500	24
3.81867	24
3.82233	25
3.82600	24
3.82967	24
3.83333	24
3.83700	24
3.84067	24
3.84433	24
3.84800	24
3.85167	24
3.85533	25
3.85900	25
3.86267	25
3.86633	25
3.87000	25
3.87367	26
3.87733	26
3.88100	26
3.88467	26
3.88833	26
3.89200	26
3.89567	26
3.89933	26
3.90300	26
3.90667	26
3.91033	26
3.91400	26
3.91767	26
3.92133	26
3.92500	26
3.92867	26
3.93233	26
3.93600	26
3.93967	26
3.94333	26
3.94700	26
3.95067	27
3.95433	27
3.95800	26
3.96167	26
3.96533	26
3.96900	26
3.97267	26
3.97633	26
3.98000	26
3.98367	26
3.98733	26
3.99100	26
3.99467	25
3.99833	25

[Chromatogram (Ch3)]
Interval(msec)	220
# of Points	1091
Start Time(min)	0.002
End Time(min)	3.998
R.Time (min)	Intensity
0.00167	0
0.00533	1
0.00900	-0
0.01267	-2
0.01633	-3
0.02000	-2
0.02367	0
0.02733	2
0.03100	3
0.03467	4
0.03833	3
0.04200	4
0.04567	5
0.04933	5
0.05300	4
0.05667	3
0.06033	4
0.06400	3
0.06767	4
0.07133	6
0.07500	6
0.07867	9
0.08233	10
0.08600	9
0.08967	8
0.09333	6
0.09700	6
0.10067	7
0.10433	6
0.10800	5
0.11167	6
0.11533	6
0.11900	6
0.12267	5
0.12633	4
0.13000	5
0.13367	8
0.13733	10
0.14100	11
0.14467	12
0.14833	12
0.15200	12
0.15567	12
0.15933	10
0.16300	9
0.16667	8
0.17033	7
0.17400	9
0.17767	9
0.18133	6
0.18500	6
0.18867	5
0.19233	4
0.19600	4
0.19967	4
0.20333	5
0.20700	6
0.21067	6
0.21433	5
0.21800	4
0.22167	4
0.22533	5
0.22900	6
0.23267	4
0.23633	3
0.24000	5
0.24367	8
0.24733	8
0.25100	8
0.25467	7
0.25833	6
0.26200	6
0.26567	6
0.26933	5
0.27300	7
0.27667	8
0.28033	8
0.28400	7
0.28767	7
0.29133	6
0.29500	5
0.29867	5
0.30233	6
0.30600	6
0.30967	6
0.31333	4
0.31700	3
0.32067	3
0.32433	3
0.32800	4
0.33167	6
0.33533	7
0.33900	9
0.34267	11
0.34633	13
0.35000	12
0.35367	11
0.35733	11
0.36100	13
0.36467	12
0.36833	10
0.37200	8
0.37567	8
0.37933	6
0.38300	5
0.38667	6
0.39033	7
0.39400	8
0.39767	10
0.40133	11
0.40500	12
0.40867	11
0.41233	11
0.41600	11
0.41967	12
0.42333	13
0.42700	15
0.43067	16
0.43433	16
0.43800	15
0.44167	14
0.44533	13
0.44900	12
0.45267	13
0.45633	13
0.46000	14
0.46367	15
0.46733	15
0.47100	14
0.47467	16
0.47833	17
0.48200	18
0.48567	18
0.48933	17
0.49300	18
0.49667	19
0.50033	16
0.50400	13
0.50767	11
0.51133	12
0.51500	14
0.51867	15
0.52233	14
0.52600	14
0.52967	14
0.53333	16
0.53700	17
0.54067	18
0.54433	19
0.54800	19
0.55167	19
0.55533	19
0.55900	18
0.56267	18
0.56633	18
0.57000	19
0.57367	21
0.57733	20
0.58100	18
0.58467	16
0.58833	15
0.59200	14
0.59567	16
0.59933	18
0.60300	18
0.60667	19
0.61033	19
0.61400	21
0.61767	24
0.62133	27
0.62500	28
0.62867	25
0.63233	23
0.63600	23
0.63967	21
0.64333	20
0.64700	21
0.65067	22
0.65433	21
0.65800	19
0.66167	18
0.66533	19
0.66900	21
0.67267	23
0.67633	24
0.68000	23
0.68367	22
0.68733	20
0.69100	19
0.69467	21
0.69833	21
0.70200	24
0.70567	26
0.70933	24
0.71300	23
0.71667	23
0.72033	23
0.72400	22
0.72767	23
0.73133	26
0.73500	28
0.73867	29
0.74233	28
0.74600	27
0.74967	26
0.75333	25
0.75700	25
0.76067	26
0.76433	29
0.76800	31
0.77167	31
0.77533	31
0.77900	31
0.78267	31
0.78633	32
0.79000	32
0.79367	33
0.79733	34
0.80100	34
0.80467	34
0.80833	32
0.81200	29
0.81567	27
0.81933	27
0.82300	31
0.82667	34
0.83033	35
0.83400	34
0.83767	31
0.84133	30
0.84500	31
0.84867	33
0.85233	35
0.85600	36
0.85967	38
0.86333	39
0.86700	38
0.87067	36
0.87433	35
0.87800	36
0.88167	37
0.88533	39
0.88900	41
0.89267	43
0.89633	43
0.90000	43
0.90367	44
0.90733	43
0.91100	41
0.91467	40
0.91833	40
0.92200	41
0.92567	41
0.92933	40
0.93300	41
0.93667	43
0.94033	45
0.94400	46
0.94767	48
0.95133	49
0.95500	48
0.95867	47
0.96233	46
0.96600	45
0.96967	48
0.97333	48
0.97700	48
0.98067	46
0.98433	44
0.98800	44
0.99167	45
0.99533	45
0.99900	47
1.00267	48
1.00633	49
1.01000	49
1.01367	50
1.01733	51
1.02100	53
1.02467	55
1.02833	54
1.03200	56
1.03567	56
1.03933	54
1.04300	54
1.04667	55
1.05033	57
1.05400	57
1.05767	57
1.06133	57
1.06500	55
1.06867	55
1.07233	56
1.07600	57
1.07967	57
1.08333	57
1.08700	58
1.09067	57
1.09433	56
1.09800	56
1.10167	57
1.10533	57
1.10900	58
1.11267	58
1.11633	59
1.12000	60
1.12367	60
1.12733	59
1.13100	57
1.13467	56
1.13833	56
1.14200	57
1.14567	58
1.14933	57
1.15300	57
1.15667	58
1.16033	58
1.16400	58
1.16767	56
1.17133	55
1.17500	57
1.17867	59
1.18233	60
1.18600	60
1.18967	61
1.19333	62
1.19700	62
1.20067	61
1.20433	60
1.20800	61
1.21167	59
1.21533	56
1.21900	55
1.22267	57
1.22633	58
1.23000	58
1.23367	57
1.23733	56
1.24100	56
1.24467	56
1.24833	58
1.25200	60
1.25567	62
1.25933	63
1.26300	64
1.26667	65
1.27033	65
1.27400	64
1.27767	63
1.28133	63
1.28500	63
1.28867	63
1.29233	62
1.29600	64
1.29967	64
1.30333	63
1.30700	63
1.31067	63
1.31433	62
1.31800	62
1.32167	61
1.32533	60
1.32900	57
1.33267	60
1.33633	64
1.34000	65
1.34367	65
1.34733	66
1.35100	67
1.35467	66
1.35833	65
1.36200	64
1.36567	63
1.36933	64
1.37300	65
1.37667	66
1.38033	66
1.38400	67
1.38767	65
1.39133	66
1.39500	68
1.39867	70
1.40233	70
1.40600	68
1.40967	66
1.41333	64
1.41700	65
1.42067	68
1.42433	68
1.42800	67
1.43167	68
1.43533	70
1.43900	71
1.44267	70
1.44633	71
1.45000	70
1.45367	70
1.45733	70
1.46100	69
1.46467	69
1.46833	69
1.47200	69
1.47567	69
1.47933	69
1.48300	70
1.48667	69
1.49033	70
1.49400	73
1.49767	74
1.50133	74
1.50500	72
1.50867	74
1.51233	75
1.51600	74
1.51967	73
1.52333	72
1.52700	74
1.53067	75
1.53433	77
1.53800	77
1.54167	78
1.54533	78
1.54900	77
1.55267	76
1.55633	74
1.56000	73
1.56367	70
1.56733	71
1.57100	73
1.57467	74
1.57833	74
1.58200	74
1.58567	74
1.58933	74
1.59300	73
1.59667	73
1.60033	72
1.60400	72
1.60767	76
1.61133	79
1.61500	79
1.61867	77
1.62233	77
1.62600	81
1.62967	82
1.63333	82
1.63700	82
1.64067	83
1.64433	82
1.64800	81
1.65167	79
1.65533	79
1.65900	80
1.66267	84
1.66633	87
1.67000	88
1.67367	89
1.67733	89
1.68100	88
1.68467	88
1.68833	88
1.69200	89
1.69567	90
1.69933	89
1.70300	89
1.70667	89
1.71033	91
1.71400	94
1.71767	98
1.72133	99
1.72500	99
1.72867	99
1.73233	100
1.73600	102
1.73967	102
1.74333	101
1.74700	103
1.75067	106
1.75433	108
1.75800	111
1.76167	113
1.76533	111
1.76900	109
1.77267	110
1.77633	112
1.78000	113
1.78367	116
1.78733	117
1.79100	115
1.79467	114
1.79833	115
1.80200	115
1.80567	115
1.80933	119
1.81300	122
1.81667	125
1.82033	126
1.82400	126
1.82767	125
1.83133	126
1.83500	128
1.83867	130
1.84233	132
1.84600	134
1.84967	135
1.85333	135
1.85700	137
1.86067	139
1.86433	140
1.86800	139
1.87167	138
1.87533	139
1.87900	138
1.88267	138
1.88633	138
1.89000	140
1.89367	143
1.89733	144
1.90100	146
1.90467	147
1.90833	147
1.91200	146
1.91567	147
1.91933	150
1.92300	150
1.92667	150
1.93033	152
1.93400	153
1.93767	153
1.94133	152
1.94500	153
1.94867	153
1.95233	153
1.95600	155
1.95967	156
1.96333	156
1.96700	157
1.97067	159
1.97433	161
1.97800	163
1.98167	164
1.98533	164
1.98900	165
1.99267	168
1.99633	172
2.00000	172
2.00367	174
2.00733	177
2.01100	180
2.01467	182
2.01833	183
2.02200	184
2.02567	183
2.02933	183
2.03300	187
2.03667	191
2.04033	192
2.04400	194
2.04767	196
2.05133	198
2.05500	199
2.05867	199
2.06233	199
2.06600	201
2.06967	202
2.07333	202
2.07700	203
2.08067	205
2.08433	210
2.08800	216
2.09167	219
2.09533	220
2.09900	221
2.10267	223
2.10633	227
2.11000	229
2.11367	231
2.11733	232
2.12100	233
2.12467	233
2.12833	233
2.13200	235
2.13567	238
2.13933	239
2.14300	239
2.14667	240
2.15033	242
2.15400	243
2.15767	244
2.16133	245
2.16500	246
2.16867	247
2.17233	250
2.17600	254
2.17967	257
2.18333	261
2.18700	262
2.19067	262
2.19433	263
2.19800	263
2.20167	266
2.20533	268
2.20900	269
2.21267	272
2.21633	272
2.22000	272
2.22367	274
2.22733	276
2.23100	275
2.23467	275
2.23833	275
2.24200	275
2.24567	275
2.24933	280
2.25300	284
2.25667	287
2.26033	290
2.26400	288
2.26767	286
2.27133	287
2.27500	289
2.27867	291
2.28233	292
2.28600	293
2.28967	296
2.29333	298
2.29700	301
2.30067	305
2.30433	307
2.30800	309
2.31167	310
2.31533	309
2.31900	310
2.32267	313
2.32633	317
2.33000	320
2.33367	322
2.33733	323
2.34100	323
2.34467	326
2.34833	326
2.35200	327
2.35567	328
2.35933	331
2.36300	330
2.36667	329
2.37033	328
2.37400	330
2.37767	333
2.38133	334
2.38500	334
2.38867	333
2.39233	332
2.39600	332
2.39967	334
2.40333	335
2.40700	337
2.41067	340
2.41433	340
2.41800	339
2.42167	341
2.42533	343
2.42900	343
2.43267	344
2.43633	346
2.44000	349
2.44367	352
2.44733	356
2.45100	360
2.45467	362
2.45833	361
2.46200	360
2.46567	358
2.46933	358
2.47300	357
2.47667	354
2.48033	350
2.48400	347
2.48767	341
2.49133	336
2.49500	332
2.49867	327
2.50233	321
2.50600	312
2.50967	304
2.51333	300
2.51700	296
2.52067	288
2.52433	281
2.52800	276
2.53167	270
2.53533	267
2.53900	265
2.54267	261
2.54633	256
2.55000	252
2.55367	247
2.55733	243
2.56100	240
2.56467	235
2.56833	232
2.57200	227
2.57567	223
2.57933	220
2.58300	217
2.58667	214
2.59033	211
2.59400	209
2.59767	209
2.60133	209
2.60500	204
2.60867	192
2.61233	178
2.61600	160
2.61967	134
2.62333	104
2.62700	71
2.63067	37
2.63433	6
2.63800	-21
2.64167	-42
2.64533	-58
2.64900	-69
2.65267	-75
2.65633	-78
2.66000	-79
2.66367	-77
2.66733	-75
2.67100	-69
2.67467	-63
2.67833	-56
2.68200	-50
2.68567	-42
2.68933	-34
2.69300	-26
2.69667	-21
2.70033	-13
2.70400	-4
2.70767	5
2.71133	11
2.71500	18
2.71867	24
2.72233	30
2.72600	34
2.72967	41
2.73333	47
2.73700	53
2.74067	58
2.74433	63
2.74800	69
2.75167	73
2.75533	76
2.75900	78
2.76267	80
2.76633	84
2.77000	88
2.77367	91
2.77733	96
2.78100	100
2.78467	106
2.78833	110
2.79200	113
2.79567	115
2.79933	119
2.80300	121
2.80667	123
2.81033	126
2.81400	131
2.81767	133
2.82133	137
2.82500	138
2.82867	140
2.83233	146
2.83600	162
2.83967	199
2.84333	272
2.84700	400
2.85067	608
2.85433	911
2.85800	1309
2.86167	1785
2.86533	2302
2.86900	2819
2.87267	3289
2.87633	3666
2.88000	3926
2.88367	4061
2.88733	4071
2.89100	3971
2.89467	3785
2.89833	3544
2.90200	3267
2.90567	2974
2.90933	2682
2.91300	2400
2.91667	2135
2.92033	1888
2.92400	1664
2.92767	1468
2.93133	1295
2.93500	1142
2.93867	1005
2.94233	884
2.94600	781
2.94967	691
2.95333	614
2.95700	547
2.96067	488
2.96433	436
2.96800	392
2.97167	356
2.97533	326
2.97900	300
2.98267	276
2.98633	255
2.99000	237
2.99367	222
2.99733	209
3.00100	197
3.00467	185
3.00833	177
3.01200	172
3.01567	168
3.01933	165
3.02300	162
3.02667	159
3.03033	155
3.03400	152
3.03767	151
3.04133	149
3.04500	146
3.04867	142
3.05233	140
3.05600	139
3.05967	139
3.06333	139
3.06700	139
3.07067	137
3.07433	134
3.07800	133
3.08167	133
3.08533	132
3.08900	132
3.09267	134
3.09633	135
3.10000	132
3.10367	129
3.10733	127
3.11100	127
3.11467	127
3.11833	126
3.12200	126
3.12567	125
3.12933	126
3.13300	125
3.13667	126
3.14033	125
3.14400	123
3.14767	121
3.15133	120
3.15500	121
3.15867	123
3.16233	126
3.16600	127
3.16967	126
3.17333	124
3.17700	123
3.18067	122
3.18433	122
3.18800	124
3.19167	125
3.19533	125
3.19900	122
3.20267	117
3.20633	115
3.21000	114
3.21367	114
3.21733	114
3.22100	111
3.22467	107
3.22833	106
3.23200	106
3.23567	107
3.23933	108
3.24300	109
3.24667	109
3.25033	109
3.25400	108
3.25767	107
3.26133	106
3.26500	105
3.26867	104
3.27233	104
3.27600	105
3.27967	106
3.28333	105
3.28700	103
3.29067	100
3.29433	97
3.29800	97
3.30167	99
3.30533	98
3.30900	95
3.31267	90
3.31633	86
3.32000	82
3.32367	79
3.32733	78
3.33100	77
3.33467	76
3.33833	75
3.34200	75
3.34567	72
3.34933	70
3.35300	70
3.35667	71
3.36033	69
3.36400	65
3.36767	63
3.37133	61
3.37500	56
3.37867	52
3.38233	51
3.38600	50
3.38967	47
3.39333	42
3.39700	40
3.40067	37
3.40433	36
3.40800	31
3.41167	8
3.41533	-24
3.41900	-44
3.42267	-46
3.42633	-33
3.43000	-11
3.43367	14
3.43733	39
3.44100	61
3.44467	82
3.44833	102
3.45200	120
3.45567	138
3.45933	155
3.46300	174
3.46667	192
3.47033	207
3.47400	219
3.47767	234
3.48133	247
3.48500	258
3.48867	268
3.49233	279
3.49600	289
3.49967	301
3.50333	311
3.50700	320
3.51067	326
3.51433	332
3.51800	339
3.52167	345
3.52533	351
3.52900	354
3.53267	357
3.53633	358
3.54000	359
3.54367	360
3.54733	359
3.55100	357
3.55467	356
3.55833	357
3.56200	358
3.56567	356
3.56933	353
3.57300	353
3.57667	355
3.58033	355
3.58400	354
3.58767	353
3.59133	350
3.59500	349
3.59867	348
3.60233	346
3.60600	344
3.60967	343
3.61333	342
3.61700	341
3.62067	338
3.62433	336
3.62800	334
3.63167	333
3.63533	329
3.63900	325
3.64267	322
3.64633	319
3.65000	317
3.65367	316
3.65733	316
3.66100	315
3.66467	312
3.66833	310
3.67200	309
3.67567	307
3.67933	302
3.68300	297
3.68667	292
3.69033	289
3.69400	288
3.69767	285
3.70133	280
3.70500	276
3.70867	270
3.71233	264
3.71600	260
3.71967	258
3.72333	254
3.72700	252
3.73067	250
3.73433	246
3.73800	243
3.74167	241
3.74533	242
3.74900	241
3.75267	238
3.75633	234
3.76000	229
3.76367	225
3.76733	224
3.77100	222
3.77467	219
3.77833	215
3.78200	213
3.78567	210
3.78933	208
3.79300	205
3.79667	203
3.80033	200
3.80400	197
3.80767	195
3.81133	192
3.81500	188
3.81867	185
3.82233	183
3.82600	183
3.82967	180
3.83333	178
3.83700	176
3.84067	173
3.84433	170
3.84800	170
3.85167	169
3.85533	168
3.85900	168
3.86267	165
3.86633	163
3.87000	164
3.87367	164
3.87733	165
3.88100	164
3.88467	163
3.88833	161
3.89200	158
3.89567	156
3.89933	155
3.90300	157
3.90667	157
3.91033	157
3.91400	157
3.91767	157
3.92133	157
3.92500	156
3.92867	157
3.93233	156
3.93600	156
3.93967	156
3.94333	156
3.94700	153
3.95067	152
3.95433	152
3.95800	151
3.96167	150
3.96533	151
3.96900	154
3.97267	152
3.97633	152
3.98000	154
3.98367	153
3.98733	152
3.99100	155
3.99467	157
3.99833	160

[Status Trace (Column Oven Temperature)]
Interval(msec)	1000
# of Points	240
Start Time(min)	0.008
End Time(min)	3.992
Intensity Units	
Intensity Multiplier	1
R.Time (min)	Intensity
0.00820	35.06
0.02487	35.07
0.04153	35.06
0.05820	35.05
0.07487	35.04
0.09153	35.04
0.10820	35.04
0.12487	35.02
0.14153	35.01
0.15820	34.99
0.17487	34.97
0.19153	34.97
0.20820	34.97
0.22487	34.97
0.24153	34.97
0.25820	34.98
0.27487	34.98
0.29153	34.99
0.30820	34.98
0.32487	34.97
0.34153	34.98
0.35820	34.97
0.37487	34.96
0.39153	34.96
0.40820	34.96
0.42487	34.96
0.44153	34.98
0.45820	34.99
0.47487	35.00
0.49153	34.99
0.50820	34.99
0.52487	34.99
0.54153	34.99
0.55820	34.99
0.57487	35.00
0.59153	35.02
0.60820	35.03
0.62487	35.04
0.64153	35.03
0.65820	35.03
0.67487	35.02
0.69153	35.00
0.70820	35.00
0.72487	34.98
0.74153	34.98
0.75820	34.97
0.77487	34.97
0.79153	34.97
0.80820	34.96
0.82487	34.98
0.84153	34.98
0.85820	35.00
0.87487	35.00
0.89153	35.01
0.90820	35.03
0.92487	35.03
0.94153	35.01
0.95820	35.00
0.97487	35.00
0.99153	34.98
1.00820	34.97
1.02487	34.98
1.04153	34.99
1.05820	35.01
1.07487	35.01
1.09153	35.01
1.10820	35.01
1.12487	35.02
1.14153	35.04
1.15820	35.03
1.17487	35.03
1.19153	35.03
1.20820	35.03
1.22487	35.01
1.24153	35.00
1.25820	34.99
1.27487	34.98
1.29153	34.99
1.30820	34.98
1.32487	34.98
1.34153	34.98
1.35820	34.97
1.37487	34.97
1.39153	34.98
1.40820	34.97
1.42487	34.98
1.44153	34.99
1.45820	34.98
1.47487	34.98
1.49153	34.98
1.50820	34.99
1.52487	34.99
1.54153	34.99
1.55820	34.98
1.57487	34.97
1.59153	34.98
1.60820	35.05
1.62487	35.17
1.64153	35.36
1.65820	35.60
1.67487	35.94
1.69153	36.32
1.70820	36.67
1.72487	37.01
1.74153	37.33
1.75820	37.67
1.77487	38.01
1.79153	38.33
1.80820	38.67
1.82487	38.98
1.84153	39.31
1.85820	39.65
1.87487	39.99
1.89153	40.30
1.90820	40.65
1.92487	40.99
1.94153	41.30
1.95820	41.63
1.97487	41.96
1.99153	42.29
2.00820	42.63
2.02487	42.95
2.04153	43.27
2.05820	43.58
2.07487	43.90
2.09153	44.22
2.10820	44.55
2.12487	44.89
2.14153	45.22
2.15820	45.53
2.17487	45.87
2.19153	46.19
2.20820	46.52
2.22487	46.86
2.24153	47.18
2.25820	47.50
2.27487	47.82
2.29153	48.14
2.30820	48.48
2.32487	48.81
2.34153	49.17
2.35820	49.44
2.37487	49.58
2.39153	49.63
2.40820	49.62
2.42487	49.63
2.44153	49.64
2.45820	49.65
2.47487	49.68
2.49153	49.68
2.50820	49.72
2.52487	49.71
2.54153	49.74
2.55820	49.74
2.57487	49.78
2.59153	49.80
2.60820	49.80
2.62487	49.83
2.64153	49.84
2.65820	49.84
2.67487	49.85
2.69153	49.85
2.70820	49.86
2.72487	49.87
2.74153	49.87
2.75820	49.87
2.77487	49.86
2.79153	49.86
2.80820	49.86
2.82487	49.86
2.84153	49.88
2.85820	49.89
2.87487	49.90
2.89153	49.92
2.90820	49.95
2.92487	49.97
2.94153	49.98
2.95820	50.00
2.97487	50.00
2.99153	50.01
3.00820	50.02
3.02487	50.03
3.04153	50.04
3.05820	50.05
3.07487	50.07
3.09153	50.08
3.10820	50.08
3.12487	50.08
3.14153	50.09
3.15820	50.10
3.17487	50.11
3.19153	50.11
3.20820	50.10
3.22487	50.08
3.24153	50.07
3.25820	50.06
3.27487	50.05
3.29153	50.04
3.30820	50.03
3.32487	50.02
3.34153	50.00
3.35820	50.00
3.37487	50.00
3.39153	50.01
3.40820	50.01
3.42487	50.01
3.44153	50.01
3.45820	50.02
3.47487	50.03
3.49153	50.04
3.50820	50.05
3.52487	50.05
3.54153	50.04
3.55820	50.05
3.57487	50.05
3.59153	50.05
3.60820	50.06
3.62487	50.06
3.64153	50.05
3.65820	50.06
3.67487	50.06
3.69153	50.07
3.70820	50.08
3.72487	50.07
3.74153	50.07
3.75820	50.08
3.77487	50.08
3.79153	50.08
3.80820	50.10
3.82487	50.10
3.84153	50.10
3.85820	50.09
3.87487	50.08
3.89153	50.07
3.90820	50.06
3.92487	50.05
3.94153	50.05
3.95820	50.04
3.97487	50.05
3.99153	50.05

[Status Trace (Injection Unit Temperature)]
Interval(msec)	1000
# of Points	240
Start Time(min)	0.008
End Time(min)	3.992
Intensity Units	
Intensity Multiplier	1
R.Time (min)	Intensity
0.00820	99.99
0.02487	99.98
0.04153	99.98
0.05820	99.98
0.07487	99.98
0.09153	99.98
0.10820	99.99
0.12487	99.98
0.14153	99.98
0.15820	99.98
0.17487	99.99
0.19153	99.98
0.20820	99.98
0.22487	99.98
0.24153	99.98
0.25820	99.98
0.27487	99.98
0.29153	99.99
0.30820	99.98
0.32487	99.98
0.34153	99.98
0.35820	99.99
0.37487	99.98
0.39153	99.98
0.40820	99.98
0.42487	99.99
0.44153	99.98
0.45820	99.98
0.47487	99.98
0.49153	99.98
0.50820	99.98
0.52487	99.98
0.54153	99.99
0.55820	99.98
0.57487	99.98
0.59153	99.98
0.60820	99.98
0.62487	99.98
0.64153	99.98
0.65820	99.98
0.67487	99.98
0.69153	99.98
0.70820	99.98
0.72487	99.98
0.74153	99.98
0.75820	99.98
0.77487	99.98
0.79153	99.98
0.80820	99.98
0.82487	99.98
0.84153	99.98
0.85820	99.98
0.87487	99.98
0.89153	99.98
0.90820	99.98
0.92487	99.98
0.94153	99.98
0.95820	99.98
0.97487	99.98
0.99153	99.98
1.00820	99.98
1.02487	99.98
1.04153	99.98
1.05820	99.98
1.07487	99.98
1.09153	99.98
1.10820	99.98
1.12487	99.97
1.14153	99.98
1.15820	99.99
1.17487	99.98
1.19153	99.98
1.20820	99.98
1.22487	99.99
1.24153	99.98
1.25820	99.98
1.27487	99.98
1.29153	99.98
1.30820	99.99
1.32487	99.99
1.34153	99.99
1.35820	99.98
1.37487	99.99
1.39153	99.99
1.40820	99.98
1.42487	99.99
1.44153	99.98
1.45820	99.99
1.47487	99.99
1.49153	99.99
1.50820	99.99
1.52487	99.99
1.54153	99.99
1.55820	99.98
1.57487	99.99
1.59153	99.99
1.60820	99.98
1.62487	99.99
1.64153	99.99
1.65820	99.99
1.67487	99.99
1.69153	99.99
1.70820	99.98
1.72487	99.98
1.74153	99.99
1.75820	99.99
1.77487	99.98
1.79153	99.99
1.80820	99.99
1.82487	99.98
1.84153	99.98
1.85820	99.98
1.87487	99.98
1.89153	99.98
1.90820	99.98
1.92487	99.97
1.94153	99.98
1.95820	99.98
1.97487	99.98
1.99153	99.98
2.00820	99.98
2.02487	99.97
2.04153	99.98
2.05820	99.97
2.07487	99.97
2.09153	99.97
2.10820	99.97
2.12487	99.97
2.14153	99.97
2.15820	99.97
2.17487	99.96
2.19153	99.97
2.20820	99.97
2.22487	99.96
2.24153	99.97
2.25820	99.96
2.27487	99.96
2.29153	99.96
2.30820	99.97
2.32487	99.96
2.34153	99.97
2.35820	99.97
2.37487	99.96
2.39153	99.97
2.40820	99.97
2.42487	99.97
2.44153	99.97
2.45820	99.97
2.47487	99.97
2.49153	99.97
2.50820	99.97
2.52487	99.97
2.54153	99.96
2.55820	99.97
2.57487	99.97
2.59153	99.98
2.60820	99.97
2.62487	99.97
2.64153	99.97
2.65820	99.98
2.67487	99.97
2.69153	99.98
2.70820	99.98
2.72487	99.98
2.74153	99.98
2.75820	99.99
2.77487	99.98
2.79153	99.99
2.80820	99.99
2.82487	99.99
2.84153	99.99
2.85820	100.00
2.87487	100.00
2.89153	100.00
2.90820	100.00
2.92487	100.00
2.94153	100.00
2.95820	100.01
2.97487	100.01
2.99153	100.01
3.00820	100.01
3.02487	100.01
3.04153	100.01
3.05820	100.01
3.07487	100.02
3.09153	100.02
3.10820	100.02
3.12487	100.01
3.14153	100.02
3.15820	100.02
3.17487	100.02
3.19153	100.02
3.20820	100.02
3.22487	100.02
3.24153	100.02
3.25820	100.03
3.27487	100.03
3.29153	100.03
3.30820	100.03
3.32487	100.03
3.34153	100.03
3.35820	100.03
3.37487	100.03
3.39153	100.03
3.40820	100.04
3.42487	100.03
3.44153	100.03
3.45820	100.04
3.47487	100.04
3.49153	100.03
3.50820	100.04
3.52487	100.04
3.54153	100.04
3.55820	100.04
3.57487	100.03
3.59153	100.04
3.60820	100.04
3.62487	100.05
3.64153	100.04
3.65820	100.04
3.67487	100.04
3.69153	100.04
3.70820	100.04
3.72487	100.04
3.74153	100.05
3.75820	100.05
3.77487	100.05
3.79153	100.05
3.80820	100.05
3.82487	100.04
3.84153	100.04
3.85820	100.05
3.87487	100.05
3.89153	100.05
3.90820	100.05
3.92487	100.05
3.94153	100.05
3.95820	100.05
3.97487	100.05
3.99153	100.05

[Status Trace (Carrier Gas Pressure)]
Interval(msec)	1000
# of Points	240
Start Time(min)	0.008
End Time(min)	3.992
Intensity Units	
Intensity Multiplier	1
R.Time (min)	Intensity
0.00820	58.00
0.02487	55.38
0.04153	57.12
0.05820	59.15
0.07487	59.50
0.09153	58.07
0.10820	57.98
0.12487	58.01
0.14153	58.01
0.15820	58.01
0.17487	58.00
0.19153	58.00
0.20820	58.00
0.22487	58.00
0.24153	58.00
0.25820	58.00
0.27487	58.00
0.29153	58.00
0.30820	58.00
0.32487	58.00
0.34153	58.00
0.35820	58.00
0.37487	58.00
0.39153	58.00
0.40820	58.00
0.42487	58.00
0.44153	58.00
0.45820	58.00
0.47487	58.00
0.49153	58.00
0.50820	58.00
0.52487	58.00
0.54153	58.00
0.55820	58.00
0.57487	58.00
0.59153	58.00
0.60820	58.00
0.62487	58.00
0.64153	58.00
0.65820	58.00
0.67487	58.00
0.69153	58.00
0.70820	58.00
0.72487	58.00
0.74153	58.00
0.75820	58.00
0.77487	58.00
0.79153	58.00
0.80820	58.00
0.82487	58.00
0.84153	58.00
0.85820	58.00
0.87487	58.00
0.89153	58.00
0.90820	58.00
0.92487	58.00
0.94153	58.00
0.95820	58.00
0.97487	58.00
0.99153	58.00
1.00820	58.00
1.02487	58.00
1.04153	58.00
1.05820	58.00
1.07487	58.00
1.09153	58.00
1.10820	58.00
1.12487	58.00
1.14153	58.00
1.15820	58.00
1.17487	58.00
1.19153	58.00
1.20820	58.00
1.22487	58.00
1.24153	58.00
1.25820	58.00
1.27487	58.00
1.29153	58.00
1.30820	58.00
1.32487	58.00
1.34153	58.00
1.35820	58.00
1.37487	58.00
1.39153	58.00
1.40820	58.00
1.42487	58.00
1.44153	58.00
1.45820	58.00
1.47487	58.00
1.49153	58.00
1.50820	58.00
1.52487	58.00
1.54153	58.00
1.55820	58.00
1.57487	58.00
1.59153	58.00
1.60820	58.00
1.62487	58.00
1.64153	58.00
1.65820	58.00
1.67487	58.01
1.69153	58.01
1.70820	58.00
1.72487	58.00
1.74153	58.00
1.75820	58.00
1.77487	58.00
1.79153	58.00
1.80820	58.00
1.82487	58.00
1.84153	58.00
1.85820	58.00
1.87487	58.00
1.89153	58.00
1.90820	58.00
1.92487	58.00
1.94153	58.00
1.95820	58.00
1.97487	58.00
1.99153	58.00
2.00820	58.00
2.02487	58.00
2.04153	58.00
2.05820	58.00
2.07487	58.00
2.09153	58.00
2.10820	58.00
2.12487	58.00
2.14153	58.00
2.15820	58.00
2.17487	58.00
2.19153	58.00
2.20820	58.00
2.22487	58.00
2.24153	58.00
2.25820	58.00
2.27487	58.00
2.29153	58.00
2.30820	58.00
2.32487	58.00
2.34153	58.00
2.35820	58.00
2.37487	57.99
2.39153	57.99
2.40820	57.99
2.42487	58.00
2.44153	58.00
2.45820	58.00
2.47487	58.00
2.49153	58.00
2.50820	58.00
2.52487	57.98
2.54153	58.00
2.55820	58.00
2.57487	58.00
2.59153	58.00
2.60820	58.00
2.62487	58.00
2.64153	58.00
2.65820	58.00
2.67487	58.00
2.69153	58.00
2.70820	58.00
2.72487	58.00
2.74153	58.00
2.75820	58.00
2.77487	58.00
2.79153	58.00
2.80820	58.00
2.82487	58.00
2.84153	58.00
2.85820	58.00
2.87487	58.00
2.89153	58.00
2.90820	58.00
2.92487	58.00
2.94153	58.00
2.95820	58.00
2.97487	58.00
2.99153	58.00
3.00820	58.00
3.02487	58.00
3.04153	58.00
3.05820	58.00
3.07487	58.00
3.09153	58.00
3.10820	58.00
3.12487	58.00
3.14153	58.00
3.15820	58.00
3.17487	58.00
3.19153	58.00
3.20820	58.00
3.22487	58.00
3.24153	58.00
3.25820	58.00
3.27487	58.00
3.29153	58.00
3.30820	58.00
3.32487	58.00
3.34153	58.00
3.35820	58.00
3.37487	58.00
3.39153	58.00
3.40820	58.00
3.42487	58.00
3.44153	58.00
3.45820	58.00
3.47487	58.00
3.49153	58.00
3.50820	58.00
3.52487	58.00
3.54153	58.00
3.55820	58.00
3.57487	58.00
3.59153	58.00
3.60820	58.00
3.62487	58.00
3.64153	58.00
3.65820	58.00
3.67487	58.00
3.69153	58.00
3.70820	58.00
3.72487	58.00
3.74153	58.00
3.75820	58.00
3.77487	58.00
3.79153	58.00
3.80820	58.00
3.82487	58.00
3.84153	58.00
3.85820	58.00
3.87487	58.00
3.89153	58.00
3.90820	58.00
3.92487	58.00
3.94153	58.00
3.95820	58.00
3.97487	58.00
3.99153	58.00

[Status Trace (Carrier Gas Flow)]
Interval(msec)	1000
# of Points	240
Start Time(min)	0.008
End Time(min)	3.992
Intensity Units	
Intensity Multiplier	1
R.Time (min)	Intensity
0.00820	34.52
0.02487	34.52
0.04153	34.53
0.05820	34.54
0.07487	34.50
0.09153	34.51
0.10820	34.52
0.12487	34.52
0.14153	34.52
0.15820	34.52
0.17487	34.52
0.19153	34.52
0.20820	34.52
0.22487	34.52
0.24153	34.52
0.25820	34.52
0.27487	34.52
0.29153	34.52
0.30820	34.52
0.32487	34.52
0.34153	34.52
0.35820	34.52
0.37487	34.52
0.39153	34.52
0.40820	34.52
0.42487	34.52
0.44153	34.52
0.45820	34.52
0.47487	34.52
0.49153	34.52
0.50820	34.52
0.52487	34.52
0.54153	34.52
0.55820	34.52
0.57487	34.52
0.59153	34.52
0.60820	34.52
0.62487	34.52
0.64153	34.52
0.65820	34.52
0.67487	34.52
0.69153	34.52
0.70820	34.52
0.72487	34.52
0.74153	34.52
0.75820	34.52
0.77487	34.52
0.79153	34.52
0.80820	34.52
0.82487	34.52
0.84153	34.52
0.85820	34.52
0.87487	34.52
0.89153	34.52
0.90820	34.52
0.92487	34.52
0.94153	34.52
0.95820	34.52
0.97487	34.52
0.99153	34.51
1.00820	34.52
1.02487	34.52
1.04153	34.52
1.05820	34.52
1.07487	34.52
1.09153	34.52
1.10820	34.52
1.12487	34.52
1.14153	34.52
1.15820	34.52
1.17487	34.52
1.19153	34.52
1.20820	34.52
1.22487	34.52
1.24153	34.52
1.25820	34.52
1.27487	34.52
1.29153	34.52
1.30820	34.52
1.32487	34.52
1.34153	34.52
1.35820	34.52
1.37487	34.52
1.39153	34.52
1.40820	34.52
1.42487	34.52
1.44153	34.51
1.45820	34.52
1.47487	34.52
1.49153	34.52
1.50820	34.52
1.52487	34.52
1.54153	34.52
1.55820	34.51
1.57487	34.52
1.59153	34.52
1.60820	34.51
1.62487	34.52
1.64153	34.52
1.65820	34.52
1.67487	34.52
1.69153	34.52
1.70820	34.50
1.72487	34.52
1.74153	34.52
1.75820	34.53
1.77487	34.52
1.79153	34.52
1.80820	34.52
1.82487	34.51
1.84153	34.52
1.85820	34.52
1.87487	34.51
1.89153	34.52
1.90820	34.52
1.92487	34.52
1.94153	34.52
1.95820	34.52
1.97487	34.52
1.99153	34.52
2.00820	34.52
2.02487	34.52
2.04153	34.53
2.05820	34.52
2.07487	34.54
2.09153	34.52
2.10820	34.52
2.12487	34.52
2.14153	34.53
2.15820	34.52
2.17487	34.52
2.19153	34.52
2.20820	34.52
2.22487	34.52
2.24153	34.51
2.25820	34.52
2.27487	34.52
2.29153	34.52
2.30820	34.51
2.32487	34.54
2.34153	34.52
2.35820	34.52
2.37487	34.52
2.39153	34.52
2.40820	34.52
2.42487	34.52
2.44153	34.52
2.45820	34.52
2.47487	34.52
2.49153	34.52
2.50820	34.35
2.52487	34.53
2.54153	34.52
2.55820	34.52
2.57487	34.51
2.59153	34.52
2.60820	34.52
2.62487	34.52
2.64153	34.52
2.65820	34.52
2.67487	34.52
2.69153	34.52
2.70820	34.52
2.72487	34.50
2.74153	34.52
2.75820	34.52
2.77487	34.51
2.79153	34.52
2.80820	34.52
2.82487	34.52
2.84153	34.52
2.85820	34.52
2.87487	34.52
2.89153	34.52
2.90820	34.52
2.92487	34.52
2.94153	34.52
2.95820	34.51
2.97487	34.52
2.99153	34.52
3.00820	34.52
3.02487	34.52
3.04153	34.53
3.05820	34.52
3.07487	34.52
3.09153	34.52
3.10820	34.52
3.12487	34.52
3.14153	34.52
3.15820	34.52
3.17487	34.52
3.19153	34.52
3.20820	34.52
3.22487	34.52
3.24153	34.52
3.25820	34.52
3.27487	34.52
3.29153	34.52
3.30820	34.52
3.32487	34.52
3.34153	34.52
3.35820	34.52
3.37487	34.52
3.39153	34.52
3.40820	34.52
3.42487	34.52
3.44153	34.52
3.45820	34.52
3.47487	34.52
3.49153	34.52
3.50820	34.52
3.52487	34.52
3.54153	34.52
3.55820	34.52
3.57487	34.52
3.59153	34.52
3.60820	34.52
3.62487	34.52
3.64153	34.52
3.65820	34.52
3.67487	34.52
3.69153	34.52
3.70820	34.52
3.72487	34.52
3.74153	34.52
3.75820	34.52
3.77487	34.52
3.79153	34.52
3.80820	34.52
3.82487	34.52
3.84153	34.52
3.85820	34.52
3.87487	34.52
3.89153	34.52
3.90820	34.52
3.92487	34.52
3.94153	34.52
3.95820	34.52
3.97487	34.52
3.99153	34.52

[Status Trace (Column Flow)]
Interval(msec)	1000
# of Points	240
Start Time(min)	0.008
End Time(min)	3.992
Intensity Units	
Intensity Multiplier	1
R.Time (min)	Intensity
0.00820	5.50
0.02487	5.19
0.04153	5.39
0.05820	5.63
0.07487	5.67
0.09153	5.51
0.10820	5.49
0.12487	5.50
0.14153	5.50
0.15820	5.50
0.17487	5.50
0.19153	5.50
0.20820	5.50
0.22487	5.50
0.24153	5.50
0.25820	5.50
0.27487	5.50
0.29153	5.50
0.30820	5.50
0.32487	5.50
0.34153	5.50
0.35820	5.50
0.37487	5.50
0.39153	5.50
0.40820	5.50
0.42487	5.50
0.44153	5.50
0.45820	5.50
0.47487	5.50
0.49153	5.50
0.50820	5.50
0.52487	5.50
0.54153	5.50
0.55820	5.50
0.57487	5.50
0.59153	5.50
0.60820	5.50
0.62487	5.50
0.64153	5.50
0.65820	5.50
0.67487	5.50
0.69153	5.50
0.70820	5.50
0.72487	5.50
0.74153	5.50
0.75820	5.50
0.77487	5.50
0.79153	5.50
0.80820	5.50
0.82487	5.50
0.84153	5.50
0.85820	5.50
0.87487	5.50
0.89153	5.50
0.90820	5.50
0.92487	5.50
0.94153	5.50
0.95820	5.50
0.97487	5.50
0.99153	5.50
1.00820	5.50
1.02487	5.50
1.04153	5.50
1.05820	5.50
1.07487	5.50
1.09153	5.50
1.10820	5.50
1.12487	5.50
1.14153	5.50
1.15820	5.50
1.17487	5.50
1.19153	5.50
1.20820	5.50
1.22487	5.50
1.24153	5.50
1.25820	5.50
1.27487	5.50
1.29153	5.50
1.30820	5.50
1.32487	5.50
1.34153	5.50
1.35820	5.50
1.37487	5.50
1.39153	5.50
1.40820	5.50
1.42487	5.50
1.44153	5.50
1.45820	5.50
1.47487	5.50
1.49153	5.50
1.50820	5.50
1.52487	5.50
1.54153	5.50
1.55820	5.50
1.57487	5.50
1.59153	5.50
1.60820	5.50
1.62487	5.49
1.64153	5.49
1.65820	5.48
1.67487	5.47
1.69153	5.46
1.70820	5.45
1.72487	5.44
1.74153	5.43
1.75820	5.42
1.77487	5.41
1.79153	5.40
1.80820	5.39
1.82487	5.38
1.84153	5.37
1.85820	5.36
1.87487	5.35
1.89153	5.34
1.90820	5.33
1.92487	5.32
1.94153	5.31
1.95820	5.30
1.97487	5.29
1.99153	5.28
2.00820	5.27
2.02487	5.26
2.04153	5.25
2.05820	5.24
2.07487	5.23
2.09153	5.22
2.10820	5.21
2.12487	5.20
2.14153	5.19
2.15820	5.18
2.17487	5.17
2.19153	5.16
2.20820	5.15
2.22487	5.15
2.24153	5.14
2.25820	5.13
2.27487	5.12
2.29153	5.11
2.30820	5.10
2.32487	5.09
2.34153	5.08
2.35820	5.07
2.37487	5.07
2.39153	5.07
2.40820	5.07
2.42487	5.07
2.44153	5.07
2.45820	5.07
2.47487	5.07
2.49153	5.07
2.50820	5.07
2.52487	5.06
2.54153	5.06
2.55820	5.06
2.57487	5.06
2.59153	5.06
2.60820	5.06
2.62487	5.06
2.64153	5.06
2.65820	5.06
2.67487	5.06
2.69153	5.06
2.70820	5.06
2.72487	5.06
2.74153	5.06
2.75820	5.06
2.77487	5.06
2.79153	5.06
2.80820	5.06
2.82487	5.06
2.84153	5.06
2.85820	5.06
2.87487	5.06
2.89153	5.06
2.90820	5.06
2.92487	5.06
2.94153	5.06
2.95820	5.06
2.97487	5.06
2.99153	5.06
3.00820	5.06
3.02487	5.06
3.04153	5.06
3.05820	5.06
3.07487	5.06
3.09153	5.06
3.10820	5.06
3.12487	5.06
3.14153	5.06
3.15820	5.05
3.17487	5.05
3.19153	5.05
3.20820	5.05
3.22487	5.06
3.24153	5.06
3.25820	5.06
3.27487	5.06
3.29153	5.06
3.30820	5.06
3.32487	5.06
3.34153	5.06
3.35820	5.06
3.37487	5.06
3.39153	5.06
3.40820	5.06
3.42487	5.06
3.44153	5.06
3.45820	5.06
3.47487	5.06
3.49153	5.06
3.50820	5.06
3.52487	5.06
3.54153	5.06
3.55820	5.06
3.57487	5.06
3.59153	5.06
3.60820	5.06
3.62487	5.06
3.64153	5.06
3.65820	5.06
3.67487	5.06
3.69153	5.06
3.70820	5.06
3.72487	5.06
3.74153	5.06
3.75820	5.06
3.77487	5.06
3.79153	5.06
3.80820	5.06
3.82487	5.06
3.84153	5.05
3.85820	5.05
3.87487	5.06
3.89153	5.06
3.90820	5.06
3.92487	5.06
3.94153	5.06
3.95820	5.06
3.97487	5.06
3.99153	5.06

[Status Trace (Linear Velocity)]
Interval(msec)	1000
# of Points	240
Start Time(min)	0.008
End Time(min)	3.992
Intensity Units	
Intensity Multiplier	1
R.Time (min)	Intensity
0.00820	39.01
0.02487	37.28
0.04153	38.43
0.05820	39.76
0.07487	39.99
0.09153	39.05
0.10820	38.99
0.12487	39.01
0.14153	39.02
0.15820	39.02
0.17487	39.02
0.19153	39.02
0.20820	39.02
0.22487	39.02
0.24153	39.01
0.25820	39.01
0.27487	39.01
0.29153	39.01
0.30820	39.01
0.32487	39.02
0.34153	39.01
0.35820	39.01
0.37487	39.02
0.39153	39.01
0.40820	39.02
0.42487	39.02
0.44153	39.01
0.45820	39.01
0.47487	39.01
0.49153	39.01
0.50820	39.01
0.52487	39.01
0.54153	39.01
0.55820	39.01
0.57487	39.01
0.59153	39.01
0.60820	39.01
0.62487	39.01
0.64153	39.01
0.65820	39.01
0.67487	39.01
0.69153	39.01
0.70820	39.01
0.72487	39.01
0.74153	39.01
0.75820	39.01
0.77487	39.01
0.79153	39.02
0.80820	39.01
0.82487	39.01
0.84153	39.01
0.85820	39.01
0.87487	39.01
0.89153	39.01
0.90820	39.01
0.92487	39.01
0.94153	39.01
0.95820	39.01
0.97487	39.01
0.99153	39.01
1.00820	39.01
1.02487	39.01
1.04153	39.01
1.05820	39.01
1.07487	39.01
1.09153	39.01
1.10820	39.01
1.12487	39.01
1.14153	39.01
1.15820	39.01
1.17487	39.01
1.19153	39.01
1.20820	39.01
1.22487	39.01
1.24153	39.01
1.25820	39.01
1.27487	39.01
1.29153	39.01
1.30820	39.01
1.32487	39.01
1.34153	39.01
1.35820	39.01
1.37487	39.01
1.39153	39.01
1.40820	39.01
1.42487	39.01
1.44153	39.01
1.45820	39.01
1.47487	39.01
1.49153	39.01
1.50820	39.01
1.52487	39.01
1.54153	39.01
1.55820	39.01
1.57487	39.01
1.59153	39.01
1.60820	39.01
1.62487	39.00
1.64153	38.98
1.65820	38.96
1.67487	38.92
1.69153	38.89
1.70820	38.85
1.72487	38.82
1.74153	38.79
1.75820	38.76
1.77487	38.72
1.79153	38.69
1.80820	38.66
1.82487	38.63
1.84153	38.60
1.85820	38.57
1.87487	38.54
1.89153	38.51
1.90820	38.48
1.92487	38.44
1.94153	38.42
1.95820	38.38
1.97487	38.35
1.99153	38.32
2.00820	38.29
2.02487	38.26
2.04153	38.23
2.05820	38.20
2.07487	38.18
2.09153	38.15
2.10820	38.12
2.12487	38.09
2.14153	38.06
2.15820	38.03
2.17487	38.00
2.19153	37.97
2.20820	37.94
2.22487	37.91
2.24153	37.88
2.25820	37.85
2.27487	37.82
2.29153	37.79
2.30820	37.76
2.32487	37.73
2.34153	37.70
2.35820	37.67
2.37487	37.66
2.39153	37.66
2.40820	37.66
2.42487	37.66
2.44153	37.66
2.45820	37.66
2.47487	37.65
2.49153	37.65
2.50820	37.65
2.52487	37.64
2.54153	37.65
2.55820	37.65
2.57487	37.65
2.59153	37.64
2.60820	37.64
2.62487	37.64
2.64153	37.64
2.65820	37.64
2.67487	37.64
2.69153	37.64
2.70820	37.64
2.72487	37.64
2.74153	37.64
2.75820	37.64
2.77487	37.64
2.79153	37.64
2.80820	37.64
2.82487	37.64
2.84153	37.64
2.85820	37.64
2.87487	37.64
2.89153	37.63
2.90820	37.63
2.92487	37.63
2.94153	37.63
2.95820	37.63
2.97487	37.63
2.99153	37.63
3.00820	37.63
3.02487	37.62
3.04153	37.62
3.05820	37.62
3.07487	37.62
3.09153	37.62
3.10820	37.62
3.12487	37.62
3.14153	37.62
3.15820	37.62
3.17487	37.62
3.19153	37.62
3.20820	37.62
3.22487	37.62
3.24153	37.62
3.25820	37.62
3.27487	37.62
3.29153	37.62
3.30820	37.63
3.32487	37.63
3.34153	37.63
3.35820	37.63
3.37487	37.63
3.39153	37.63
3.40820	37.63
3.42487	37.63
3.44153	37.63
3.45820	37.63
3.47487	37.62
3.49153	37.62
3.50820	37.62
3.52487	37.62
3.54153	37.62
3.55820	37.62
3.57487	37.62
3.59153	37.62
3.60820	37.62
3.62487	37.62
3.64153	37.62
3.65820	37.62
3.67487	37.62
3.69153	37.62
3.70820	37.62
3.72487	37.62
3.74153	37.62
3.75820	37.62
3.77487	37.62
3.79153	37.62
3.80820	37.62
3.82487	37.62
3.84153	37.62
3.85820	37.62
3.87487	37.62
3.89153	37.62
3.90820	37.62
3.92487	37.62
3.94153	37.62
3.95820	37.62
3.97487	37.62
3.99153	37.62

