[Header]
Application Name	LabSolutions
Version	5.110
Data File Name	C:\Users\User\Desktop\GC Analyses\Jack\UIC Prairie Sampling\7.9.22\220909_004.gcd
Output Date	9/28/2022
Output Time	11:29:49 AM

[File Information]
Type	Data File
Generated	9/9/2022 12:15:08 PM
Generated by	System Administrator
Modified	9/9/2022 12:19:36 PM
Modified by	System Administrator

[Sample Information]
Operator Name	System Administrator
Acquired	9/9/2022 12:15:36 PM
Sample Type	1:Standard
Level	1
Sample Name	220909_Run
Sample ID	220909_Run
ISTD Amount1	1
ISTD Amount2	1
ISTD Amount3	1
ISTD Amount4	1
ISTD Amount5	1
ISTD Amount6	1
ISTD Amount7	1
ISTD Amount8	1
ISTD Amount9	1
ISTD Amount10	1
ISTD Amount11	1
ISTD Amount12	1
ISTD Amount13	1
ISTD Amount14	1
ISTD Amount15	1
ISTD Amount16	1
ISTD Amount17	1
ISTD Amount18	1
ISTD Amount19	1
ISTD Amount20	1
ISTD Amount21	1
ISTD Amount22	1
ISTD Amount23	1
ISTD Amount24	1
ISTD Amount25	1
ISTD Amount26	1
ISTD Amount27	1
ISTD Amount28	1
ISTD Amount29	1
ISTD Amount30	1
ISTD Amount31	1
ISTD Amount32	1
Sample Amount	1
Dilution Factor	1
Vial#	1
Injection Volume	1
Injection Count	1
Bar Code	

[Original Files]
Data File	C:\Users\User\Desktop\GC Analyses\Jack\220909\220909_004.gcd
Method File	C:\LabSolutions\Data\GHG_4min_2022\ghg3_togas_w_acet_4 min_new_int.gcm
Batch File	
Report Format File	c:\LabSolutions\System\DEFAULT.lsr

[File Description]


[Configuration]
Instrument Name	C0B7VH3-Instrument1
Instrument #	1
Line #	1
# of Detectors	3
Detector ID	DET#1	DET#2	DET#3
Detector Name	FID	PTCD	ECD
# of Channels	1	1	1

[Peak Table(Ch1)]
# of Peaks	3
Peak#	R.Time	I.Time	F.Time	Area	Height	A/H	Conc.	Mark	ID#	Name	k'	Plate #	Plate Ht.	Tailing	Resolution	Sep.Factor	Area Ratio	Height Ratio	Conc. %	Norm Conc.
1	1.479	1.446	1.534	3231	1745	1.852	100.000	   	1	CO	0.000	11232	13.354	1.525	0.000	0.000	0	0	16.667	16.667
2	1.575	1.556	1.608	1665	1243	1.339	100.000	   	2	CH4	0.064	23259	6.449	1.390	1.963	0.000	0	0	16.667	16.667
3	2.004	1.960	2.158	258085	155188	1.663	400.000	   	3	CO2	0.354	26163	5.733	1.380	9.444	5.500	0	0	66.667	66.667

[Peak Table(Ch2)]
# of Peaks	0

[Peak Table(Ch3)]
# of Peaks	3
Peak#	R.Time	I.Time	F.Time	Area	Height	A/H	Conc.	Mark	ID#	Name	k'	Plate #	Plate Ht.	Tailing	Resolution	Sep.Factor	Area Ratio	Height Ratio	Conc. %	Norm Conc.
1	2.433	1.542	2.671	10102	371	27.259	0.000	   			0.000	137	1098.194	0.635	0.000	0.000	0	0	0.000	0.000
2	2.884	2.836	3.005	8004	2413	3.316	1.000	   	1	N2O	0.185	16293	9.207	1.593	0.977	0.000	0	0	50.000	50.000
3	3.456	3.298	3.936	9359	420	22.296	1.000	   	2	SF6	0.421	451	332.815	2.019	1.543	2.268	0	0	50.000	50.000

[Compound Results(Ch1)]
# of IDs	6
ID#	Name	R.Time	Area	Height	Conc.	Curve	3rd	2nd	1st	Constant	Area Ratio	Height Ratio	Conc. %	Norm Conc.
1	CO	1.479	3231	1745	100.000	Linear	0.000000e+00	0.000000e+00	3.230769e+001	0.000000e+00	0	0	16.667	16.667
2	CH4	1.575	1665	1243	100.000	Linear	0.000000e+00	0.000000e+00	1.664897e+001	0.000000e+00	0	0	16.667	16.667
3	CO2	2.004	258085	155188	400.000	Linear	0.000000e+00	0.000000e+00	6.452115e+002	0.000000e+00	0	0	66.667	66.667
4	Ethylene	0.000	0	0	0.000	Linear	0.000000e+00	0.000000e+00	0.000000e+00	0.000000e+00	0	0	0.000	0.000
5	Acetylene	0.000	0	0	0.000	Linear	0.000000e+00	0.000000e+00	0.000000e+00	0.000000e+00	0	0	0.000	0.000
6	Ethane	0.000	0	0	0.000	Linear	0.000000e+00	0.000000e+00	0.000000e+00	0.000000e+00	0	0	0.000	0.000

[Compound Results(Ch2)]
# of IDs	5
ID#	Name	R.Time	Area	Height	Conc.	Curve	3rd	2nd	1st	Constant	Area Ratio	Height Ratio	Conc. %	Norm Conc.
1	Hydrogen	0.000	0	0	0.000	Linear	0.000000e+00	0.000000e+00	0.000000e+00	0.000000e+00	0	0	0.000	0.000
2	Oxygen	0.000	0	0	0.000	Linear	0.000000e+00	0.000000e+00	0.000000e+00	0.000000e+00	0	0	0.000	0.000
3	Nitrogen	0.000	0	0	0.000	Linear	0.000000e+00	0.000000e+00	0.000000e+00	0.000000e+00	0	0	0.000	0.000
4	Methane	0.000	0	0	0.000	Linear	0.000000e+00	0.000000e+00	0.000000e+00	0.000000e+00	0	0	0.000	0.000
5	Carbon Monoxide	0.000	0	0	0.000	Linear	0.000000e+00	0.000000e+00	0.000000e+00	0.000000e+00	0	0	0.000	0.000

[Compound Results(Ch3)]
# of IDs	2
ID#	Name	R.Time	Area	Height	Conc.	Curve	3rd	2nd	1st	Constant	Area Ratio	Height Ratio	Conc. %	Norm Conc.
1	N2O	2.884	8004	2413	1.000	Linear	0.000000e+00	0.000000e+00	8.003866e+003	0.000000e+00	0	0	50.000	50.000
2	SF6	3.456	9359	420	1.000	Linear	0.000000e+00	0.000000e+00	9.359424e+003	0.000000e+00	0	0	50.000	50.000

[Group Results(Ch1)]
# of Groups	0

[Group Results(Ch2)]
# of Groups	0

[Group Results(Ch3)]
# of Groups	0

[Chromatogram (Ch1)]
Interval(msec)	220
# of Points	1091
Start Time(min)	0.002
End Time(min)	3.998
R.Time (min)	Intensity
0.00167	0
0.00533	-7
0.00900	-12
0.01267	-15
0.01633	-13
0.02000	-12
0.02367	-15
0.02733	-25
0.03100	-37
0.03467	-44
0.03833	-47
0.04200	-46
0.04567	-39
0.04933	-29
0.05300	-20
0.05667	-13
0.06033	-11
0.06400	-10
0.06767	-11
0.07133	-16
0.07500	-16
0.07867	-13
0.08233	-8
0.08600	-4
0.08967	-2
0.09333	-0
0.09700	-0
0.10067	-1
0.10433	-0
0.10800	0
0.11167	-3
0.11533	-7
0.11900	-12
0.12267	-19
0.12633	-25
0.13000	-29
0.13367	-33
0.13733	-34
0.14100	-33
0.14467	-29
0.14833	-21
0.15200	-13
0.15567	-8
0.15933	-9
0.16300	-13
0.16667	-17
0.17033	-19
0.17400	-19
0.17767	-18
0.18133	-20
0.18500	-24
0.18867	-28
0.19233	-33
0.19600	-36
0.19967	-39
0.20333	-39
0.20700	-35
0.21067	-30
0.21433	-25
0.21800	-21
0.22167	-20
0.22533	-23
0.22900	-25
0.23267	-26
0.23633	-28
0.24000	-31
0.24367	-31
0.24733	-28
0.25100	-24
0.25467	-24
0.25833	-28
0.26200	-35
0.26567	-40
0.26933	-40
0.27300	-39
0.27667	-42
0.28033	-46
0.28400	-50
0.28767	-53
0.29133	-56
0.29500	-59
0.29867	-56
0.30233	-49
0.30600	-40
0.30967	-33
0.31333	-28
0.31700	-24
0.32067	-23
0.32433	-26
0.32800	-29
0.33167	-30
0.33533	-35
0.33900	-42
0.34267	-45
0.34633	-45
0.35000	-42
0.35367	-40
0.35733	-38
0.36100	-36
0.36467	-33
0.36833	-28
0.37200	-26
0.37567	-31
0.37933	-38
0.38300	-42
0.38667	-45
0.39033	-46
0.39400	-42
0.39767	-37
0.40133	-35
0.40500	-36
0.40867	-38
0.41233	-40
0.41600	-38
0.41967	-34
0.42333	-32
0.42700	-34
0.43067	-37
0.43433	-38
0.43800	-38
0.44167	-41
0.44533	-46
0.44900	-49
0.45267	-47
0.45633	-40
0.46000	-31
0.46367	-25
0.46733	-24
0.47100	-28
0.47467	-37
0.47833	-44
0.48200	-47
0.48567	-45
0.48933	-42
0.49300	-39
0.49667	-39
0.50033	-41
0.50400	-45
0.50767	-51
0.51133	-55
0.51500	-55
0.51867	-55
0.52233	-58
0.52600	-63
0.52967	-65
0.53333	-64
0.53700	-66
0.54067	-68
0.54433	-70
0.54800	-68
0.55167	-65
0.55533	-62
0.55900	-58
0.56267	-55
0.56633	-53
0.57000	-52
0.57367	-49
0.57733	-49
0.58100	-51
0.58467	-50
0.58833	-49
0.59200	-49
0.59567	-48
0.59933	-47
0.60300	-49
0.60667	-55
0.61033	-63
0.61400	-68
0.61767	-71
0.62133	-71
0.62500	-66
0.62867	-57
0.63233	-53
0.63600	-48
0.63967	-42
0.64333	-41
0.64700	-42
0.65067	-44
0.65433	-45
0.65800	-43
0.66167	-43
0.66533	-45
0.66900	-50
0.67267	-55
0.67633	-62
0.68000	-67
0.68367	-69
0.68733	-70
0.69100	-72
0.69467	-73
0.69833	-75
0.70200	-77
0.70567	-74
0.70933	-70
0.71300	-68
0.71667	-66
0.72033	-62
0.72400	-58
0.72767	-53
0.73133	-51
0.73500	-53
0.73867	-59
0.74233	-64
0.74600	-64
0.74967	-60
0.75333	-55
0.75700	-48
0.76067	-42
0.76433	-37
0.76800	-37
0.77167	-42
0.77533	-49
0.77900	-56
0.78267	-61
0.78633	-68
0.79000	-74
0.79367	-77
0.79733	-78
0.80100	-74
0.80467	-68
0.80833	-62
0.81200	-60
0.81567	-60
0.81933	-62
0.82300	-67
0.82667	-73
0.83033	-77
0.83400	-81
0.83767	-85
0.84133	-86
0.84500	-83
0.84867	-79
0.85233	-75
0.85600	-71
0.85967	-70
0.86333	-72
0.86700	-75
0.87067	-76
0.87433	-73
0.87800	-70
0.88167	-70
0.88533	-73
0.88900	-80
0.89267	-87
0.89633	-93
0.90000	-93
0.90367	-90
0.90733	-86
0.91100	-80
0.91467	-74
0.91833	-67
0.92200	-62
0.92567	-62
0.92933	-66
0.93300	-71
0.93667	-75
0.94033	-76
0.94400	-74
0.94767	-71
0.95133	-69
0.95500	-71
0.95867	-79
0.96233	-88
0.96600	-92
0.96967	-92
0.97333	-90
0.97700	-87
0.98067	-83
0.98433	-79
0.98800	-76
0.99167	-73
0.99533	-70
0.99900	-71
1.00267	-74
1.00633	-81
1.01000	-92
1.01367	-101
1.01733	-104
1.02100	-100
1.02467	-91
1.02833	-81
1.03200	-76
1.03567	-74
1.03933	-73
1.04300	-73
1.04667	-73
1.05033	-69
1.05400	-68
1.05767	-72
1.06133	-81
1.06500	-89
1.06867	-94
1.07233	-94
1.07600	-91
1.07967	-89
1.08333	-89
1.08700	-89
1.09067	-90
1.09433	-92
1.09800	-91
1.10167	-90
1.10533	-91
1.10900	-91
1.11267	-90
1.11633	-84
1.12000	-74
1.12367	-65
1.12733	-61
1.13100	-66
1.13467	-74
1.13833	-78
1.14200	-80
1.14567	-81
1.14933	-84
1.15300	-91
1.15667	-99
1.16033	-106
1.16400	-105
1.16767	-95
1.17133	-84
1.17500	-75
1.17867	-69
1.18233	-67
1.18600	-69
1.18967	-75
1.19333	-82
1.19700	-87
1.20067	-89
1.20433	-90
1.20800	-94
1.21167	-100
1.21533	-105
1.21900	-105
1.22267	-103
1.22633	-102
1.23000	-101
1.23367	-103
1.23733	-102
1.24100	-98
1.24467	-91
1.24833	-83
1.25200	-80
1.25567	-79
1.25933	-80
1.26300	-85
1.26667	-91
1.27033	-94
1.27400	-95
1.27767	-95
1.28133	-95
1.28500	-95
1.28867	-96
1.29233	-96
1.29600	-97
1.29967	-92
1.30333	-87
1.30700	-84
1.31067	-85
1.31433	-92
1.31800	-100
1.32167	-104
1.32533	-108
1.32900	-107
1.33267	-105
1.33633	-103
1.34000	-101
1.34367	-99
1.34733	-99
1.35100	-98
1.35467	-93
1.35833	-90
1.36200	-91
1.36567	-95
1.36933	-98
1.37300	-101
1.37667	-101
1.38033	-101
1.38400	-99
1.38767	-96
1.39133	-95
1.39500	-97
1.39867	-99
1.40233	-100
1.40600	-101
1.40967	-102
1.41333	-102
1.41700	-101
1.42067	-97
1.42433	-94
1.42800	-94
1.43167	-95
1.43533	-96
1.43900	-96
1.44267	-94
1.44633	-89
1.45000	-88
1.45367	-84
1.45733	-57
1.46100	69
1.46467	391
1.46833	854
1.47200	1287
1.47567	1563
1.47933	1646
1.48300	1568
1.48667	1385
1.49033	1156
1.49400	920
1.49767	697
1.50133	505
1.50500	349
1.50867	225
1.51233	127
1.51600	53
1.51967	-4
1.52333	-48
1.52700	-78
1.53067	-99
1.53433	-115
1.53800	-126
1.54167	-133
1.54533	-138
1.54900	-138
1.55267	-129
1.55633	-101
1.56000	-8
1.56367	222
1.56733	589
1.57100	959
1.57467	1160
1.57833	1133
1.58200	942
1.58567	689
1.58933	455
1.59300	269
1.59667	134
1.60033	44
1.60400	-14
1.60767	-52
1.61133	-84
1.61500	-102
1.61867	-112
1.62233	-117
1.62600	-120
1.62967	-123
1.63333	-123
1.63700	-122
1.64067	-118
1.64433	-116
1.64800	-115
1.65167	-112
1.65533	-107
1.65900	-104
1.66267	-102
1.66633	-100
1.67000	-98
1.67367	-101
1.67733	-110
1.68100	-118
1.68467	-121
1.68833	-119
1.69200	-114
1.69567	-109
1.69933	-108
1.70300	-109
1.70667	-111
1.71033	-112
1.71400	-113
1.71767	-115
1.72133	-115
1.72500	-113
1.72867	-109
1.73233	-104
1.73600	-96
1.73967	-85
1.74333	-77
1.74700	-77
1.75067	-82
1.75433	-88
1.75800	-91
1.76167	-90
1.76533	-88
1.76900	-90
1.77267	-95
1.77633	-104
1.78000	-112
1.78367	-115
1.78733	-116
1.79100	-115
1.79467	-114
1.79833	-112
1.80200	-114
1.80567	-116
1.80933	-117
1.81300	-117
1.81667	-115
1.82033	-112
1.82400	-108
1.82767	-103
1.83133	-96
1.83500	-92
1.83867	-90
1.84233	-91
1.84600	-91
1.84967	-88
1.85333	-85
1.85700	-86
1.86067	-87
1.86433	-89
1.86800	-93
1.87167	-97
1.87533	-96
1.87900	-92
1.88267	-88
1.88633	-88
1.89000	-89
1.89367	-88
1.89733	-85
1.90100	-82
1.90467	-81
1.90833	-83
1.91200	-85
1.91567	-86
1.91933	-85
1.92300	-81
1.92667	-78
1.93033	-79
1.93400	-83
1.93767	-89
1.94133	-93
1.94500	-96
1.94867	-98
1.95233	-100
1.95600	-99
1.95967	-90
1.96333	-66
1.96700	-13
1.97067	109
1.97433	439
1.97800	1494
1.98167	4854
1.98533	13935
1.98900	33255
1.99267	64775
1.99633	103371
2.00000	137302
2.00367	155128
2.00733	152671
2.01100	134107
2.01467	107657
2.01833	80692
2.02200	57525
2.02567	39600
2.02933	26646
2.03300	17698
2.03667	11702
2.04033	7762
2.04400	5202
2.04767	3546
2.05133	2471
2.05500	1770
2.05867	1317
2.06233	1011
2.06600	803
2.06967	657
2.07333	549
2.07700	468
2.08067	408
2.08433	360
2.08800	315
2.09167	273
2.09533	238
2.09900	210
2.10267	187
2.10633	170
2.11000	156
2.11367	147
2.11733	137
2.12100	128
2.12467	122
2.12833	119
2.13200	113
2.13567	103
2.13933	92
2.14300	81
2.14667	69
2.15033	59
2.15400	51
2.15767	47
2.16133	46
2.16500	49
2.16867	56
2.17233	61
2.17600	61
2.17967	56
2.18333	46
2.18700	36
2.19067	28
2.19433	22
2.19800	18
2.20167	12
2.20533	9
2.20900	8
2.21267	8
2.21633	7
2.22000	7
2.22367	7
2.22733	4
2.23100	0
2.23467	-4
2.23833	-6
2.24200	-6
2.24567	-5
2.24933	-7
2.25300	-10
2.25667	-13
2.26033	-12
2.26400	-10
2.26767	-8
2.27133	-8
2.27500	-8
2.27867	-6
2.28233	-4
2.28600	-1
2.28967	-0
2.29333	-2
2.29700	-3
2.30067	-5
2.30433	-8
2.30800	-9
2.31167	-11
2.31533	-12
2.31900	-14
2.32267	-16
2.32633	-19
2.33000	-22
2.33367	-26
2.33733	-29
2.34100	-27
2.34467	-20
2.34833	-14
2.35200	-11
2.35567	-14
2.35933	-19
2.36300	-22
2.36667	-20
2.37033	-15
2.37400	-9
2.37767	-6
2.38133	-9
2.38500	-18
2.38867	-27
2.39233	-36
2.39600	-42
2.39967	-44
2.40333	-44
2.40700	-42
2.41067	-37
2.41433	-33
2.41800	-28
2.42167	-23
2.42533	-18
2.42900	-17
2.43267	-21
2.43633	-28
2.44000	-38
2.44367	-46
2.44733	-51
2.45100	-55
2.45467	-56
2.45833	-58
2.46200	-59
2.46567	-56
2.46933	-52
2.47300	-48
2.47667	-44
2.48033	-40
2.48400	-37
2.48767	-36
2.49133	-38
2.49500	-41
2.49867	-42
2.50233	-41
2.50600	-38
2.50967	-35
2.51333	-35
2.51700	-38
2.52067	-44
2.52433	-50
2.52800	-53
2.53167	-57
2.53533	-61
2.53900	-64
2.54267	-64
2.54633	-63
2.55000	-59
2.55367	-54
2.55733	-49
2.56100	-44
2.56467	-39
2.56833	-35
2.57200	-34
2.57567	-36
2.57933	-41
2.58300	-44
2.58667	-42
2.59033	-40
2.59400	-41
2.59767	-43
2.60133	-44
2.60500	-45
2.60867	-49
2.61233	-55
2.61600	-60
2.61967	-65
2.62333	-70
2.62700	-73
2.63067	-72
2.63433	-68
2.63800	-65
2.64167	-63
2.64533	-63
2.64900	-64
2.65267	-62
2.65633	-57
2.66000	-51
2.66367	-45
2.66733	-39
2.67100	-35
2.67467	-35
2.67833	-38
2.68200	-40
2.68567	-40
2.68933	-40
2.69300	-41
2.69667	-48
2.70033	-58
2.70400	-68
2.70767	-75
2.71133	-80
2.71500	-82
2.71867	-80
2.72233	-77
2.72600	-74
2.72967	-68
2.73333	-63
2.73700	-64
2.74067	-66
2.74433	-67
2.74800	-67
2.75167	-63
2.75533	-58
2.75900	-54
2.76267	-52
2.76633	-44
2.77000	-36
2.77367	-31
2.77733	-32
2.78100	-36
2.78467	-40
2.78833	-45
2.79200	-48
2.79567	-51
2.79933	-57
2.80300	-65
2.80667	-75
2.81033	-84
2.81400	-89
2.81767	-86
2.82133	-80
2.82500	-75
2.82867	-72
2.83233	-74
2.83600	-79
2.83967	-82
2.84333	-82
2.84700	-81
2.85067	-82
2.85433	-83
2.85800	-82
2.86167	-77
2.86533	-71
2.86900	-68
2.87267	-69
2.87633	-71
2.88000	-72
2.88367	-73
2.88733	-73
2.89100	-71
2.89467	-68
2.89833	-62
2.90200	-58
2.90567	-56
2.90933	-57
2.91300	-58
2.91667	-58
2.92033	-61
2.92400	-65
2.92767	-66
2.93133	-65
2.93500	-65
2.93867	-66
2.94233	-66
2.94600	-61
2.94967	-54
2.95333	-52
2.95700	-55
2.96067	-58
2.96433	-59
2.96800	-58
2.97167	-62
2.97533	-68
2.97900	-73
2.98267	-78
2.98633	-81
2.99000	-83
2.99367	-85
2.99733	-84
3.00100	-82
3.00467	-79
3.00833	-77
3.01200	-76
3.01567	-72
3.01933	-67
3.02300	-62
3.02667	-60
3.03033	-61
3.03400	-60
3.03767	-58
3.04133	-57
3.04500	-57
3.04867	-58
3.05233	-58
3.05600	-59
3.05967	-63
3.06333	-68
3.06700	-71
3.07067	-72
3.07433	-70
3.07800	-64
3.08167	-57
3.08533	-50
3.08900	-45
3.09267	-41
3.09633	-41
3.10000	-45
3.10367	-44
3.10733	-44
3.11100	-45
3.11467	-49
3.11833	-52
3.12200	-50
3.12567	-45
3.12933	-43
3.13300	-47
3.13667	-56
3.14033	-64
3.14400	-69
3.14767	-72
3.15133	-73
3.15500	-73
3.15867	-74
3.16233	-76
3.16600	-82
3.16967	-88
3.17333	-91
3.17700	-92
3.18067	-90
3.18433	-85
3.18800	-78
3.19167	-72
3.19533	-67
3.19900	-66
3.20267	-65
3.20633	-65
3.21000	-67
3.21367	-70
3.21733	-75
3.22100	-79
3.22467	-79
3.22833	-76
3.23200	-72
3.23567	-72
3.23933	-76
3.24300	-79
3.24667	-78
3.25033	-74
3.25400	-71
3.25767	-69
3.26133	-70
3.26500	-73
3.26867	-76
3.27233	-77
3.27600	-75
3.27967	-71
3.28333	-70
3.28700	-69
3.29067	-69
3.29433	-71
3.29800	-75
3.30167	-78
3.30533	-76
3.30900	-74
3.31267	-71
3.31633	-67
3.32000	-63
3.32367	-63
3.32733	-63
3.33100	-59
3.33467	-57
3.33833	-59
3.34200	-64
3.34567	-68
3.34933	-70
3.35300	-66
3.35667	-62
3.36033	-56
3.36400	-50
3.36767	-46
3.37133	-43
3.37500	-45
3.37867	-47
3.38233	-48
3.38600	-49
3.38967	-51
3.39333	-56
3.39700	-61
3.40067	-67
3.40433	-69
3.40800	-68
3.41167	-67
3.41533	-63
3.41900	-58
3.42267	-53
3.42633	-46
3.43000	-42
3.43367	-43
3.43733	-46
3.44100	-49
3.44467	-52
3.44833	-55
3.45200	-60
3.45567	-63
3.45933	-65
3.46300	-66
3.46667	-68
3.47033	-67
3.47400	-61
3.47767	-55
3.48133	-52
3.48500	-51
3.48867	-54
3.49233	-61
3.49600	-65
3.49967	-65
3.50333	-62
3.50700	-58
3.51067	-53
3.51433	-48
3.51800	-46
3.52167	-49
3.52533	-55
3.52900	-63
3.53267	-70
3.53633	-74
3.54000	-73
3.54367	-68
3.54733	-62
3.55100	-55
3.55467	-47
3.55833	-39
3.56200	-36
3.56567	-40
3.56933	-47
3.57300	-52
3.57667	-53
3.58033	-50
3.58400	-44
3.58767	-44
3.59133	-48
3.59500	-41
3.59867	-43
3.60233	-46
3.60600	-46
3.60967	-45
3.61333	-41
3.61700	-36
3.62067	-38
3.62433	-44
3.62800	-50
3.63167	-52
3.63533	-50
3.63900	-48
3.64267	-46
3.64633	-46
3.65000	-46
3.65367	-47
3.65733	-49
3.66100	-50
3.66467	-54
3.66833	-59
3.67200	-62
3.67567	-63
3.67933	-59
3.68300	-55
3.68667	-52
3.69033	-53
3.69400	-57
3.69767	-61
3.70133	-67
3.70500	-75
3.70867	-80
3.71233	-78
3.71600	-74
3.71967	-71
3.72333	-69
3.72700	-66
3.73067	-62
3.73433	-57
3.73800	-51
3.74167	-48
3.74533	-48
3.74900	-49
3.75267	-51
3.75633	-52
3.76000	-50
3.76367	-45
3.76733	-38
3.77100	-35
3.77467	-39
3.77833	-48
3.78200	-59
3.78567	-68
3.78933	-70
3.79300	-63
3.79667	-53
3.80033	-48
3.80400	-48
3.80767	-54
3.81133	-63
3.81500	-71
3.81867	-76
3.82233	-79
3.82600	-79
3.82967	-77
3.83333	-75
3.83700	-74
3.84067	-71
3.84433	-70
3.84800	-69
3.85167	-65
3.85533	-61
3.85900	-58
3.86267	-56
3.86633	-56
3.87000	-57
3.87367	-58
3.87733	-58
3.88100	-58
3.88467	-59
3.88833	-60
3.89200	-61
3.89567	-58
3.89933	-51
3.90300	-47
3.90667	-50
3.91033	-58
3.91400	-65
3.91767	-66
3.92133	-61
3.92500	-55
3.92867	-51
3.93233	-51
3.93600	-55
3.93967	-62
3.94333	-68
3.94700	-72
3.95067	-72
3.95433	-69
3.95800	-68
3.96167	-68
3.96533	-67
3.96900	-66
3.97267	-66
3.97633	-67
3.98000	-71
3.98367	-72
3.98733	-70
3.99100	-70
3.99467	-71
3.99833	-69

[Chromatogram (Ch2)]
Interval(msec)	220
# of Points	1091
Start Time(min)	0.002
End Time(min)	3.998
R.Time (min)	Intensity
0.00167	0
0.00533	0
0.00900	0
0.01267	0
0.01633	0
0.02000	0
0.02367	1
0.02733	1
0.03100	1
0.03467	1
0.03833	1
0.04200	1
0.04567	1
0.04933	1
0.05300	1
0.05667	0
0.06033	0
0.06400	-0
0.06767	-0
0.07133	-1
0.07500	-1
0.07867	-1
0.08233	-1
0.08600	-1
0.08967	-1
0.09333	-1
0.09700	-2
0.10067	-2
0.10433	-2
0.10800	-1
0.11167	-1
0.11533	-1
0.11900	-1
0.12267	-0
0.12633	-0
0.13000	0
0.13367	0
0.13733	0
0.14100	0
0.14467	1
0.14833	1
0.15200	1
0.15567	1
0.15933	1
0.16300	1
0.16667	1
0.17033	1
0.17400	1
0.17767	1
0.18133	2
0.18500	2
0.18867	3
0.19233	3
0.19600	3
0.19967	3
0.20333	3
0.20700	3
0.21067	3
0.21433	3
0.21800	3
0.22167	3
0.22533	3
0.22900	3
0.23267	3
0.23633	3
0.24000	2
0.24367	2
0.24733	2
0.25100	1
0.25467	1
0.25833	0
0.26200	-0
0.26567	-1
0.26933	-1
0.27300	-2
0.27667	-2
0.28033	-2
0.28400	-3
0.28767	-3
0.29133	-3
0.29500	-3
0.29867	-4
0.30233	-4
0.30600	-4
0.30967	-5
0.31333	-5
0.31700	-5
0.32067	-5
0.32433	-4
0.32800	-4
0.33167	-3
0.33533	-3
0.33900	-2
0.34267	-2
0.34633	-1
0.35000	-0
0.35367	0
0.35733	1
0.36100	1
0.36467	1
0.36833	1
0.37200	1
0.37567	1
0.37933	0
0.38300	0
0.38667	0
0.39033	-0
0.39400	-0
0.39767	-0
0.40133	-0
0.40500	-0
0.40867	-0
0.41233	-0
0.41600	-0
0.41967	-0
0.42333	-0
0.42700	-0
0.43067	-1
0.43433	-1
0.43800	-1
0.44167	-1
0.44533	-1
0.44900	-2
0.45267	-2
0.45633	-2
0.46000	-2
0.46367	-2
0.46733	-2
0.47100	-2
0.47467	-2
0.47833	-2
0.48200	-2
0.48567	-2
0.48933	-2
0.49300	-2
0.49667	-3
0.50033	-3
0.50400	-3
0.50767	-3
0.51133	-3
0.51500	-3
0.51867	-3
0.52233	-4
0.52600	-4
0.52967	-4
0.53333	-4
0.53700	-4
0.54067	-4
0.54433	-3
0.54800	-3
0.55167	-3
0.55533	-3
0.55900	-3
0.56267	-3
0.56633	-3
0.57000	-4
0.57367	-4
0.57733	-4
0.58100	-4
0.58467	-4
0.58833	-4
0.59200	-3
0.59567	-3
0.59933	-3
0.60300	-2
0.60667	-2
0.61033	-2
0.61400	-1
0.61767	-1
0.62133	-1
0.62500	-1
0.62867	-0
0.63233	-0
0.63600	-0
0.63967	-0
0.64333	-0
0.64700	-0
0.65067	-0
0.65433	-0
0.65800	-1
0.66167	-1
0.66533	-1
0.66900	-2
0.67267	-2
0.67633	-3
0.68000	-3
0.68367	-3
0.68733	-4
0.69100	-4
0.69467	-4
0.69833	-4
0.70200	-4
0.70567	-4
0.70933	-4
0.71300	-4
0.71667	-4
0.72033	-4
0.72400	-4
0.72767	-4
0.73133	-3
0.73500	-3
0.73867	-3
0.74233	-3
0.74600	-3
0.74967	-3
0.75333	-2
0.75700	-2
0.76067	-2
0.76433	-2
0.76800	-2
0.77167	-1
0.77533	-1
0.77900	-0
0.78267	-0
0.78633	0
0.79000	0
0.79367	0
0.79733	1
0.80100	0
0.80467	0
0.80833	0
0.81200	-0
0.81567	-0
0.81933	-1
0.82300	-1
0.82667	-1
0.83033	-1
0.83400	-1
0.83767	-1
0.84133	-1
0.84500	-1
0.84867	-1
0.85233	-1
0.85600	-1
0.85967	-1
0.86333	-1
0.86700	-1
0.87067	-1
0.87433	-1
0.87800	-1
0.88167	-1
0.88533	-2
0.88900	-2
0.89267	-2
0.89633	-3
0.90000	-3
0.90367	-4
0.90733	-4
0.91100	-4
0.91467	-4
0.91833	-4
0.92200	-4
0.92567	-4
0.92933	-4
0.93300	-4
0.93667	-4
0.94033	-4
0.94400	-4
0.94767	-3
0.95133	-3
0.95500	-3
0.95867	-3
0.96233	-3
0.96600	-3
0.96967	-2
0.97333	-2
0.97700	-1
0.98067	-1
0.98433	-1
0.98800	-0
0.99167	0
0.99533	0
0.99900	0
1.00267	0
1.00633	0
1.01000	0
1.01367	0
1.01733	1
1.02100	1
1.02467	0
1.02833	0
1.03200	0
1.03567	0
1.03933	0
1.04300	0
1.04667	0
1.05033	0
1.05400	0
1.05767	0
1.06133	0
1.06500	0
1.06867	0
1.07233	0
1.07600	-0
1.07967	-1
1.08333	-1
1.08700	-1
1.09067	-2
1.09433	-2
1.09800	-2
1.10167	-2
1.10533	-3
1.10900	-3
1.11267	-3
1.11633	-3
1.12000	-4
1.12367	-4
1.12733	-4
1.13100	-4
1.13467	-4
1.13833	-4
1.14200	-4
1.14567	-4
1.14933	-4
1.15300	-4
1.15667	-4
1.16033	-4
1.16400	-4
1.16767	-4
1.17133	-5
1.17500	-5
1.17867	-5
1.18233	-5
1.18600	-5
1.18967	-5
1.19333	-5
1.19700	-5
1.20067	-5
1.20433	-5
1.20800	-5
1.21167	-5
1.21533	-4
1.21900	-4
1.22267	-4
1.22633	-4
1.23000	-4
1.23367	-3
1.23733	-3
1.24100	-3
1.24467	-3
1.24833	-2
1.25200	-2
1.25567	-2
1.25933	-2
1.26300	-1
1.26667	-1
1.27033	-1
1.27400	-1
1.27767	-1
1.28133	-1
1.28500	-1
1.28867	-1
1.29233	-0
1.29600	-0
1.29967	0
1.30333	0
1.30700	0
1.31067	1
1.31433	1
1.31800	1
1.32167	1
1.32533	1
1.32900	1
1.33267	1
1.33633	1
1.34000	0
1.34367	0
1.34733	-0
1.35100	-0
1.35467	-1
1.35833	-1
1.36200	-1
1.36567	-1
1.36933	-1
1.37300	-2
1.37667	-2
1.38033	-2
1.38400	-2
1.38767	-2
1.39133	-2
1.39500	-2
1.39867	-2
1.40233	-2
1.40600	-2
1.40967	-2
1.41333	-2
1.41700	-2
1.42067	-2
1.42433	-2
1.42800	-2
1.43167	-1
1.43533	-1
1.43900	-1
1.44267	-1
1.44633	-2
1.45000	-2
1.45367	-2
1.45733	-2
1.46100	-3
1.46467	-3
1.46833	-3
1.47200	-3
1.47567	-3
1.47933	-3
1.48300	-2
1.48667	-2
1.49033	-2
1.49400	-2
1.49767	-2
1.50133	-2
1.50500	-2
1.50867	-2
1.51233	-2
1.51600	-3
1.51967	-3
1.52333	-3
1.52700	-3
1.53067	-3
1.53433	-2
1.53800	-2
1.54167	-2
1.54533	-2
1.54900	-2
1.55267	-2
1.55633	-2
1.56000	-2
1.56367	-2
1.56733	-2
1.57100	-2
1.57467	-3
1.57833	-3
1.58200	-3
1.58567	-3
1.58933	-2
1.59300	-2
1.59667	-3
1.60033	-3
1.60400	-4
1.60767	-5
1.61133	-7
1.61500	-8
1.61867	-10
1.62233	-13
1.62600	-16
1.62967	-19
1.63333	-22
1.63700	-25
1.64067	-29
1.64433	-33
1.64800	-36
1.65167	-40
1.65533	-44
1.65900	-48
1.66267	-52
1.66633	-57
1.67000	-62
1.67367	-67
1.67733	-73
1.68100	-78
1.68467	-83
1.68833	-88
1.69200	-93
1.69567	-97
1.69933	-100
1.70300	-103
1.70667	-105
1.71033	-107
1.71400	-108
1.71767	-110
1.72133	-111
1.72500	-112
1.72867	-113
1.73233	-114
1.73600	-115
1.73967	-116
1.74333	-117
1.74700	-117
1.75067	-118
1.75433	-118
1.75800	-118
1.76167	-118
1.76533	-117
1.76900	-118
1.77267	-118
1.77633	-119
1.78000	-120
1.78367	-121
1.78733	-121
1.79100	-122
1.79467	-122
1.79833	-121
1.80200	-120
1.80567	-119
1.80933	-118
1.81300	-118
1.81667	-117
1.82033	-118
1.82400	-118
1.82767	-119
1.83133	-119
1.83500	-120
1.83867	-121
1.84233	-121
1.84600	-121
1.84967	-122
1.85333	-122
1.85700	-123
1.86067	-123
1.86433	-123
1.86800	-123
1.87167	-122
1.87533	-122
1.87900	-122
1.88267	-121
1.88633	-120
1.89000	-120
1.89367	-119
1.89733	-119
1.90100	-119
1.90467	-119
1.90833	-119
1.91200	-119
1.91567	-119
1.91933	-119
1.92300	-119
1.92667	-119
1.93033	-119
1.93400	-118
1.93767	-118
1.94133	-117
1.94500	-117
1.94867	-116
1.95233	-116
1.95600	-116
1.95967	-116
1.96333	-116
1.96700	-116
1.97067	-116
1.97433	-116
1.97800	-116
1.98167	-116
1.98533	-116
1.98900	-116
1.99267	-116
1.99633	-116
2.00000	-115
2.00367	-115
2.00733	-115
2.01100	-115
2.01467	-115
2.01833	-114
2.02200	-113
2.02567	-113
2.02933	-112
2.03300	-111
2.03667	-111
2.04033	-111
2.04400	-111
2.04767	-111
2.05133	-111
2.05500	-111
2.05867	-111
2.06233	-111
2.06600	-111
2.06967	-111
2.07333	-110
2.07700	-110
2.08067	-109
2.08433	-109
2.08800	-108
2.09167	-108
2.09533	-107
2.09900	-106
2.10267	-106
2.10633	-106
2.11000	-105
2.11367	-105
2.11733	-105
2.12100	-105
2.12467	-104
2.12833	-104
2.13200	-104
2.13567	-104
2.13933	-104
2.14300	-103
2.14667	-103
2.15033	-102
2.15400	-101
2.15767	-101
2.16133	-101
2.16500	-101
2.16867	-101
2.17233	-101
2.17600	-100
2.17967	-100
2.18333	-99
2.18700	-99
2.19067	-98
2.19433	-98
2.19800	-98
2.20167	-98
2.20533	-98
2.20900	-98
2.21267	-98
2.21633	-98
2.22000	-98
2.22367	-98
2.22733	-98
2.23100	-98
2.23467	-97
2.23833	-97
2.24200	-97
2.24567	-97
2.24933	-96
2.25300	-95
2.25667	-95
2.26033	-94
2.26400	-94
2.26767	-94
2.27133	-94
2.27500	-93
2.27867	-93
2.28233	-92
2.28600	-91
2.28967	-90
2.29333	-90
2.29700	-90
2.30067	-90
2.30433	-90
2.30800	-90
2.31167	-91
2.31533	-91
2.31900	-91
2.32267	-90
2.32633	-90
2.33000	-89
2.33367	-88
2.33733	-87
2.34100	-87
2.34467	-86
2.34833	-85
2.35200	-84
2.35567	-84
2.35933	-83
2.36300	-82
2.36667	-81
2.37033	-79
2.37400	-77
2.37767	-74
2.38133	-71
2.38500	-68
2.38867	-64
2.39233	-59
2.39600	-54
2.39967	-50
2.40333	-45
2.40700	-41
2.41067	-36
2.41433	-32
2.41800	-28
2.42167	-25
2.42533	-22
2.42900	-19
2.43267	-17
2.43633	-14
2.44000	-12
2.44367	-10
2.44733	-8
2.45100	-6
2.45467	-4
2.45833	-3
2.46200	-1
2.46567	-0
2.46933	1
2.47300	2
2.47667	3
2.48033	4
2.48400	5
2.48767	5
2.49133	6
2.49500	6
2.49867	6
2.50233	6
2.50600	7
2.50967	8
2.51333	9
2.51700	9
2.52067	10
2.52433	10
2.52800	11
2.53167	12
2.53533	13
2.53900	13
2.54267	14
2.54633	15
2.55000	15
2.55367	15
2.55733	15
2.56100	15
2.56467	15
2.56833	15
2.57200	16
2.57567	16
2.57933	16
2.58300	16
2.58667	17
2.59033	17
2.59400	17
2.59767	17
2.60133	18
2.60500	19
2.60867	19
2.61233	20
2.61600	20
2.61967	20
2.62333	21
2.62700	21
2.63067	21
2.63433	21
2.63800	21
2.64167	20
2.64533	21
2.64900	21
2.65267	21
2.65633	21
2.66000	21
2.66367	21
2.66733	22
2.67100	22
2.67467	22
2.67833	21
2.68200	21
2.68567	21
2.68933	21
2.69300	21
2.69667	21
2.70033	21
2.70400	22
2.70767	22
2.71133	23
2.71500	23
2.71867	24
2.72233	24
2.72600	24
2.72967	24
2.73333	23
2.73700	23
2.74067	23
2.74433	23
2.74800	23
2.75167	23
2.75533	23
2.75900	23
2.76267	23
2.76633	24
2.77000	24
2.77367	24
2.77733	25
2.78100	25
2.78467	25
2.78833	25
2.79200	26
2.79567	26
2.79933	26
2.80300	26
2.80667	26
2.81033	26
2.81400	26
2.81767	26
2.82133	26
2.82500	26
2.82867	25
2.83233	25
2.83600	25
2.83967	25
2.84333	25
2.84700	25
2.85067	25
2.85433	25
2.85800	25
2.86167	25
2.86533	25
2.86900	24
2.87267	21
2.87633	17
2.88000	11
2.88367	2
2.88733	-11
2.89100	-26
2.89467	-46
2.89833	-68
2.90200	-94
2.90567	-123
2.90933	-154
2.91300	-185
2.91667	-212
2.92033	-233
2.92400	-246
2.92767	-252
2.93133	-249
2.93500	-241
2.93867	-228
2.94233	-212
2.94600	-193
2.94967	-174
2.95333	-155
2.95700	-136
2.96067	-119
2.96433	-103
2.96800	-88
2.97167	-74
2.97533	-62
2.97900	-51
2.98267	-42
2.98633	-33
2.99000	-26
2.99367	-20
2.99733	-14
3.00100	-9
3.00467	-5
3.00833	-1
3.01200	2
3.01567	5
3.01933	7
3.02300	10
3.02667	11
3.03033	13
3.03400	15
3.03767	16
3.04133	17
3.04500	18
3.04867	19
3.05233	19
3.05600	20
3.05967	20
3.06333	20
3.06700	21
3.07067	21
3.07433	21
3.07800	22
3.08167	22
3.08533	22
3.08900	22
3.09267	22
3.09633	22
3.10000	22
3.10367	22
3.10733	22
3.11100	22
3.11467	23
3.11833	23
3.12200	23
3.12567	23
3.12933	23
3.13300	23
3.13667	23
3.14033	23
3.14400	24
3.14767	24
3.15133	23
3.15500	23
3.15867	23
3.16233	23
3.16600	24
3.16967	24
3.17333	24
3.17700	24
3.18067	24
3.18433	24
3.18800	24
3.19167	24
3.19533	24
3.19900	24
3.20267	24
3.20633	24
3.21000	24
3.21367	24
3.21733	24
3.22100	23
3.22467	23
3.22833	23
3.23200	23
3.23567	23
3.23933	23
3.24300	23
3.24667	23
3.25033	24
3.25400	24
3.25767	24
3.26133	25
3.26500	25
3.26867	26
3.27233	26
3.27600	26
3.27967	26
3.28333	27
3.28700	27
3.29067	27
3.29433	28
3.29800	28
3.30167	28
3.30533	28
3.30900	29
3.31267	29
3.31633	29
3.32000	30
3.32367	30
3.32733	30
3.33100	30
3.33467	30
3.33833	30
3.34200	30
3.34567	30
3.34933	30
3.35300	29
3.35667	29
3.36033	28
3.36400	28
3.36767	28
3.37133	27
3.37500	27
3.37867	27
3.38233	27
3.38600	27
3.38967	27
3.39333	27
3.39700	27
3.40067	26
3.40433	26
3.40800	26
3.41167	25
3.41533	25
3.41900	25
3.42267	25
3.42633	25
3.43000	25
3.43367	25
3.43733	25
3.44100	25
3.44467	25
3.44833	26
3.45200	26
3.45567	26
3.45933	26
3.46300	26
3.46667	26
3.47033	27
3.47400	27
3.47767	27
3.48133	27
3.48500	27
3.48867	27
3.49233	27
3.49600	27
3.49967	27
3.50333	26
3.50700	26
3.51067	26
3.51433	26
3.51800	26
3.52167	26
3.52533	26
3.52900	27
3.53267	27
3.53633	27
3.54000	26
3.54367	26
3.54733	26
3.55100	26
3.55467	26
3.55833	26
3.56200	26
3.56567	26
3.56933	26
3.57300	26
3.57667	26
3.58033	26
3.58400	26
3.58767	26
3.59133	27
3.59500	27
3.59867	27
3.60233	27
3.60600	27
3.60967	27
3.61333	26
3.61700	26
3.62067	26
3.62433	26
3.62800	26
3.63167	26
3.63533	26
3.63900	26
3.64267	26
3.64633	26
3.65000	26
3.65367	26
3.65733	26
3.66100	26
3.66467	26
3.66833	26
3.67200	26
3.67567	26
3.67933	26
3.68300	27
3.68667	27
3.69033	27
3.69400	27
3.69767	27
3.70133	27
3.70500	27
3.70867	27
3.71233	27
3.71600	27
3.71967	27
3.72333	27
3.72700	27
3.73067	27
3.73433	26
3.73800	26
3.74167	25
3.74533	25
3.74900	25
3.75267	25
3.75633	24
3.76000	24
3.76367	24
3.76733	24
3.77100	24
3.77467	24
3.77833	24
3.78200	25
3.78567	25
3.78933	25
3.79300	24
3.79667	24
3.80033	24
3.80400	24
3.80767	25
3.81133	25
3.81500	25
3.81867	25
3.82233	25
3.82600	25
3.82967	25
3.83333	25
3.83700	25
3.84067	25
3.84433	25
3.84800	25
3.85167	25
3.85533	25
3.85900	25
3.86267	25
3.86633	25
3.87000	26
3.87367	26
3.87733	26
3.88100	26
3.88467	26
3.88833	26
3.89200	26
3.89567	26
3.89933	26
3.90300	26
3.90667	26
3.91033	26
3.91400	26
3.91767	26
3.92133	26
3.92500	26
3.92867	26
3.93233	26
3.93600	26
3.93967	26
3.94333	26
3.94700	26
3.95067	26
3.95433	26
3.95800	26
3.96167	26
3.96533	26
3.96900	26
3.97267	26
3.97633	26
3.98000	26
3.98367	26
3.98733	26
3.99100	26
3.99467	26
3.99833	26

[Chromatogram (Ch3)]
Interval(msec)	220
# of Points	1091
Start Time(min)	0.002
End Time(min)	3.998
R.Time (min)	Intensity
0.00167	-1
0.00533	-2
0.00900	-3
0.01267	-4
0.01633	-3
0.02000	-1
0.02367	-1
0.02733	-1
0.03100	-2
0.03467	-2
0.03833	-3
0.04200	-3
0.04567	-2
0.04933	1
0.05300	2
0.05667	-0
0.06033	-2
0.06400	-2
0.06767	-2
0.07133	-3
0.07500	-6
0.07867	-9
0.08233	-9
0.08600	-9
0.08967	-7
0.09333	-6
0.09700	-5
0.10067	-2
0.10433	-1
0.10800	-2
0.11167	-5
0.11533	-6
0.11900	-6
0.12267	-5
0.12633	-3
0.13000	-1
0.13367	1
0.13733	4
0.14100	5
0.14467	3
0.14833	0
0.15200	-4
0.15567	-6
0.15933	-8
0.16300	-8
0.16667	-8
0.17033	-7
0.17400	-7
0.17767	-7
0.18133	-7
0.18500	-10
0.18867	-12
0.19233	-12
0.19600	-11
0.19967	-9
0.20333	-9
0.20700	-10
0.21067	-11
0.21433	-9
0.21800	-7
0.22167	-4
0.22533	-3
0.22900	-3
0.23267	-5
0.23633	-9
0.24000	-9
0.24367	-8
0.24733	-8
0.25100	-10
0.25467	-12
0.25833	-13
0.26200	-14
0.26567	-15
0.26933	-15
0.27300	-13
0.27667	-13
0.28033	-14
0.28400	-14
0.28767	-14
0.29133	-14
0.29500	-14
0.29867	-14
0.30233	-13
0.30600	-13
0.30967	-14
0.31333	-13
0.31700	-14
0.32067	-16
0.32433	-18
0.32800	-22
0.33167	-24
0.33533	-24
0.33900	-20
0.34267	-17
0.34633	-16
0.35000	-15
0.35367	-16
0.35733	-17
0.36100	-19
0.36467	-20
0.36833	-18
0.37200	-18
0.37567	-18
0.37933	-17
0.38300	-15
0.38667	-12
0.39033	-12
0.39400	-15
0.39767	-17
0.40133	-17
0.40500	-20
0.40867	-20
0.41233	-19
0.41600	-17
0.41967	-16
0.42333	-16
0.42700	-15
0.43067	-16
0.43433	-17
0.43800	-18
0.44167	-18
0.44533	-18
0.44900	-17
0.45267	-16
0.45633	-16
0.46000	-15
0.46367	-15
0.46733	-17
0.47100	-17
0.47467	-19
0.47833	-19
0.48200	-19
0.48567	-18
0.48933	-19
0.49300	-20
0.49667	-19
0.50033	-16
0.50400	-16
0.50767	-18
0.51133	-21
0.51500	-19
0.51867	-18
0.52233	-19
0.52600	-22
0.52967	-25
0.53333	-24
0.53700	-22
0.54067	-18
0.54433	-16
0.54800	-16
0.55167	-17
0.55533	-17
0.55900	-18
0.56267	-20
0.56633	-18
0.57000	-17
0.57367	-18
0.57733	-18
0.58100	-18
0.58467	-19
0.58833	-21
0.59200	-23
0.59567	-26
0.59933	-26
0.60300	-26
0.60667	-26
0.61033	-25
0.61400	-24
0.61767	-22
0.62133	-21
0.62500	-19
0.62867	-19
0.63233	-21
0.63600	-22
0.63967	-22
0.64333	-23
0.64700	-26
0.65067	-28
0.65433	-28
0.65800	-25
0.66167	-22
0.66533	-21
0.66900	-21
0.67267	-23
0.67633	-24
0.68000	-25
0.68367	-27
0.68733	-27
0.69100	-27
0.69467	-27
0.69833	-26
0.70200	-24
0.70567	-23
0.70933	-23
0.71300	-22
0.71667	-23
0.72033	-24
0.72400	-24
0.72767	-24
0.73133	-24
0.73500	-24
0.73867	-25
0.74233	-26
0.74600	-26
0.74967	-25
0.75333	-24
0.75700	-23
0.76067	-23
0.76433	-24
0.76800	-25
0.77167	-27
0.77533	-27
0.77900	-27
0.78267	-27
0.78633	-26
0.79000	-24
0.79367	-24
0.79733	-25
0.80100	-26
0.80467	-28
0.80833	-28
0.81200	-27
0.81567	-28
0.81933	-27
0.82300	-26
0.82667	-27
0.83033	-26
0.83400	-26
0.83767	-28
0.84133	-29
0.84500	-30
0.84867	-29
0.85233	-29
0.85600	-30
0.85967	-32
0.86333	-33
0.86700	-32
0.87067	-29
0.87433	-28
0.87800	-29
0.88167	-28
0.88533	-29
0.88900	-31
0.89267	-33
0.89633	-34
0.90000	-34
0.90367	-33
0.90733	-31
0.91100	-32
0.91467	-33
0.91833	-30
0.92200	-28
0.92567	-27
0.92933	-25
0.93300	-27
0.93667	-29
0.94033	-29
0.94400	-30
0.94767	-30
0.95133	-32
0.95500	-36
0.95867	-36
0.96233	-37
0.96600	-36
0.96967	-33
0.97333	-31
0.97700	-33
0.98067	-34
0.98433	-35
0.98800	-34
0.99167	-33
0.99533	-31
0.99900	-29
1.00267	-27
1.00633	-28
1.01000	-31
1.01367	-33
1.01733	-35
1.02100	-36
1.02467	-35
1.02833	-37
1.03200	-36
1.03567	-35
1.03933	-34
1.04300	-34
1.04667	-34
1.05033	-34
1.05400	-35
1.05767	-36
1.06133	-36
1.06500	-37
1.06867	-40
1.07233	-41
1.07600	-40
1.07967	-35
1.08333	-34
1.08700	-36
1.09067	-35
1.09433	-33
1.09800	-30
1.10167	-27
1.10533	-28
1.10900	-29
1.11267	-29
1.11633	-30
1.12000	-32
1.12367	-31
1.12733	-31
1.13100	-32
1.13467	-32
1.13833	-32
1.14200	-31
1.14567	-31
1.14933	-32
1.15300	-33
1.15667	-34
1.16033	-33
1.16400	-32
1.16767	-32
1.17133	-32
1.17500	-33
1.17867	-35
1.18233	-36
1.18600	-36
1.18967	-32
1.19333	-31
1.19700	-33
1.20067	-34
1.20433	-33
1.20800	-31
1.21167	-30
1.21533	-29
1.21900	-28
1.22267	-27
1.22633	-25
1.23000	-27
1.23367	-31
1.23733	-34
1.24100	-37
1.24467	-37
1.24833	-36
1.25200	-36
1.25567	-37
1.25933	-37
1.26300	-36
1.26667	-35
1.27033	-34
1.27400	-36
1.27767	-38
1.28133	-38
1.28500	-36
1.28867	-36
1.29233	-37
1.29600	-37
1.29967	-36
1.30333	-35
1.30700	-34
1.31067	-33
1.31433	-30
1.31800	-29
1.32167	-31
1.32533	-33
1.32900	-35
1.33267	-36
1.33633	-36
1.34000	-33
1.34367	-31
1.34733	-31
1.35100	-32
1.35467	-33
1.35833	-32
1.36200	-33
1.36567	-32
1.36933	-30
1.37300	-30
1.37667	-29
1.38033	-31
1.38400	-34
1.38767	-36
1.39133	-36
1.39500	-36
1.39867	-34
1.40233	-32
1.40600	-32
1.40967	-35
1.41333	-35
1.41700	-33
1.42067	-32
1.42433	-30
1.42800	-27
1.43167	-28
1.43533	-30
1.43900	-32
1.44267	-33
1.44633	-37
1.45000	-39
1.45367	-38
1.45733	-36
1.46100	-35
1.46467	-33
1.46833	-32
1.47200	-28
1.47567	-27
1.47933	-28
1.48300	-28
1.48667	-30
1.49033	-32
1.49400	-32
1.49767	-32
1.50133	-31
1.50500	-31
1.50867	-34
1.51233	-37
1.51600	-40
1.51967	-40
1.52333	-39
1.52700	-39
1.53067	-40
1.53433	-42
1.53800	-41
1.54167	-38
1.54533	-36
1.54900	-35
1.55267	-34
1.55633	-33
1.56000	-33
1.56367	-34
1.56733	-33
1.57100	-33
1.57467	-35
1.57833	-37
1.58200	-36
1.58567	-37
1.58933	-37
1.59300	-38
1.59667	-37
1.60033	-37
1.60400	-37
1.60767	-37
1.61133	-38
1.61500	-36
1.61867	-34
1.62233	-33
1.62600	-33
1.62967	-33
1.63333	-33
1.63700	-31
1.64067	-30
1.64433	-30
1.64800	-29
1.65167	-27
1.65533	-27
1.65900	-27
1.66267	-27
1.66633	-26
1.67000	-23
1.67367	-22
1.67733	-22
1.68100	-20
1.68467	-21
1.68833	-24
1.69200	-25
1.69567	-24
1.69933	-24
1.70300	-25
1.70667	-25
1.71033	-24
1.71400	-25
1.71767	-27
1.72133	-26
1.72500	-27
1.72867	-25
1.73233	-22
1.73600	-21
1.73967	-21
1.74333	-20
1.74700	-19
1.75067	-19
1.75433	-18
1.75800	-15
1.76167	-12
1.76533	-12
1.76900	-12
1.77267	-13
1.77633	-14
1.78000	-12
1.78367	-12
1.78733	-10
1.79100	-7
1.79467	-5
1.79833	-3
1.80200	-2
1.80567	-2
1.80933	-3
1.81300	-2
1.81667	-1
1.82033	0
1.82400	2
1.82767	3
1.83133	2
1.83500	0
1.83867	1
1.84233	-1
1.84600	-1
1.84967	0
1.85333	2
1.85700	1
1.86067	2
1.86433	2
1.86800	0
1.87167	-0
1.87533	0
1.87900	3
1.88267	4
1.88633	4
1.89000	6
1.89367	7
1.89733	10
1.90100	9
1.90467	9
1.90833	10
1.91200	11
1.91567	10
1.91933	6
1.92300	4
1.92667	5
1.93033	7
1.93400	7
1.93767	7
1.94133	8
1.94500	12
1.94867	18
1.95233	20
1.95600	19
1.95967	18
1.96333	17
1.96700	16
1.97067	16
1.97433	17
1.97800	20
1.98167	22
1.98533	21
1.98900	18
1.99267	17
1.99633	20
2.00000	22
2.00367	25
2.00733	28
2.01100	31
2.01467	29
2.01833	28
2.02200	27
2.02567	26
2.02933	26
2.03300	24
2.03667	26
2.04033	29
2.04400	32
2.04767	32
2.05133	33
2.05500	35
2.05867	38
2.06233	38
2.06600	37
2.06967	36
2.07333	36
2.07700	36
2.08067	36
2.08433	36
2.08800	37
2.09167	38
2.09533	40
2.09900	42
2.10267	45
2.10633	46
2.11000	48
2.11367	50
2.11733	52
2.12100	53
2.12467	55
2.12833	57
2.13200	59
2.13567	62
2.13933	62
2.14300	61
2.14667	58
2.15033	59
2.15400	59
2.15767	59
2.16133	59
2.16500	58
2.16867	58
2.17233	61
2.17600	64
2.17967	63
2.18333	63
2.18700	63
2.19067	65
2.19433	67
2.19800	71
2.20167	76
2.20533	78
2.20900	79
2.21267	81
2.21633	79
2.22000	76
2.22367	74
2.22733	74
2.23100	75
2.23467	77
2.23833	78
2.24200	78
2.24567	80
2.24933	80
2.25300	81
2.25667	84
2.26033	86
2.26400	87
2.26767	87
2.27133	88
2.27500	90
2.27867	91
2.28233	92
2.28600	93
2.28967	93
2.29333	91
2.29700	93
2.30067	96
2.30433	97
2.30800	96
2.31167	94
2.31533	95
2.31900	97
2.32267	98
2.32633	97
2.33000	93
2.33367	91
2.33733	94
2.34100	97
2.34467	99
2.34833	100
2.35200	101
2.35567	102
2.35933	102
2.36300	103
2.36667	104
2.37033	104
2.37400	104
2.37767	101
2.38133	98
2.38500	95
2.38867	87
2.39233	86
2.39600	94
2.39967	107
2.40333	123
2.40700	139
2.41067	154
2.41433	165
2.41800	177
2.42167	190
2.42533	199
2.42900	205
2.43267	205
2.43633	203
2.44000	203
2.44367	204
2.44733	202
2.45100	200
2.45467	198
2.45833	197
2.46200	195
2.46567	190
2.46933	183
2.47300	178
2.47667	172
2.48033	165
2.48400	161
2.48767	155
2.49133	149
2.49500	143
2.49867	135
2.50233	125
2.50600	119
2.50967	112
2.51333	104
2.51700	97
2.52067	92
2.52433	87
2.52800	79
2.53167	71
2.53533	63
2.53900	55
2.54267	48
2.54633	41
2.55000	33
2.55367	25
2.55733	20
2.56100	15
2.56467	10
2.56833	4
2.57200	-2
2.57567	-6
2.57933	-9
2.58300	-13
2.58667	-19
2.59033	-23
2.59400	-30
2.59767	-37
2.60133	-44
2.60500	-50
2.60867	-56
2.61233	-62
2.61600	-71
2.61967	-83
2.62333	-97
2.62700	-109
2.63067	-122
2.63433	-134
2.63800	-147
2.64167	-158
2.64533	-170
2.64900	-180
2.65267	-187
2.65633	-191
2.66000	-194
2.66367	-194
2.66733	-196
2.67100	-199
2.67467	-200
2.67833	-199
2.68200	-197
2.68567	-197
2.68933	-198
2.69300	-198
2.69667	-198
2.70033	-201
2.70400	-204
2.70767	-208
2.71133	-209
2.71500	-210
2.71867	-211
2.72233	-208
2.72600	-204
2.72967	-202
2.73333	-203
2.73700	-202
2.74067	-200
2.74433	-200
2.74800	-199
2.75167	-199
2.75533	-198
2.75900	-197
2.76267	-199
2.76633	-201
2.77000	-201
2.77367	-202
2.77733	-201
2.78100	-201
2.78467	-202
2.78833	-202
2.79200	-202
2.79567	-200
2.79933	-200
2.80300	-202
2.80667	-203
2.81033	-201
2.81400	-198
2.81767	-195
2.82133	-191
2.82500	-188
2.82867	-186
2.83233	-185
2.83600	-179
2.83967	-161
2.84333	-122
2.84700	-40
2.85067	105
2.85433	325
2.85800	617
2.86167	963
2.86533	1329
2.86900	1673
2.87267	1954
2.87633	2149
2.88000	2247
2.88367	2251
2.88733	2180
2.89100	2055
2.89467	1892
2.89833	1713
2.90200	1530
2.90567	1347
2.90933	1170
2.91300	1008
2.91667	861
2.92033	726
2.92400	607
2.92767	504
2.93133	413
2.93500	333
2.93867	261
2.94233	201
2.94600	150
2.94967	106
2.95333	68
2.95700	37
2.96067	12
2.96433	-9
2.96800	-29
2.97167	-48
2.97533	-64
2.97900	-74
2.98267	-83
2.98633	-92
2.99000	-102
2.99367	-110
2.99733	-116
3.00100	-121
3.00467	-122
3.00833	-125
3.01200	-126
3.01567	-126
3.01933	-125
3.02300	-123
3.02667	-122
3.03033	-122
3.03400	-121
3.03767	-121
3.04133	-120
3.04500	-119
3.04867	-119
3.05233	-123
3.05600	-127
3.05967	-126
3.06333	-125
3.06700	-125
3.07067	-125
3.07433	-124
3.07800	-121
3.08167	-117
3.08533	-112
3.08900	-109
3.09267	-109
3.09633	-110
3.10000	-111
3.10367	-109
3.10733	-105
3.11100	-104
3.11467	-104
3.11833	-101
3.12200	-100
3.12567	-99
3.12933	-98
3.13300	-96
3.13667	-94
3.14033	-89
3.14400	-88
3.14767	-89
3.15133	-88
3.15500	-86
3.15867	-86
3.16233	-86
3.16600	-86
3.16967	-84
3.17333	-83
3.17700	-84
3.18067	-83
3.18433	-81
3.18800	-79
3.19167	-78
3.19533	-77
3.19900	-77
3.20267	-76
3.20633	-77
3.21000	-77
3.21367	-75
3.21733	-76
3.22100	-75
3.22467	-73
3.22833	-70
3.23200	-68
3.23567	-66
3.23933	-64
3.24300	-60
3.24667	-57
3.25033	-55
3.25400	-54
3.25767	-54
3.26133	-55
3.26500	-54
3.26867	-54
3.27233	-56
3.27600	-60
3.27967	-63
3.28333	-66
3.28700	-71
3.29067	-74
3.29433	-70
3.29800	-61
3.30167	-44
3.30533	-24
3.30900	0
3.31267	24
3.31633	47
3.32000	67
3.32367	87
3.32733	107
3.33100	123
3.33467	139
3.33833	156
3.34200	173
3.34567	187
3.34933	202
3.35300	218
3.35667	234
3.36033	249
3.36400	263
3.36767	275
3.37133	284
3.37500	292
3.37867	304
3.38233	317
3.38600	330
3.38967	342
3.39333	353
3.39700	361
3.40067	368
3.40433	374
3.40800	383
3.41167	392
3.41533	399
3.41900	405
3.42267	411
3.42633	416
3.43000	421
3.43367	424
3.43733	427
3.44100	429
3.44467	430
3.44833	432
3.45200	436
3.45567	439
3.45933	439
3.46300	438
3.46667	436
3.47033	434
3.47400	434
3.47767	434
3.48133	434
3.48500	433
3.48867	428
3.49233	426
3.49600	425
3.49967	424
3.50333	424
3.50700	425
3.51067	426
3.51433	425
3.51800	426
3.52167	425
3.52533	423
3.52900	422
3.53267	421
3.53633	419
3.54000	419
3.54367	419
3.54733	420
3.55100	419
3.55467	417
3.55833	415
3.56200	413
3.56567	412
3.56933	412
3.57300	413
3.57667	415
3.58033	415
3.58400	416
3.58767	417
3.59133	418
3.59500	418
3.59867	417
3.60233	415
3.60600	414
3.60967	413
3.61333	412
3.61700	412
3.62067	409
3.62433	407
3.62800	406
3.63167	408
3.63533	411
3.63900	410
3.64267	407
3.64633	404
3.65000	404
3.65367	404
3.65733	402
3.66100	402
3.66467	400
3.66833	399
3.67200	398
3.67567	397
3.67933	395
3.68300	391
3.68667	388
3.69033	386
3.69400	384
3.69767	382
3.70133	381
3.70500	383
3.70867	385
3.71233	385
3.71600	384
3.71967	383
3.72333	380
3.72700	376
3.73067	373
3.73433	371
3.73800	370
3.74167	368
3.74533	364
3.74900	361
3.75267	362
3.75633	360
3.76000	360
3.76367	357
3.76733	352
3.77100	350
3.77467	349
3.77833	349
3.78200	348
3.78567	345
3.78933	344
3.79300	342
3.79667	340
3.80033	338
3.80400	337
3.80767	336
3.81133	333
3.81500	329
3.81867	326
3.82233	323
3.82600	319
3.82967	316
3.83333	316
3.83700	316
3.84067	315
3.84433	314
3.84800	311
3.85167	307
3.85533	304
3.85900	300
3.86267	297
3.86633	296
3.87000	295
3.87367	295
3.87733	295
3.88100	295
3.88467	295
3.88833	292
3.89200	288
3.89567	283
3.89933	279
3.90300	276
3.90667	274
3.91033	273
3.91400	274
3.91767	275
3.92133	275
3.92500	274
3.92867	272
3.93233	268
3.93600	262
3.93967	259
3.94333	255
3.94700	253
3.95067	249
3.95433	245
3.95800	243
3.96167	244
3.96533	243
3.96900	242
3.97267	240
3.97633	237
3.98000	234
3.98367	231
3.98733	231
3.99100	228
3.99467	218
3.99833	201

[Status Trace (Column Oven Temperature)]
Interval(msec)	1000
# of Points	240
Start Time(min)	0.016
End Time(min)	4.000
Intensity Units	
Intensity Multiplier	1
R.Time (min)	Intensity
0.01627	35.00
0.03293	34.99
0.04960	35.00
0.06627	35.01
0.08293	35.02
0.09960	35.02
0.11627	35.03
0.13293	35.02
0.14960	35.02
0.16627	35.01
0.18293	35.00
0.19960	34.98
0.21627	34.97
0.23293	34.95
0.24960	34.95
0.26627	34.96
0.28293	34.98
0.29960	34.99
0.31627	35.01
0.33293	34.99
0.34960	34.99
0.36627	34.98
0.38293	34.97
0.39960	34.95
0.41627	34.95
0.43293	34.95
0.44960	34.95
0.46627	34.96
0.48293	34.96
0.49960	34.97
0.51627	34.97
0.53293	34.97
0.54960	34.99
0.56627	34.99
0.58293	35.00
0.59960	34.99
0.61627	34.98
0.63293	34.97
0.64960	34.97
0.66627	34.98
0.68293	34.99
0.69960	35.00
0.71627	35.01
0.73293	35.01
0.74960	35.01
0.76627	35.00
0.78293	34.99
0.79960	34.98
0.81627	34.98
0.83293	34.98
0.84960	34.97
0.86627	34.98
0.88293	34.99
0.89960	35.00
0.91627	35.01
0.93293	35.01
0.94960	35.01
0.96627	35.01
0.98293	34.99
0.99960	34.98
1.01627	34.98
1.03293	34.97
1.04960	34.96
1.06627	34.96
1.08293	34.96
1.09960	34.97
1.11627	34.97
1.13293	34.99
1.14960	35.00
1.16627	35.00
1.18293	35.01
1.19960	35.02
1.21627	35.03
1.23293	35.02
1.24960	35.02
1.26627	35.01
1.28293	35.00
1.29960	35.00
1.31627	34.99
1.33293	34.98
1.34960	34.97
1.36627	34.97
1.38293	34.98
1.39960	34.98
1.41627	34.98
1.43293	34.98
1.44960	34.99
1.46627	35.00
1.48293	34.99
1.49960	35.00
1.51627	34.99
1.53293	34.99
1.54960	34.99
1.56627	34.98
1.58293	34.98
1.59960	35.00
1.61627	35.08
1.63293	35.24
1.64960	35.45
1.66627	35.76
1.68293	36.12
1.69960	36.49
1.71627	36.83
1.73293	37.18
1.74960	37.50
1.76627	37.83
1.78293	38.18
1.79960	38.49
1.81627	38.81
1.83293	39.15
1.84960	39.48
1.86627	39.82
1.88293	40.13
1.89960	40.45
1.91627	40.78
1.93293	41.08
1.94960	41.40
1.96627	41.74
1.98293	42.08
1.99960	42.42
2.01627	42.75
2.03293	43.07
2.04960	43.41
2.06627	43.75
2.08293	44.06
2.09960	44.38
2.11627	44.71
2.13293	45.04
2.14960	45.36
2.16627	45.69
2.18293	46.01
2.19960	46.33
2.21627	46.66
2.23293	47.02
2.24960	47.32
2.26627	47.66
2.28293	47.98
2.29960	48.33
2.31627	48.68
2.33293	48.99
2.34960	49.29
2.36627	49.55
2.38293	49.67
2.39960	49.70
2.41627	49.69
2.43293	49.70
2.44960	49.70
2.46627	49.71
2.48293	49.73
2.49960	49.75
2.51627	49.75
2.53293	49.75
2.54960	49.78
2.56627	49.80
2.58293	49.81
2.59960	49.81
2.61627	49.81
2.63293	49.82
2.64960	49.83
2.66627	49.84
2.68293	49.86
2.69960	49.86
2.71627	49.85
2.73293	49.86
2.74960	49.87
2.76627	49.86
2.78293	49.85
2.79960	49.86
2.81627	49.86
2.83293	49.87
2.84960	49.88
2.86627	49.89
2.88293	49.90
2.89960	49.92
2.91627	49.93
2.93293	49.95
2.94960	49.96
2.96627	49.97
2.98293	50.00
2.99960	50.01
3.01627	50.02
3.03293	50.02
3.04960	50.03
3.06627	50.04
3.08293	50.04
3.09960	50.04
3.11627	50.04
3.13293	50.05
3.14960	50.06
3.16627	50.07
3.18293	50.08
3.19960	50.10
3.21627	50.11
3.23293	50.12
3.24960	50.12
3.26627	50.11
3.28293	50.09
3.29960	50.08
3.31627	50.05
3.33293	50.02
3.34960	50.02
3.36627	50.01
3.38293	50.02
3.39960	50.03
3.41627	50.03
3.43293	50.03
3.44960	50.03
3.46627	50.02
3.48293	50.02
3.49960	50.02
3.51627	50.01
3.53293	50.01
3.54960	50.02
3.56627	50.02
3.58293	50.02
3.59960	50.01
3.61627	50.02
3.63293	50.02
3.64960	50.02
3.66627	50.02
3.68293	50.02
3.69960	50.02
3.71627	50.02
3.73293	50.01
3.74960	50.02
3.76627	50.02
3.78293	50.04
3.79960	50.03
3.81627	50.04
3.83293	50.03
3.84960	50.05
3.86627	50.05
3.88293	50.05
3.89960	50.05
3.91627	50.06
3.93293	50.06
3.94960	50.05
3.96627	50.05
3.98293	50.05
3.99960	50.05

[Status Trace (Injection Unit Temperature)]
Interval(msec)	1000
# of Points	240
Start Time(min)	0.016
End Time(min)	4.000
Intensity Units	
Intensity Multiplier	1
R.Time (min)	Intensity
0.01627	99.98
0.03293	99.98
0.04960	99.98
0.06627	99.98
0.08293	99.98
0.09960	99.98
0.11627	99.98
0.13293	99.98
0.14960	99.99
0.16627	99.98
0.18293	99.98
0.19960	99.99
0.21627	99.98
0.23293	99.98
0.24960	99.99
0.26627	99.99
0.28293	99.98
0.29960	99.99
0.31627	99.98
0.33293	99.99
0.34960	99.99
0.36627	99.99
0.38293	99.98
0.39960	99.99
0.41627	99.99
0.43293	99.98
0.44960	99.98
0.46627	99.98
0.48293	99.99
0.49960	99.99
0.51627	99.98
0.53293	99.98
0.54960	99.99
0.56627	99.98
0.58293	99.98
0.59960	99.98
0.61627	99.98
0.63293	99.98
0.64960	99.98
0.66627	99.98
0.68293	99.98
0.69960	99.98
0.71627	99.98
0.73293	99.98
0.74960	99.98
0.76627	99.98
0.78293	99.98
0.79960	99.98
0.81627	99.98
0.83293	99.98
0.84960	99.98
0.86627	99.98
0.88293	99.98
0.89960	99.98
0.91627	99.98
0.93293	99.98
0.94960	99.98
0.96627	99.99
0.98293	99.98
0.99960	99.98
1.01627	99.98
1.03293	99.98
1.04960	99.99
1.06627	99.98
1.08293	99.98
1.09960	99.98
1.11627	99.98
1.13293	99.99
1.14960	99.98
1.16627	99.99
1.18293	99.99
1.19960	99.99
1.21627	99.99
1.23293	99.99
1.24960	99.99
1.26627	99.98
1.28293	99.99
1.29960	99.99
1.31627	99.99
1.33293	99.99
1.34960	99.98
1.36627	99.99
1.38293	99.99
1.39960	99.99
1.41627	99.99
1.43293	99.99
1.44960	99.99
1.46627	99.99
1.48293	99.99
1.49960	99.99
1.51627	99.99
1.53293	99.99
1.54960	99.98
1.56627	99.99
1.58293	99.99
1.59960	99.99
1.61627	99.98
1.63293	99.99
1.64960	99.98
1.66627	99.99
1.68293	99.99
1.69960	99.99
1.71627	99.99
1.73293	99.99
1.74960	99.98
1.76627	99.99
1.78293	99.98
1.79960	99.98
1.81627	99.98
1.83293	99.98
1.84960	99.98
1.86627	99.98
1.88293	99.98
1.89960	99.97
1.91627	99.98
1.93293	99.97
1.94960	99.97
1.96627	99.97
1.98293	99.97
1.99960	99.97
2.01627	99.97
2.03293	99.97
2.04960	99.96
2.06627	99.96
2.08293	99.97
2.09960	99.97
2.11627	99.96
2.13293	99.96
2.14960	99.96
2.16627	99.96
2.18293	99.96
2.19960	99.96
2.21627	99.96
2.23293	99.96
2.24960	99.96
2.26627	99.96
2.28293	99.96
2.29960	99.96
2.31627	99.96
2.33293	99.96
2.34960	99.96
2.36627	99.96
2.38293	99.96
2.39960	99.97
2.41627	99.96
2.43293	99.96
2.44960	99.96
2.46627	99.97
2.48293	99.96
2.49960	99.97
2.51627	99.97
2.53293	99.96
2.54960	99.97
2.56627	99.97
2.58293	99.98
2.59960	99.98
2.61627	99.98
2.63293	99.98
2.64960	99.98
2.66627	99.98
2.68293	99.98
2.69960	99.99
2.71627	99.99
2.73293	99.99
2.74960	99.99
2.76627	99.99
2.78293	99.99
2.79960	100.00
2.81627	100.00
2.83293	100.00
2.84960	100.00
2.86627	100.00
2.88293	100.01
2.89960	100.01
2.91627	100.01
2.93293	100.00
2.94960	100.01
2.96627	100.01
2.98293	100.01
2.99960	100.01
3.01627	100.02
3.03293	100.01
3.04960	100.02
3.06627	100.02
3.08293	100.02
3.09960	100.02
3.11627	100.02
3.13293	100.03
3.14960	100.03
3.16627	100.03
3.18293	100.03
3.19960	100.03
3.21627	100.04
3.23293	100.03
3.24960	100.04
3.26627	100.04
3.28293	100.04
3.29960	100.05
3.31627	100.05
3.33293	100.05
3.34960	100.05
3.36627	100.05
3.38293	100.05
3.39960	100.05
3.41627	100.06
3.43293	100.06
3.44960	100.06
3.46627	100.06
3.48293	100.06
3.49960	100.06
3.51627	100.06
3.53293	100.06
3.54960	100.06
3.56627	100.06
3.58293	100.07
3.59960	100.07
3.61627	100.07
3.63293	100.07
3.64960	100.07
3.66627	100.07
3.68293	100.07
3.69960	100.07
3.71627	100.07
3.73293	100.08
3.74960	100.07
3.76627	100.07
3.78293	100.07
3.79960	100.08
3.81627	100.07
3.83293	100.08
3.84960	100.08
3.86627	100.08
3.88293	100.08
3.89960	100.07
3.91627	100.08
3.93293	100.08
3.94960	100.08
3.96627	100.07
3.98293	100.08
3.99960	100.08

[Status Trace (Carrier Gas Pressure)]
Interval(msec)	1000
# of Points	240
Start Time(min)	0.016
End Time(min)	4.000
Intensity Units	
Intensity Multiplier	1
R.Time (min)	Intensity
0.01627	56.88
0.03293	55.87
0.04960	58.09
0.06627	59.90
0.08293	58.57
0.09960	57.98
0.11627	58.00
0.13293	58.01
0.14960	58.01
0.16627	58.00
0.18293	58.00
0.19960	58.00
0.21627	58.00
0.23293	58.00
0.24960	58.00
0.26627	58.00
0.28293	58.00
0.29960	58.00
0.31627	58.00
0.33293	58.00
0.34960	58.00
0.36627	58.00
0.38293	58.00
0.39960	58.00
0.41627	58.00
0.43293	58.00
0.44960	58.00
0.46627	58.00
0.48293	58.00
0.49960	58.00
0.51627	58.00
0.53293	58.00
0.54960	58.00
0.56627	58.00
0.58293	58.00
0.59960	58.00
0.61627	58.00
0.63293	58.00
0.64960	58.00
0.66627	58.00
0.68293	58.00
0.69960	58.00
0.71627	58.00
0.73293	58.00
0.74960	58.00
0.76627	58.00
0.78293	58.00
0.79960	58.00
0.81627	58.00
0.83293	58.00
0.84960	58.00
0.86627	58.00
0.88293	58.00
0.89960	58.00
0.91627	58.00
0.93293	58.00
0.94960	58.00
0.96627	58.00
0.98293	58.00
0.99960	58.00
1.01627	58.00
1.03293	58.00
1.04960	58.00
1.06627	58.00
1.08293	58.00
1.09960	58.00
1.11627	58.00
1.13293	58.00
1.14960	58.00
1.16627	58.00
1.18293	58.00
1.19960	58.00
1.21627	58.00
1.23293	58.00
1.24960	58.00
1.26627	58.00
1.28293	58.00
1.29960	58.00
1.31627	58.00
1.33293	58.00
1.34960	58.00
1.36627	58.00
1.38293	58.00
1.39960	58.00
1.41627	58.00
1.43293	58.00
1.44960	58.00
1.46627	58.00
1.48293	58.00
1.49960	58.00
1.51627	58.00
1.53293	58.00
1.54960	58.00
1.56627	58.00
1.58293	58.00
1.59960	58.00
1.61627	58.00
1.63293	58.00
1.64960	58.00
1.66627	58.01
1.68293	58.01
1.69960	58.00
1.71627	58.00
1.73293	58.00
1.74960	58.00
1.76627	58.00
1.78293	58.00
1.79960	58.00
1.81627	58.00
1.83293	58.00
1.84960	58.00
1.86627	58.00
1.88293	58.00
1.89960	58.00
1.91627	58.00
1.93293	58.00
1.94960	58.00
1.96627	58.00
1.98293	58.00
1.99960	58.00
2.01627	58.00
2.03293	58.00
2.04960	58.00
2.06627	58.00
2.08293	58.00
2.09960	58.00
2.11627	58.00
2.13293	58.00
2.14960	58.00
2.16627	58.00
2.18293	58.00
2.19960	58.00
2.21627	58.00
2.23293	58.00
2.24960	58.00
2.26627	58.00
2.28293	58.00
2.29960	58.00
2.31627	58.00
2.33293	58.00
2.34960	58.00
2.36627	58.00
2.38293	57.99
2.39960	57.99
2.41627	58.00
2.43293	58.00
2.44960	58.00
2.46627	58.00
2.48293	58.00
2.49960	58.00
2.51627	57.98
2.53293	57.99
2.54960	58.00
2.56627	58.00
2.58293	58.00
2.59960	58.00
2.61627	58.00
2.63293	58.00
2.64960	58.00
2.66627	58.00
2.68293	58.00
2.69960	58.00
2.71627	58.00
2.73293	58.00
2.74960	58.00
2.76627	58.00
2.78293	58.00
2.79960	58.00
2.81627	58.00
2.83293	58.00
2.84960	58.00
2.86627	58.00
2.88293	58.00
2.89960	58.00
2.91627	58.00
2.93293	58.00
2.94960	58.00
2.96627	58.00
2.98293	58.00
2.99960	58.00
3.01627	58.00
3.03293	58.00
3.04960	58.00
3.06627	58.00
3.08293	58.00
3.09960	58.00
3.11627	58.00
3.13293	58.00
3.14960	58.00
3.16627	58.00
3.18293	58.00
3.19960	58.00
3.21627	58.00
3.23293	58.00
3.24960	58.00
3.26627	58.00
3.28293	58.00
3.29960	58.00
3.31627	58.00
3.33293	58.00
3.34960	58.00
3.36627	58.00
3.38293	58.00
3.39960	58.00
3.41627	58.00
3.43293	58.00
3.44960	58.00
3.46627	58.00
3.48293	58.00
3.49960	58.00
3.51627	58.00
3.53293	58.00
3.54960	58.00
3.56627	58.00
3.58293	58.00
3.59960	58.00
3.61627	58.00
3.63293	58.00
3.64960	58.00
3.66627	58.00
3.68293	58.00
3.69960	58.00
3.71627	58.00
3.73293	58.00
3.74960	58.00
3.76627	58.00
3.78293	58.00
3.79960	58.00
3.81627	58.00
3.83293	58.00
3.84960	58.00
3.86627	58.00
3.88293	58.00
3.89960	58.00
3.91627	58.00
3.93293	58.00
3.94960	58.00
3.96627	58.00
3.98293	58.00
3.99960	58.00

[Status Trace (Carrier Gas Flow)]
Interval(msec)	1000
# of Points	240
Start Time(min)	0.016
End Time(min)	4.000
Intensity Units	
Intensity Multiplier	1
R.Time (min)	Intensity
0.01627	33.84
0.03293	34.54
0.04960	34.55
0.06627	34.51
0.08293	34.50
0.09960	34.52
0.11627	34.52
0.13293	34.52
0.14960	34.52
0.16627	34.52
0.18293	34.52
0.19960	34.52
0.21627	34.52
0.23293	34.52
0.24960	34.52
0.26627	34.52
0.28293	34.52
0.29960	34.52
0.31627	34.52
0.33293	34.52
0.34960	34.52
0.36627	34.52
0.38293	34.51
0.39960	34.52
0.41627	34.52
0.43293	34.52
0.44960	34.52
0.46627	34.52
0.48293	34.52
0.49960	34.52
0.51627	34.52
0.53293	34.52
0.54960	34.52
0.56627	34.52
0.58293	34.52
0.59960	34.52
0.61627	34.52
0.63293	34.52
0.64960	34.52
0.66627	34.51
0.68293	34.52
0.69960	34.51
0.71627	34.52
0.73293	34.51
0.74960	34.52
0.76627	34.52
0.78293	34.52
0.79960	34.51
0.81627	34.52
0.83293	34.52
0.84960	34.52
0.86627	34.51
0.88293	34.53
0.89960	34.52
0.91627	34.52
0.93293	34.52
0.94960	34.51
0.96627	34.52
0.98293	34.52
0.99960	34.52
1.01627	34.52
1.03293	34.53
1.04960	34.52
1.06627	34.52
1.08293	34.52
1.09960	34.52
1.11627	34.53
1.13293	34.52
1.14960	34.53
1.16627	34.52
1.18293	34.51
1.19960	34.52
1.21627	34.50
1.23293	34.52
1.24960	34.53
1.26627	34.52
1.28293	34.51
1.29960	34.51
1.31627	34.53
1.33293	34.51
1.34960	34.51
1.36627	34.52
1.38293	34.52
1.39960	34.54
1.41627	34.53
1.43293	34.51
1.44960	34.52
1.46627	34.53
1.48293	34.52
1.49960	34.52
1.51627	34.52
1.53293	34.52
1.54960	34.52
1.56627	34.52
1.58293	34.52
1.59960	34.52
1.61627	34.53
1.63293	34.53
1.64960	34.51
1.66627	34.52
1.68293	34.53
1.69960	34.52
1.71627	34.52
1.73293	34.51
1.74960	34.51
1.76627	34.52
1.78293	34.53
1.79960	34.52
1.81627	34.52
1.83293	34.52
1.84960	34.52
1.86627	34.51
1.88293	34.51
1.89960	34.52
1.91627	34.52
1.93293	34.52
1.94960	34.52
1.96627	34.52
1.98293	34.52
1.99960	34.51
2.01627	34.52
2.03293	34.52
2.04960	34.52
2.06627	34.52
2.08293	34.52
2.09960	34.52
2.11627	34.52
2.13293	34.52
2.14960	34.52
2.16627	34.52
2.18293	34.52
2.19960	34.52
2.21627	34.52
2.23293	34.52
2.24960	34.52
2.26627	34.52
2.28293	34.52
2.29960	34.52
2.31627	34.52
2.33293	34.52
2.34960	34.52
2.36627	34.52
2.38293	34.52
2.39960	34.52
2.41627	34.52
2.43293	34.52
2.44960	34.52
2.46627	34.52
2.48293	34.52
2.49960	34.52
2.51627	34.52
2.53293	34.52
2.54960	34.52
2.56627	34.52
2.58293	34.53
2.59960	34.52
2.61627	34.52
2.63293	34.52
2.64960	34.52
2.66627	34.52
2.68293	34.52
2.69960	34.52
2.71627	34.52
2.73293	34.52
2.74960	34.52
2.76627	34.52
2.78293	34.52
2.79960	34.52
2.81627	34.52
2.83293	34.52
2.84960	34.52
2.86627	34.52
2.88293	34.52
2.89960	34.52
2.91627	34.52
2.93293	34.52
2.94960	34.52
2.96627	34.52
2.98293	34.52
2.99960	34.52
3.01627	34.52
3.03293	34.52
3.04960	34.52
3.06627	34.52
3.08293	34.52
3.09960	34.52
3.11627	34.52
3.13293	34.52
3.14960	34.52
3.16627	34.52
3.18293	34.52
3.19960	34.52
3.21627	34.52
3.23293	34.52
3.24960	34.52
3.26627	34.52
3.28293	34.52
3.29960	34.52
3.31627	34.52
3.33293	34.52
3.34960	34.52
3.36627	34.52
3.38293	34.52
3.39960	34.52
3.41627	34.52
3.43293	34.52
3.44960	34.51
3.46627	34.52
3.48293	34.52
3.49960	34.52
3.51627	34.52
3.53293	34.52
3.54960	34.52
3.56627	34.52
3.58293	34.52
3.59960	34.51
3.61627	34.52
3.63293	34.52
3.64960	34.51
3.66627	34.52
3.68293	34.52
3.69960	34.54
3.71627	34.52
3.73293	34.53
3.74960	34.52
3.76627	34.51
3.78293	34.53
3.79960	34.52
3.81627	34.53
3.83293	34.51
3.84960	34.51
3.86627	34.52
3.88293	34.54
3.89960	34.54
3.91627	34.52
3.93293	34.54
3.94960	34.51
3.96627	34.52
3.98293	34.53
3.99960	34.52

[Status Trace (Column Flow)]
Interval(msec)	1000
# of Points	240
Start Time(min)	0.016
End Time(min)	4.000
Intensity Units	
Intensity Multiplier	1
R.Time (min)	Intensity
0.01627	5.37
0.03293	5.25
0.04960	5.51
0.06627	5.72
0.08293	5.56
0.09960	5.49
0.11627	5.50
0.13293	5.50
0.14960	5.50
0.16627	5.50
0.18293	5.50
0.19960	5.50
0.21627	5.50
0.23293	5.50
0.24960	5.50
0.26627	5.50
0.28293	5.50
0.29960	5.50
0.31627	5.50
0.33293	5.50
0.34960	5.50
0.36627	5.50
0.38293	5.50
0.39960	5.50
0.41627	5.50
0.43293	5.50
0.44960	5.50
0.46627	5.50
0.48293	5.50
0.49960	5.50
0.51627	5.50
0.53293	5.50
0.54960	5.50
0.56627	5.50
0.58293	5.50
0.59960	5.50
0.61627	5.50
0.63293	5.50
0.64960	5.50
0.66627	5.50
0.68293	5.50
0.69960	5.50
0.71627	5.50
0.73293	5.50
0.74960	5.50
0.76627	5.50
0.78293	5.50
0.79960	5.50
0.81627	5.50
0.83293	5.50
0.84960	5.50
0.86627	5.50
0.88293	5.50
0.89960	5.50
0.91627	5.50
0.93293	5.50
0.94960	5.50
0.96627	5.50
0.98293	5.50
0.99960	5.50
1.01627	5.50
1.03293	5.50
1.04960	5.50
1.06627	5.50
1.08293	5.50
1.09960	5.50
1.11627	5.50
1.13293	5.50
1.14960	5.50
1.16627	5.50
1.18293	5.50
1.19960	5.50
1.21627	5.50
1.23293	5.50
1.24960	5.50
1.26627	5.50
1.28293	5.50
1.29960	5.50
1.31627	5.50
1.33293	5.50
1.34960	5.50
1.36627	5.50
1.38293	5.50
1.39960	5.50
1.41627	5.50
1.43293	5.50
1.44960	5.50
1.46627	5.50
1.48293	5.50
1.49960	5.50
1.51627	5.50
1.53293	5.50
1.54960	5.50
1.56627	5.50
1.58293	5.50
1.59960	5.50
1.61627	5.50
1.63293	5.49
1.64960	5.48
1.66627	5.47
1.68293	5.46
1.69960	5.45
1.71627	5.44
1.73293	5.43
1.74960	5.42
1.76627	5.41
1.78293	5.40
1.79960	5.39
1.81627	5.38
1.83293	5.37
1.84960	5.36
1.86627	5.35
1.88293	5.34
1.89960	5.33
1.91627	5.32
1.93293	5.31
1.94960	5.30
1.96627	5.29
1.98293	5.28
1.99960	5.27
2.01627	5.26
2.03293	5.25
2.04960	5.24
2.06627	5.23
2.08293	5.22
2.09960	5.22
2.11627	5.21
2.13293	5.20
2.14960	5.19
2.16627	5.18
2.18293	5.17
2.19960	5.16
2.21627	5.15
2.23293	5.14
2.24960	5.13
2.26627	5.12
2.28293	5.11
2.29960	5.10
2.31627	5.09
2.33293	5.08
2.34960	5.08
2.36627	5.07
2.38293	5.07
2.39960	5.06
2.41627	5.06
2.43293	5.06
2.44960	5.06
2.46627	5.06
2.48293	5.06
2.49960	5.06
2.51627	5.06
2.53293	5.06
2.54960	5.06
2.56627	5.06
2.58293	5.06
2.59960	5.06
2.61627	5.06
2.63293	5.06
2.64960	5.06
2.66627	5.06
2.68293	5.06
2.69960	5.06
2.71627	5.06
2.73293	5.06
2.74960	5.06
2.76627	5.06
2.78293	5.06
2.79960	5.06
2.81627	5.06
2.83293	5.06
2.84960	5.06
2.86627	5.06
2.88293	5.06
2.89960	5.06
2.91627	5.06
2.93293	5.06
2.94960	5.06
2.96627	5.06
2.98293	5.06
2.99960	5.06
3.01627	5.06
3.03293	5.06
3.04960	5.06
3.06627	5.06
3.08293	5.06
3.09960	5.06
3.11627	5.06
3.13293	5.06
3.14960	5.05
3.16627	5.05
3.18293	5.05
3.19960	5.05
3.21627	5.05
3.23293	5.05
3.24960	5.05
3.26627	5.05
3.28293	5.05
3.29960	5.05
3.31627	5.06
3.33293	5.06
3.34960	5.06
3.36627	5.06
3.38293	5.06
3.39960	5.06
3.41627	5.06
3.43293	5.06
3.44960	5.06
3.46627	5.06
3.48293	5.06
3.49960	5.06
3.51627	5.06
3.53293	5.06
3.54960	5.06
3.56627	5.06
3.58293	5.06
3.59960	5.06
3.61627	5.06
3.63293	5.06
3.64960	5.06
3.66627	5.06
3.68293	5.06
3.69960	5.06
3.71627	5.06
3.73293	5.06
3.74960	5.06
3.76627	5.06
3.78293	5.06
3.79960	5.06
3.81627	5.06
3.83293	5.06
3.84960	5.06
3.86627	5.06
3.88293	5.06
3.89960	5.06
3.91627	5.06
3.93293	5.05
3.94960	5.06
3.96627	5.06
3.98293	5.06
3.99960	5.06

[Status Trace (Linear Velocity)]
Interval(msec)	1000
# of Points	240
Start Time(min)	0.016
End Time(min)	4.000
Intensity Units	
Intensity Multiplier	1
R.Time (min)	Intensity
0.01627	38.28
0.03293	37.62
0.04960	39.07
0.06627	40.25
0.08293	39.38
0.09960	38.99
0.11627	39.01
0.13293	39.02
0.14960	39.01
0.16627	39.01
0.18293	39.01
0.19960	39.01
0.21627	39.02
0.23293	39.02
0.24960	39.02
0.26627	39.02
0.28293	39.01
0.29960	39.01
0.31627	39.01
0.33293	39.01
0.34960	39.01
0.36627	39.01
0.38293	39.01
0.39960	39.02
0.41627	39.02
0.43293	39.02
0.44960	39.02
0.46627	39.02
0.48293	39.02
0.49960	39.01
0.51627	39.01
0.53293	39.01
0.54960	39.01
0.56627	39.01
0.58293	39.01
0.59960	39.01
0.61627	39.01
0.63293	39.01
0.64960	39.01
0.66627	39.01
0.68293	39.01
0.69960	39.01
0.71627	39.01
0.73293	39.01
0.74960	39.01
0.76627	39.01
0.78293	39.01
0.79960	39.01
0.81627	39.01
0.83293	39.01
0.84960	39.01
0.86627	39.01
0.88293	39.01
0.89960	39.01
0.91627	39.01
0.93293	39.01
0.94960	39.01
0.96627	39.01
0.98293	39.01
0.99960	39.01
1.01627	39.01
1.03293	39.01
1.04960	39.01
1.06627	39.02
1.08293	39.02
1.09960	39.01
1.11627	39.01
1.13293	39.01
1.14960	39.01
1.16627	39.01
1.18293	39.01
1.19960	39.01
1.21627	39.01
1.23293	39.01
1.24960	39.01
1.26627	39.01
1.28293	39.01
1.29960	39.01
1.31627	39.01
1.33293	39.01
1.34960	39.01
1.36627	39.01
1.38293	39.01
1.39960	39.01
1.41627	39.01
1.43293	39.01
1.44960	39.01
1.46627	39.01
1.48293	39.01
1.49960	39.01
1.51627	39.01
1.53293	39.01
1.54960	39.01
1.56627	39.01
1.58293	39.01
1.59960	39.01
1.61627	39.01
1.63293	38.99
1.64960	38.97
1.66627	38.94
1.68293	38.91
1.69960	38.87
1.71627	38.84
1.73293	38.80
1.74960	38.77
1.76627	38.74
1.78293	38.71
1.79960	38.68
1.81627	38.65
1.83293	38.62
1.84960	38.58
1.86627	38.55
1.88293	38.52
1.89960	38.49
1.91627	38.46
1.93293	38.43
1.94960	38.41
1.96627	38.38
1.98293	38.34
1.99960	38.31
2.01627	38.28
2.03293	38.25
2.04960	38.22
2.06627	38.19
2.08293	38.16
2.09960	38.13
2.11627	38.10
2.13293	38.07
2.14960	38.04
2.16627	38.01
2.18293	37.98
2.19960	37.96
2.21627	37.92
2.23293	37.89
2.24960	37.86
2.26627	37.84
2.28293	37.81
2.29960	37.78
2.31627	37.74
2.33293	37.72
2.34960	37.69
2.36627	37.67
2.38293	37.65
2.39960	37.65
2.41627	37.65
2.43293	37.65
2.44960	37.65
2.46627	37.65
2.48293	37.65
2.49960	37.65
2.51627	37.64
2.53293	37.64
2.54960	37.65
2.56627	37.65
2.58293	37.64
2.59960	37.64
2.61627	37.64
2.63293	37.64
2.64960	37.64
2.66627	37.64
2.68293	37.64
2.69960	37.64
2.71627	37.64
2.73293	37.64
2.74960	37.64
2.76627	37.64
2.78293	37.64
2.79960	37.64
2.81627	37.64
2.83293	37.64
2.84960	37.64
2.86627	37.64
2.88293	37.64
2.89960	37.63
2.91627	37.63
2.93293	37.63
2.94960	37.63
2.96627	37.63
2.98293	37.63
2.99960	37.63
3.01627	37.62
3.03293	37.63
3.04960	37.62
3.06627	37.62
3.08293	37.62
3.09960	37.62
3.11627	37.62
3.13293	37.62
3.14960	37.62
3.16627	37.62
3.18293	37.62
3.19960	37.62
3.21627	37.62
3.23293	37.62
3.24960	37.62
3.26627	37.62
3.28293	37.62
3.29960	37.62
3.31627	37.62
3.33293	37.62
3.34960	37.63
3.36627	37.63
3.38293	37.63
3.39960	37.62
3.41627	37.62
3.43293	37.62
3.44960	37.62
3.46627	37.63
3.48293	37.63
3.49960	37.63
3.51627	37.63
3.53293	37.63
3.54960	37.63
3.56627	37.63
3.58293	37.63
3.59960	37.63
3.61627	37.63
3.63293	37.63
3.64960	37.63
3.66627	37.63
3.68293	37.63
3.69960	37.63
3.71627	37.63
3.73293	37.63
3.74960	37.63
3.76627	37.63
3.78293	37.62
3.79960	37.62
3.81627	37.62
3.83293	37.62
3.84960	37.62
3.86627	37.62
3.88293	37.62
3.89960	37.62
3.91627	37.62
3.93293	37.62
3.94960	37.62
3.96627	37.62
3.98293	37.62
3.99960	37.62

