[Header]
Application Name	LabSolutions
Version	5.110
Data File Name	C:\Users\User\Desktop\GC Analyses\Jack\UIC Prairie Sampling\7.9.22\220909_071.gcd
Output Date	9/28/2022
Output Time	11:29:53 AM

[File Information]
Type	Data File
Generated	9/15/2022 1:03:51 PM
Generated by	System Administrator
Modified	9/15/2022 1:08:23 PM
Modified by	System Administrator

[Sample Information]
Operator Name	System Administrator
Acquired	9/15/2022 1:04:23 PM
Sample Type	1:Standard
Level	1
Sample Name	220909_Run
Sample ID	220909_Run
ISTD Amount1	1
ISTD Amount2	1
ISTD Amount3	1
ISTD Amount4	1
ISTD Amount5	1
ISTD Amount6	1
ISTD Amount7	1
ISTD Amount8	1
ISTD Amount9	1
ISTD Amount10	1
ISTD Amount11	1
ISTD Amount12	1
ISTD Amount13	1
ISTD Amount14	1
ISTD Amount15	1
ISTD Amount16	1
ISTD Amount17	1
ISTD Amount18	1
ISTD Amount19	1
ISTD Amount20	1
ISTD Amount21	1
ISTD Amount22	1
ISTD Amount23	1
ISTD Amount24	1
ISTD Amount25	1
ISTD Amount26	1
ISTD Amount27	1
ISTD Amount28	1
ISTD Amount29	1
ISTD Amount30	1
ISTD Amount31	1
ISTD Amount32	1
Sample Amount	1
Dilution Factor	1
Vial#	1
Injection Volume	1
Injection Count	1
Bar Code	

[Original Files]
Data File	C:\Users\User\Desktop\GC Analyses\Jack\220909\220909_071.gcd
Method File	C:\LabSolutions\Data\GHG_4min_2022\ghg3_togas_w_acet_4 min_new_int.gcm
Batch File	
Report Format File	c:\LabSolutions\System\DEFAULT.lsr

[File Description]


[Configuration]
Instrument Name	C0B7VH3-Instrument1
Instrument #	1
Line #	1
# of Detectors	3
Detector ID	DET#1	DET#2	DET#3
Detector Name	FID	PTCD	ECD
# of Channels	1	1	1

[Peak Table(Ch1)]
# of Peaks	3
Peak#	R.Time	I.Time	F.Time	Area	Height	A/H	Conc.	Mark	ID#	Name	k'	Plate #	Plate Ht.	Tailing	Resolution	Sep.Factor	Area Ratio	Height Ratio	Conc. %	Norm Conc.
1	1.479	1.457	1.527	3108	1707	1.821	100.000	   	1	CO	0.000	11810	12.701	1.601	0.000	0.000	0	0	16.667	16.667
2	1.578	1.556	1.608	1718	1279	1.344	100.000	   	2	CH4	0.067	22885	6.555	1.185	2.059	0.000	0	0	16.667	16.667
3	2.007	1.956	2.154	248813	149831	1.661	400.000	   	3	CO2	0.357	26742	5.609	1.238	9.446	5.333	0	0	66.667	66.667

[Peak Table(Ch2)]
# of Peaks	0

[Peak Table(Ch3)]
# of Peaks	2
Peak#	R.Time	I.Time	F.Time	Area	Height	A/H	Conc.	Mark	ID#	Name	k'	Plate #	Plate Ht.	Tailing	Resolution	Sep.Factor	Area Ratio	Height Ratio	Conc. %	Norm Conc.
1	2.458	1.630	2.660	6105	212	28.841	0.000	   			0.000	115	1306.255	0.633	0.000	0.000	0	0	0.000	0.000
2	2.887	2.700	3.932	33682	2802	12.022	1.000	   	1	N2O	0.175	9683	15.491	2.714	0.829	0.000	0	0	100.000	100.000

[Compound Results(Ch1)]
# of IDs	6
ID#	Name	R.Time	Area	Height	Conc.	Curve	3rd	2nd	1st	Constant	Area Ratio	Height Ratio	Conc. %	Norm Conc.
1	CO	1.479	3108	1707	100.000	Linear	0.000000e+00	0.000000e+00	3.108470e+001	0.000000e+00	0	0	16.667	16.667
2	CH4	1.578	1718	1279	100.000	Linear	0.000000e+00	0.000000e+00	1.718495e+001	0.000000e+00	0	0	16.667	16.667
3	CO2	2.007	248813	149831	400.000	Linear	0.000000e+00	0.000000e+00	6.220328e+002	0.000000e+00	0	0	66.667	66.667
4	Ethylene	0.000	0	0	0.000	Linear	0.000000e+00	0.000000e+00	0.000000e+00	0.000000e+00	0	0	0.000	0.000
5	Acetylene	0.000	0	0	0.000	Linear	0.000000e+00	0.000000e+00	0.000000e+00	0.000000e+00	0	0	0.000	0.000
6	Ethane	0.000	0	0	0.000	Linear	0.000000e+00	0.000000e+00	0.000000e+00	0.000000e+00	0	0	0.000	0.000

[Compound Results(Ch2)]
# of IDs	5
ID#	Name	R.Time	Area	Height	Conc.	Curve	3rd	2nd	1st	Constant	Area Ratio	Height Ratio	Conc. %	Norm Conc.
1	Hydrogen	0.000	0	0	0.000	Linear	0.000000e+00	0.000000e+00	0.000000e+00	0.000000e+00	0	0	0.000	0.000
2	Oxygen	0.000	0	0	0.000	Linear	0.000000e+00	0.000000e+00	0.000000e+00	0.000000e+00	0	0	0.000	0.000
3	Nitrogen	0.000	0	0	0.000	Linear	0.000000e+00	0.000000e+00	0.000000e+00	0.000000e+00	0	0	0.000	0.000
4	Methane	0.000	0	0	0.000	Linear	0.000000e+00	0.000000e+00	0.000000e+00	0.000000e+00	0	0	0.000	0.000
5	Carbon Monoxide	0.000	0	0	0.000	Linear	0.000000e+00	0.000000e+00	0.000000e+00	0.000000e+00	0	0	0.000	0.000

[Compound Results(Ch3)]
# of IDs	2
ID#	Name	R.Time	Area	Height	Conc.	Curve	3rd	2nd	1st	Constant	Area Ratio	Height Ratio	Conc. %	Norm Conc.
1	N2O	2.887	33682	2802	1.000	Linear	0.000000e+00	0.000000e+00	3.368219e+004	0.000000e+00	0	0	100.000	100.000
2	SF6	0.000	0	0	0.000	Linear	0.000000e+00	0.000000e+00	0.000000e+00	0.000000e+00	0	0	0.000	0.000

[Group Results(Ch1)]
# of Groups	0

[Group Results(Ch2)]
# of Groups	0

[Group Results(Ch3)]
# of Groups	0

[Chromatogram (Ch1)]
Interval(msec)	220
# of Points	1091
Start Time(min)	0.002
End Time(min)	3.998
R.Time (min)	Intensity
0.00167	-28
0.00533	-28
0.00900	-27
0.01267	-28
0.01633	-30
0.02000	-33
0.02367	-35
0.02733	-34
0.03100	-30
0.03467	-26
0.03833	-24
0.04200	-24
0.04567	-26
0.04933	-25
0.05300	-22
0.05667	-20
0.06033	-18
0.06400	-17
0.06767	-18
0.07133	-19
0.07500	-20
0.07867	-19
0.08233	-19
0.08600	-19
0.08967	-19
0.09333	-20
0.09700	-20
0.10067	-19
0.10433	-16
0.10800	-13
0.11167	-15
0.11533	-21
0.11900	-28
0.12267	-32
0.12633	-32
0.13000	-28
0.13367	-26
0.13733	-25
0.14100	-22
0.14467	-17
0.14833	-10
0.15200	-5
0.15567	-5
0.15933	-12
0.16300	-19
0.16667	-25
0.17033	-30
0.17400	-34
0.17767	-37
0.18133	-38
0.18500	-34
0.18867	-31
0.19233	-27
0.19600	-24
0.19967	-23
0.20333	-24
0.20700	-28
0.21067	-30
0.21433	-29
0.21800	-26
0.22167	-24
0.22533	-23
0.22900	-25
0.23267	-29
0.23633	-34
0.24000	-37
0.24367	-36
0.24733	-33
0.25100	-27
0.25467	-24
0.25833	-25
0.26200	-30
0.26567	-37
0.26933	-39
0.27300	-40
0.27667	-39
0.28033	-37
0.28400	-31
0.28767	-25
0.29133	-22
0.29500	-22
0.29867	-23
0.30233	-21
0.30600	-19
0.30967	-21
0.31333	-27
0.31700	-33
0.32067	-38
0.32433	-44
0.32800	-49
0.33167	-48
0.33533	-46
0.33900	-43
0.34267	-41
0.34633	-42
0.35000	-44
0.35367	-44
0.35733	-42
0.36100	-36
0.36467	-32
0.36833	-33
0.37200	-36
0.37567	-39
0.37933	-39
0.38300	-39
0.38667	-38
0.39033	-40
0.39400	-44
0.39767	-47
0.40133	-49
0.40500	-48
0.40867	-43
0.41233	-37
0.41600	-31
0.41967	-27
0.42333	-27
0.42700	-27
0.43067	-29
0.43433	-32
0.43800	-38
0.44167	-43
0.44533	-50
0.44900	-58
0.45267	-62
0.45633	-61
0.46000	-56
0.46367	-49
0.46733	-43
0.47100	-42
0.47467	-41
0.47833	-39
0.48200	-36
0.48567	-33
0.48933	-32
0.49300	-34
0.49667	-40
0.50033	-49
0.50400	-56
0.50767	-59
0.51133	-58
0.51500	-54
0.51867	-48
0.52233	-43
0.52600	-39
0.52967	-37
0.53333	-37
0.53700	-39
0.54067	-43
0.54433	-46
0.54800	-48
0.55167	-52
0.55533	-57
0.55900	-59
0.56267	-58
0.56633	-55
0.57000	-54
0.57367	-54
0.57733	-58
0.58100	-62
0.58467	-66
0.58833	-66
0.59200	-62
0.59567	-60
0.59933	-62
0.60300	-67
0.60667	-70
0.61033	-71
0.61400	-70
0.61767	-67
0.62133	-61
0.62500	-57
0.62867	-56
0.63233	-57
0.63600	-57
0.63967	-58
0.64333	-58
0.64700	-59
0.65067	-58
0.65433	-57
0.65800	-56
0.66167	-51
0.66533	-49
0.66900	-52
0.67267	-60
0.67633	-66
0.68000	-66
0.68367	-62
0.68733	-58
0.69100	-57
0.69467	-58
0.69833	-60
0.70200	-63
0.70567	-68
0.70933	-73
0.71300	-74
0.71667	-69
0.72033	-61
0.72400	-58
0.72767	-59
0.73133	-61
0.73500	-63
0.73867	-62
0.74233	-60
0.74600	-59
0.74967	-61
0.75333	-64
0.75700	-65
0.76067	-64
0.76433	-62
0.76800	-62
0.77167	-68
0.77533	-73
0.77900	-79
0.78267	-85
0.78633	-86
0.79000	-84
0.79367	-80
0.79733	-78
0.80100	-79
0.80467	-82
0.80833	-82
0.81200	-77
0.81567	-72
0.81933	-66
0.82300	-61
0.82667	-57
0.83033	-54
0.83400	-54
0.83767	-57
0.84133	-64
0.84500	-73
0.84867	-79
0.85233	-84
0.85600	-88
0.85967	-88
0.86333	-87
0.86700	-86
0.87067	-85
0.87433	-83
0.87800	-78
0.88167	-69
0.88533	-60
0.88900	-55
0.89267	-59
0.89633	-68
0.90000	-78
0.90367	-86
0.90733	-89
0.91100	-89
0.91467	-92
0.91833	-94
0.92200	-93
0.92567	-92
0.92933	-89
0.93300	-86
0.93667	-81
0.94033	-78
0.94400	-78
0.94767	-80
0.95133	-79
0.95500	-80
0.95867	-81
0.96233	-80
0.96600	-81
0.96967	-84
0.97333	-90
0.97700	-93
0.98067	-92
0.98433	-90
0.98800	-90
0.99167	-92
0.99533	-94
0.99900	-93
1.00267	-90
1.00633	-86
1.01000	-82
1.01367	-78
1.01733	-75
1.02100	-75
1.02467	-74
1.02833	-73
1.03200	-77
1.03567	-82
1.03933	-87
1.04300	-92
1.04667	-94
1.05033	-95
1.05400	-96
1.05767	-96
1.06133	-94
1.06500	-94
1.06867	-93
1.07233	-89
1.07600	-87
1.07967	-88
1.08333	-89
1.08700	-87
1.09067	-83
1.09433	-83
1.09800	-84
1.10167	-86
1.10533	-90
1.10900	-98
1.11267	-108
1.11633	-117
1.12000	-124
1.12367	-128
1.12733	-128
1.13100	-123
1.13467	-114
1.13833	-107
1.14200	-102
1.14567	-98
1.14933	-97
1.15300	-96
1.15667	-95
1.16033	-95
1.16400	-98
1.16767	-102
1.17133	-103
1.17500	-104
1.17867	-108
1.18233	-112
1.18600	-112
1.18967	-106
1.19333	-99
1.19700	-99
1.20067	-104
1.20433	-110
1.20800	-114
1.21167	-115
1.21533	-118
1.21900	-121
1.22267	-121
1.22633	-118
1.23000	-114
1.23367	-111
1.23733	-108
1.24100	-106
1.24467	-105
1.24833	-103
1.25200	-100
1.25567	-99
1.25933	-102
1.26300	-107
1.26667	-112
1.27033	-113
1.27400	-111
1.27767	-106
1.28133	-104
1.28500	-104
1.28867	-104
1.29233	-102
1.29600	-101
1.29967	-102
1.30333	-105
1.30700	-108
1.31067	-111
1.31433	-111
1.31800	-112
1.32167	-115
1.32533	-120
1.32900	-122
1.33267	-121
1.33633	-120
1.34000	-119
1.34367	-120
1.34733	-121
1.35100	-121
1.35467	-119
1.35833	-116
1.36200	-112
1.36567	-109
1.36933	-106
1.37300	-103
1.37667	-101
1.38033	-100
1.38400	-103
1.38767	-109
1.39133	-113
1.39500	-117
1.39867	-122
1.40233	-128
1.40600	-133
1.40967	-138
1.41333	-139
1.41700	-132
1.42067	-123
1.42433	-118
1.42800	-117
1.43167	-121
1.43533	-126
1.43900	-128
1.44267	-129
1.44633	-126
1.45000	-119
1.45367	-114
1.45733	-100
1.46100	-15
1.46467	239
1.46833	660
1.47200	1107
1.47567	1441
1.47933	1593
1.48300	1569
1.48667	1415
1.49033	1193
1.49400	949
1.49767	718
1.50133	524
1.50500	362
1.50867	223
1.51233	106
1.51600	16
1.51967	-51
1.52333	-104
1.52700	-143
1.53067	-169
1.53433	-184
1.53800	-194
1.54167	-200
1.54533	-202
1.54900	-202
1.55267	-200
1.55633	-187
1.56000	-118
1.56367	76
1.56733	419
1.57100	816
1.57467	1087
1.57833	1129
1.58200	973
1.58567	724
1.58933	475
1.59300	275
1.59667	127
1.60033	19
1.60400	-54
1.60767	-100
1.61133	-125
1.61500	-140
1.61867	-148
1.62233	-152
1.62600	-157
1.62967	-159
1.63333	-157
1.63700	-154
1.64067	-152
1.64433	-154
1.64800	-157
1.65167	-158
1.65533	-158
1.65900	-160
1.66267	-165
1.66633	-170
1.67000	-173
1.67367	-175
1.67733	-180
1.68100	-180
1.68467	-174
1.68833	-169
1.69200	-163
1.69567	-158
1.69933	-157
1.70300	-155
1.70667	-150
1.71033	-146
1.71400	-145
1.71767	-148
1.72133	-152
1.72500	-152
1.72867	-152
1.73233	-154
1.73600	-156
1.73967	-159
1.74333	-160
1.74700	-157
1.75067	-152
1.75433	-147
1.75800	-144
1.76167	-143
1.76533	-144
1.76900	-149
1.77267	-153
1.77633	-152
1.78000	-149
1.78367	-148
1.78733	-148
1.79100	-149
1.79467	-149
1.79833	-148
1.80200	-147
1.80567	-144
1.80933	-142
1.81300	-140
1.81667	-137
1.82033	-135
1.82400	-135
1.82767	-136
1.83133	-135
1.83500	-131
1.83867	-127
1.84233	-128
1.84600	-132
1.84967	-139
1.85333	-146
1.85700	-152
1.86067	-155
1.86433	-155
1.86800	-154
1.87167	-151
1.87533	-149
1.87900	-148
1.88267	-147
1.88633	-145
1.89000	-144
1.89367	-145
1.89733	-145
1.90100	-143
1.90467	-143
1.90833	-145
1.91200	-146
1.91567	-146
1.91933	-150
1.92300	-150
1.92667	-147
1.93033	-144
1.93400	-145
1.93767	-146
1.94133	-145
1.94500	-145
1.94867	-148
1.95233	-152
1.95600	-149
1.95967	-136
1.96333	-112
1.96700	-68
1.97067	22
1.97433	247
1.97800	936
1.98167	3202
1.98533	9778
1.98900	24964
1.99267	51917
1.99633	88027
2.00000	123425
2.00367	146176
2.00733	149726
2.01100	135891
2.01467	111929
2.01833	85553
2.02200	61874
2.02567	43028
2.02933	29148
2.03300	19438
2.03667	12872
2.04033	8532
2.04400	5701
2.04767	3861
2.05133	2666
2.05500	1884
2.05867	1366
2.06233	1017
2.06600	782
2.06967	620
2.07333	502
2.07700	411
2.08067	340
2.08433	284
2.08800	240
2.09167	204
2.09533	175
2.09900	152
2.10267	134
2.10633	122
2.11000	113
2.11367	102
2.11733	88
2.12100	74
2.12467	62
2.12833	53
2.13200	45
2.13567	40
2.13933	32
2.14300	26
2.14667	24
2.15033	22
2.15400	19
2.15767	19
2.16133	21
2.16500	22
2.16867	23
2.17233	18
2.17600	7
2.17967	-5
2.18333	-15
2.18700	-22
2.19067	-28
2.19433	-32
2.19800	-31
2.20167	-29
2.20533	-26
2.20900	-20
2.21267	-17
2.21633	-19
2.22000	-23
2.22367	-29
2.22733	-33
2.23100	-35
2.23467	-36
2.23833	-32
2.24200	-26
2.24567	-20
2.24933	-19
2.25300	-21
2.25667	-26
2.26033	-32
2.26400	-34
2.26767	-32
2.27133	-31
2.27500	-31
2.27867	-32
2.28233	-34
2.28600	-43
2.28967	-58
2.29333	-69
2.29700	-76
2.30067	-82
2.30433	-86
2.30800	-87
2.31167	-85
2.31533	-80
2.31900	-73
2.32267	-68
2.32633	-68
2.33000	-72
2.33367	-76
2.33733	-80
2.34100	-82
2.34467	-81
2.34833	-77
2.35200	-73
2.35567	-69
2.35933	-65
2.36300	-65
2.36667	-67
2.37033	-69
2.37400	-68
2.37767	-61
2.38133	-54
2.38500	-54
2.38867	-58
2.39233	-59
2.39600	-55
2.39967	-49
2.40333	-47
2.40700	-49
2.41067	-54
2.41433	-62
2.41800	-69
2.42167	-76
2.42533	-82
2.42900	-83
2.43267	-83
2.43633	-83
2.44000	-87
2.44367	-89
2.44733	-88
2.45100	-87
2.45467	-85
2.45833	-81
2.46200	-76
2.46567	-69
2.46933	-62
2.47300	-57
2.47667	-53
2.48033	-52
2.48400	-55
2.48767	-60
2.49133	-64
2.49500	-66
2.49867	-67
2.50233	-67
2.50600	-69
2.50967	-74
2.51333	-79
2.51700	-84
2.52067	-88
2.52433	-91
2.52800	-90
2.53167	-88
2.53533	-85
2.53900	-80
2.54267	-75
2.54633	-71
2.55000	-67
2.55367	-64
2.55733	-64
2.56100	-67
2.56467	-68
2.56833	-67
2.57200	-67
2.57567	-68
2.57933	-68
2.58300	-68
2.58667	-67
2.59033	-61
2.59400	-56
2.59767	-57
2.60133	-64
2.60500	-71
2.60867	-74
2.61233	-72
2.61600	-71
2.61967	-69
2.62333	-65
2.62700	-63
2.63067	-65
2.63433	-70
2.63800	-75
2.64167	-78
2.64533	-79
2.64900	-79
2.65267	-76
2.65633	-76
2.66000	-79
2.66367	-84
2.66733	-88
2.67100	-91
2.67467	-96
2.67833	-98
2.68200	-96
2.68567	-90
2.68933	-84
2.69300	-81
2.69667	-77
2.70033	-72
2.70400	-70
2.70767	-70
2.71133	-69
2.71500	-68
2.71867	-69
2.72233	-73
2.72600	-78
2.72967	-83
2.73333	-90
2.73700	-96
2.74067	-100
2.74433	-99
2.74800	-93
2.75167	-85
2.75533	-78
2.75900	-73
2.76267	-70
2.76633	-72
2.77000	-77
2.77367	-81
2.77733	-82
2.78100	-79
2.78467	-75
2.78833	-71
2.79200	-70
2.79567	-74
2.79933	-81
2.80300	-88
2.80667	-93
2.81033	-94
2.81400	-88
2.81767	-83
2.82133	-81
2.82500	-82
2.82867	-84
2.83233	-84
2.83600	-81
2.83967	-77
2.84333	-75
2.84700	-74
2.85067	-74
2.85433	-74
2.85800	-75
2.86167	-76
2.86533	-80
2.86900	-86
2.87267	-89
2.87633	-90
2.88000	-92
2.88367	-94
2.88733	-94
2.89100	-95
2.89467	-95
2.89833	-92
2.90200	-89
2.90567	-90
2.90933	-91
2.91300	-91
2.91667	-90
2.92033	-88
2.92400	-82
2.92767	-72
2.93133	-65
2.93500	-64
2.93867	-67
2.94233	-69
2.94600	-73
2.94967	-76
2.95333	-77
2.95700	-76
2.96067	-73
2.96433	-69
2.96800	-69
2.97167	-72
2.97533	-75
2.97900	-75
2.98267	-72
2.98633	-68
2.99000	-67
2.99367	-66
2.99733	-63
3.00100	-59
3.00467	-57
3.00833	-57
3.01200	-60
3.01567	-64
3.01933	-65
3.02300	-64
3.02667	-60
3.03033	-59
3.03400	-63
3.03767	-71
3.04133	-76
3.04500	-77
3.04867	-75
3.05233	-72
3.05600	-69
3.05967	-67
3.06333	-63
3.06700	-58
3.07067	-53
3.07433	-48
3.07800	-46
3.08167	-45
3.08533	-43
3.08900	-40
3.09267	-43
3.09633	-51
3.10000	-63
3.10367	-79
3.10733	-91
3.11100	-92
3.11467	-85
3.11833	-79
3.12200	-77
3.12567	-79
3.12933	-81
3.13300	-78
3.13667	-75
3.14033	-71
3.14400	-68
3.14767	-67
3.15133	-72
3.15500	-78
3.15867	-80
3.16233	-79
3.16600	-76
3.16967	-71
3.17333	-68
3.17700	-66
3.18067	-67
3.18433	-70
3.18800	-70
3.19167	-67
3.19533	-64
3.19900	-65
3.20267	-69
3.20633	-75
3.21000	-79
3.21367	-77
3.21733	-75
3.22100	-76
3.22467	-81
3.22833	-85
3.23200	-87
3.23567	-83
3.23933	-77
3.24300	-71
3.24667	-67
3.25033	-61
3.25400	-54
3.25767	-49
3.26133	-49
3.26500	-50
3.26867	-50
3.27233	-53
3.27600	-56
3.27967	-59
3.28333	-61
3.28700	-62
3.29067	-62
3.29433	-62
3.29800	-64
3.30167	-65
3.30533	-67
3.30900	-71
3.31267	-70
3.31633	-65
3.32000	-58
3.32367	-52
3.32733	-50
3.33100	-52
3.33467	-58
3.33833	-64
3.34200	-69
3.34567	-76
3.34933	-82
3.35300	-84
3.35667	-82
3.36033	-81
3.36400	-81
3.36767	-82
3.37133	-83
3.37500	-87
3.37867	-92
3.38233	-94
3.38600	-89
3.38967	-77
3.39333	-64
3.39700	-55
3.40067	-52
3.40433	-53
3.40800	-58
3.41167	-65
3.41533	-73
3.41900	-80
3.42267	-85
3.42633	-87
3.43000	-88
3.43367	-86
3.43733	-79
3.44100	-73
3.44467	-70
3.44833	-71
3.45200	-74
3.45567	-76
3.45933	-79
3.46300	-81
3.46667	-79
3.47033	-78
3.47400	-77
3.47767	-74
3.48133	-72
3.48500	-72
3.48867	-76
3.49233	-80
3.49600	-80
3.49967	-76
3.50333	-72
3.50700	-67
3.51067	-61
3.51433	-56
3.51800	-59
3.52167	-65
3.52533	-70
3.52900	-74
3.53267	-76
3.53633	-77
3.54000	-74
3.54367	-68
3.54733	-58
3.55100	-48
3.55467	-42
3.55833	-45
3.56200	-53
3.56567	-59
3.56933	-63
3.57300	-67
3.57667	-71
3.58033	-75
3.58400	-79
3.58767	-84
3.59133	-87
3.59500	-86
3.59867	-84
3.60233	-81
3.60600	-77
3.60967	-71
3.61333	-66
3.61700	-64
3.62067	-64
3.62433	-66
3.62800	-66
3.63167	-64
3.63533	-65
3.63900	-68
3.64267	-72
3.64633	-75
3.65000	-80
3.65367	-85
3.65733	-89
3.66100	-89
3.66467	-85
3.66833	-81
3.67200	-81
3.67567	-82
3.67933	-84
3.68300	-84
3.68667	-82
3.69033	-80
3.69400	-78
3.69767	-79
3.70133	-81
3.70500	-80
3.70867	-74
3.71233	-68
3.71600	-64
3.71967	-63
3.72333	-64
3.72700	-68
3.73067	-74
3.73433	-76
3.73800	-79
3.74167	-84
3.74533	-86
3.74900	-86
3.75267	-87
3.75633	-86
3.76000	-84
3.76367	-82
3.76733	-81
3.77100	-81
3.77467	-84
3.77833	-85
3.78200	-85
3.78567	-80
3.78933	-71
3.79300	-64
3.79667	-65
3.80033	-66
3.80400	-64
3.80767	-62
3.81133	-62
3.81500	-62
3.81867	-64
3.82233	-70
3.82600	-76
3.82967	-82
3.83333	-88
3.83700	-94
3.84067	-97
3.84433	-95
3.84800	-91
3.85167	-87
3.85533	-85
3.85900	-85
3.86267	-84
3.86633	-83
3.87000	-82
3.87367	-80
3.87733	-79
3.88100	-81
3.88467	-83
3.88833	-79
3.89200	-74
3.89567	-70
3.89933	-66
3.90300	-62
3.90667	-56
3.91033	-51
3.91400	-53
3.91767	-59
3.92133	-64
3.92500	-68
3.92867	-70
3.93233	-71
3.93600	-74
3.93967	-74
3.94333	-72
3.94700	-68
3.95067	-67
3.95433	-69
3.95800	-72
3.96167	-76
3.96533	-77
3.96900	-77
3.97267	-80
3.97633	-83
3.98000	-84
3.98367	-84
3.98733	-81
3.99100	-77
3.99467	-73
3.99833	-69

[Chromatogram (Ch2)]
Interval(msec)	220
# of Points	1091
Start Time(min)	0.002
End Time(min)	3.998
R.Time (min)	Intensity
0.00167	-0
0.00533	-0
0.00900	-0
0.01267	-0
0.01633	0
0.02000	0
0.02367	1
0.02733	1
0.03100	1
0.03467	1
0.03833	1
0.04200	1
0.04567	1
0.04933	1
0.05300	1
0.05667	1
0.06033	1
0.06400	1
0.06767	1
0.07133	1
0.07500	1
0.07867	0
0.08233	0
0.08600	0
0.08967	0
0.09333	0
0.09700	0
0.10067	0
0.10433	0
0.10800	0
0.11167	1
0.11533	1
0.11900	2
0.12267	2
0.12633	3
0.13000	3
0.13367	3
0.13733	3
0.14100	4
0.14467	4
0.14833	4
0.15200	3
0.15567	3
0.15933	3
0.16300	3
0.16667	2
0.17033	2
0.17400	1
0.17767	1
0.18133	1
0.18500	1
0.18867	1
0.19233	1
0.19600	0
0.19967	0
0.20333	0
0.20700	0
0.21067	0
0.21433	0
0.21800	0
0.22167	1
0.22533	1
0.22900	1
0.23267	1
0.23633	2
0.24000	2
0.24367	2
0.24733	2
0.25100	3
0.25467	3
0.25833	3
0.26200	3
0.26567	3
0.26933	3
0.27300	4
0.27667	4
0.28033	4
0.28400	5
0.28767	5
0.29133	5
0.29500	5
0.29867	4
0.30233	4
0.30600	4
0.30967	4
0.31333	4
0.31700	4
0.32067	4
0.32433	4
0.32800	4
0.33167	4
0.33533	3
0.33900	3
0.34267	3
0.34633	2
0.35000	2
0.35367	2
0.35733	2
0.36100	2
0.36467	1
0.36833	1
0.37200	1
0.37567	1
0.37933	1
0.38300	1
0.38667	1
0.39033	1
0.39400	1
0.39767	0
0.40133	0
0.40500	-0
0.40867	-0
0.41233	-1
0.41600	-1
0.41967	-1
0.42333	-1
0.42700	-1
0.43067	-2
0.43433	-2
0.43800	-2
0.44167	-2
0.44533	-3
0.44900	-3
0.45267	-3
0.45633	-3
0.46000	-4
0.46367	-4
0.46733	-4
0.47100	-4
0.47467	-4
0.47833	-3
0.48200	-3
0.48567	-3
0.48933	-3
0.49300	-3
0.49667	-3
0.50033	-3
0.50400	-3
0.50767	-2
0.51133	-2
0.51500	-3
0.51867	-3
0.52233	-3
0.52600	-3
0.52967	-3
0.53333	-3
0.53700	-2
0.54067	-2
0.54433	-2
0.54800	-1
0.55167	-1
0.55533	-1
0.55900	-0
0.56267	0
0.56633	1
0.57000	1
0.57367	1
0.57733	2
0.58100	2
0.58467	2
0.58833	2
0.59200	2
0.59567	2
0.59933	2
0.60300	1
0.60667	1
0.61033	1
0.61400	1
0.61767	1
0.62133	1
0.62500	1
0.62867	2
0.63233	2
0.63600	2
0.63967	2
0.64333	2
0.64700	2
0.65067	2
0.65433	2
0.65800	2
0.66167	2
0.66533	2
0.66900	2
0.67267	2
0.67633	2
0.68000	2
0.68367	2
0.68733	2
0.69100	2
0.69467	2
0.69833	2
0.70200	2
0.70567	2
0.70933	2
0.71300	2
0.71667	2
0.72033	2
0.72400	2
0.72767	2
0.73133	2
0.73500	2
0.73867	1
0.74233	1
0.74600	1
0.74967	1
0.75333	1
0.75700	1
0.76067	0
0.76433	0
0.76800	0
0.77167	0
0.77533	-0
0.77900	0
0.78267	-0
0.78633	0
0.79000	0
0.79367	0
0.79733	0
0.80100	0
0.80467	0
0.80833	0
0.81200	0
0.81567	-0
0.81933	-0
0.82300	-1
0.82667	-1
0.83033	-1
0.83400	-1
0.83767	-1
0.84133	-1
0.84500	-1
0.84867	-1
0.85233	-1
0.85600	-0
0.85967	0
0.86333	0
0.86700	1
0.87067	1
0.87433	1
0.87800	1
0.88167	0
0.88533	0
0.88900	-0
0.89267	-0
0.89633	-0
0.90000	-0
0.90367	-0
0.90733	-1
0.91100	-1
0.91467	-1
0.91833	-1
0.92200	-1
0.92567	-1
0.92933	-2
0.93300	-2
0.93667	-2
0.94033	-2
0.94400	-2
0.94767	-2
0.95133	-2
0.95500	-2
0.95867	-2
0.96233	-2
0.96600	-2
0.96967	-2
0.97333	-2
0.97700	-2
0.98067	-2
0.98433	-2
0.98800	-2
0.99167	-3
0.99533	-3
0.99900	-4
1.00267	-4
1.00633	-5
1.01000	-5
1.01367	-5
1.01733	-5
1.02100	-5
1.02467	-5
1.02833	-5
1.03200	-4
1.03567	-4
1.03933	-4
1.04300	-3
1.04667	-3
1.05033	-3
1.05400	-3
1.05767	-2
1.06133	-2
1.06500	-2
1.06867	-2
1.07233	-1
1.07600	-1
1.07967	-1
1.08333	-0
1.08700	0
1.09067	1
1.09433	1
1.09800	1
1.10167	1
1.10533	1
1.10900	0
1.11267	0
1.11633	-0
1.12000	-1
1.12367	-1
1.12733	-1
1.13100	-1
1.13467	-1
1.13833	-1
1.14200	-1
1.14567	-2
1.14933	-2
1.15300	-2
1.15667	-2
1.16033	-2
1.16400	-2
1.16767	-2
1.17133	-2
1.17500	-2
1.17867	-2
1.18233	-2
1.18600	-2
1.18967	-2
1.19333	-2
1.19700	-1
1.20067	-1
1.20433	-1
1.20800	-1
1.21167	-0
1.21533	0
1.21900	0
1.22267	0
1.22633	0
1.23000	0
1.23367	0
1.23733	0
1.24100	0
1.24467	0
1.24833	0
1.25200	0
1.25567	0
1.25933	0
1.26300	0
1.26667	0
1.27033	0
1.27400	0
1.27767	0
1.28133	0
1.28500	0
1.28867	1
1.29233	0
1.29600	0
1.29967	-0
1.30333	-0
1.30700	-0
1.31067	-0
1.31433	-0
1.31800	-0
1.32167	-1
1.32533	-1
1.32900	-1
1.33267	-2
1.33633	-2
1.34000	-3
1.34367	-3
1.34733	-4
1.35100	-4
1.35467	-4
1.35833	-5
1.36200	-5
1.36567	-5
1.36933	-5
1.37300	-5
1.37667	-5
1.38033	-5
1.38400	-4
1.38767	-4
1.39133	-4
1.39500	-4
1.39867	-4
1.40233	-4
1.40600	-4
1.40967	-4
1.41333	-3
1.41700	-3
1.42067	-3
1.42433	-3
1.42800	-3
1.43167	-3
1.43533	-3
1.43900	-3
1.44267	-3
1.44633	-3
1.45000	-2
1.45367	-2
1.45733	-2
1.46100	-2
1.46467	-2
1.46833	-1
1.47200	-1
1.47567	-1
1.47933	-1
1.48300	-1
1.48667	-1
1.49033	-1
1.49400	-1
1.49767	-1
1.50133	-1
1.50500	-1
1.50867	-1
1.51233	-2
1.51600	-2
1.51967	-2
1.52333	-2
1.52700	-2
1.53067	-2
1.53433	-2
1.53800	-2
1.54167	-2
1.54533	-2
1.54900	-3
1.55267	-3
1.55633	-3
1.56000	-3
1.56367	-3
1.56733	-3
1.57100	-4
1.57467	-4
1.57833	-4
1.58200	-4
1.58567	-4
1.58933	-4
1.59300	-5
1.59667	-5
1.60033	-6
1.60400	-7
1.60767	-8
1.61133	-9
1.61500	-11
1.61867	-13
1.62233	-16
1.62600	-19
1.62967	-22
1.63333	-25
1.63700	-28
1.64067	-32
1.64433	-35
1.64800	-39
1.65167	-42
1.65533	-46
1.65900	-49
1.66267	-53
1.66633	-58
1.67000	-63
1.67367	-68
1.67733	-73
1.68100	-78
1.68467	-83
1.68833	-88
1.69200	-92
1.69567	-95
1.69933	-98
1.70300	-101
1.70667	-103
1.71033	-105
1.71400	-106
1.71767	-108
1.72133	-109
1.72500	-110
1.72867	-112
1.73233	-113
1.73600	-114
1.73967	-115
1.74333	-116
1.74700	-117
1.75067	-118
1.75433	-119
1.75800	-120
1.76167	-120
1.76533	-121
1.76900	-121
1.77267	-121
1.77633	-121
1.78000	-120
1.78367	-120
1.78733	-120
1.79100	-120
1.79467	-121
1.79833	-122
1.80200	-123
1.80567	-124
1.80933	-124
1.81300	-124
1.81667	-124
1.82033	-124
1.82400	-124
1.82767	-123
1.83133	-123
1.83500	-123
1.83867	-123
1.84233	-124
1.84600	-124
1.84967	-124
1.85333	-124
1.85700	-124
1.86067	-124
1.86433	-124
1.86800	-124
1.87167	-124
1.87533	-124
1.87900	-124
1.88267	-123
1.88633	-123
1.89000	-122
1.89367	-121
1.89733	-120
1.90100	-120
1.90467	-120
1.90833	-120
1.91200	-120
1.91567	-120
1.91933	-120
1.92300	-120
1.92667	-120
1.93033	-119
1.93400	-119
1.93767	-119
1.94133	-119
1.94500	-119
1.94867	-119
1.95233	-120
1.95600	-120
1.95967	-120
1.96333	-120
1.96700	-120
1.97067	-120
1.97433	-119
1.97800	-118
1.98167	-117
1.98533	-117
1.98900	-117
1.99267	-118
1.99633	-117
2.00000	-117
2.00367	-116
2.00733	-116
2.01100	-115
2.01467	-114
2.01833	-114
2.02200	-113
2.02567	-113
2.02933	-113
2.03300	-113
2.03667	-113
2.04033	-112
2.04400	-112
2.04767	-112
2.05133	-112
2.05500	-111
2.05867	-110
2.06233	-110
2.06600	-110
2.06967	-110
2.07333	-110
2.07700	-111
2.08067	-111
2.08433	-111
2.08800	-111
2.09167	-111
2.09533	-110
2.09900	-109
2.10267	-108
2.10633	-107
2.11000	-106
2.11367	-105
2.11733	-105
2.12100	-105
2.12467	-105
2.12833	-105
2.13200	-104
2.13567	-104
2.13933	-104
2.14300	-103
2.14667	-103
2.15033	-102
2.15400	-102
2.15767	-102
2.16133	-103
2.16500	-103
2.16867	-102
2.17233	-102
2.17600	-101
2.17967	-100
2.18333	-100
2.18700	-99
2.19067	-98
2.19433	-98
2.19800	-98
2.20167	-99
2.20533	-99
2.20900	-99
2.21267	-98
2.21633	-97
2.22000	-97
2.22367	-97
2.22733	-96
2.23100	-97
2.23467	-97
2.23833	-98
2.24200	-99
2.24567	-99
2.24933	-99
2.25300	-98
2.25667	-98
2.26033	-98
2.26400	-97
2.26767	-96
2.27133	-96
2.27500	-96
2.27867	-96
2.28233	-95
2.28600	-95
2.28967	-95
2.29333	-94
2.29700	-93
2.30067	-92
2.30433	-91
2.30800	-90
2.31167	-89
2.31533	-88
2.31900	-88
2.32267	-88
2.32633	-89
2.33000	-89
2.33367	-90
2.33733	-90
2.34100	-90
2.34467	-90
2.34833	-89
2.35200	-88
2.35567	-86
2.35933	-85
2.36300	-83
2.36667	-80
2.37033	-78
2.37400	-75
2.37767	-72
2.38133	-68
2.38500	-64
2.38867	-60
2.39233	-55
2.39600	-51
2.39967	-46
2.40333	-41
2.40700	-37
2.41067	-33
2.41433	-29
2.41800	-27
2.42167	-24
2.42533	-22
2.42900	-20
2.43267	-18
2.43633	-15
2.44000	-13
2.44367	-11
2.44733	-9
2.45100	-7
2.45467	-5
2.45833	-4
2.46200	-2
2.46567	-1
2.46933	0
2.47300	1
2.47667	2
2.48033	3
2.48400	4
2.48767	4
2.49133	5
2.49500	6
2.49867	7
2.50233	8
2.50600	9
2.50967	10
2.51333	11
2.51700	11
2.52067	11
2.52433	11
2.52800	11
2.53167	12
2.53533	12
2.53900	13
2.54267	13
2.54633	14
2.55000	15
2.55367	15
2.55733	15
2.56100	15
2.56467	15
2.56833	15
2.57200	15
2.57567	15
2.57933	15
2.58300	15
2.58667	15
2.59033	16
2.59400	16
2.59767	16
2.60133	16
2.60500	17
2.60867	17
2.61233	17
2.61600	18
2.61967	18
2.62333	18
2.62700	18
2.63067	19
2.63433	19
2.63800	19
2.64167	20
2.64533	20
2.64900	20
2.65267	20
2.65633	20
2.66000	20
2.66367	20
2.66733	20
2.67100	21
2.67467	21
2.67833	21
2.68200	20
2.68567	20
2.68933	20
2.69300	20
2.69667	21
2.70033	21
2.70400	21
2.70767	22
2.71133	23
2.71500	23
2.71867	24
2.72233	24
2.72600	25
2.72967	25
2.73333	25
2.73700	25
2.74067	25
2.74433	25
2.74800	24
2.75167	23
2.75533	23
2.75900	22
2.76267	22
2.76633	22
2.77000	22
2.77367	22
2.77733	22
2.78100	22
2.78467	22
2.78833	23
2.79200	23
2.79567	23
2.79933	23
2.80300	24
2.80667	24
2.81033	24
2.81400	24
2.81767	25
2.82133	25
2.82500	25
2.82867	25
2.83233	25
2.83600	25
2.83967	25
2.84333	25
2.84700	25
2.85067	26
2.85433	26
2.85800	26
2.86167	26
2.86533	26
2.86900	25
2.87267	23
2.87633	21
2.88000	16
2.88367	9
2.88733	-0
2.89100	-13
2.89467	-30
2.89833	-50
2.90200	-73
2.90567	-99
2.90933	-128
2.91300	-159
2.91667	-188
2.92033	-213
2.92400	-232
2.92767	-243
2.93133	-247
2.93500	-243
2.93867	-234
2.94233	-221
2.94600	-205
2.94967	-187
2.95333	-168
2.95700	-149
2.96067	-131
2.96433	-114
2.96800	-99
2.97167	-84
2.97533	-71
2.97900	-59
2.98267	-48
2.98633	-39
2.99000	-30
2.99367	-23
2.99733	-17
3.00100	-11
3.00467	-6
3.00833	-3
3.01200	1
3.01567	4
3.01933	6
3.02300	8
3.02667	10
3.03033	12
3.03400	14
3.03767	15
3.04133	16
3.04500	17
3.04867	17
3.05233	18
3.05600	18
3.05967	19
3.06333	19
3.06700	19
3.07067	20
3.07433	20
3.07800	20
3.08167	20
3.08533	21
3.08900	21
3.09267	21
3.09633	21
3.10000	21
3.10367	21
3.10733	21
3.11100	22
3.11467	22
3.11833	22
3.12200	22
3.12567	22
3.12933	23
3.13300	23
3.13667	23
3.14033	23
3.14400	23
3.14767	23
3.15133	23
3.15500	23
3.15867	23
3.16233	23
3.16600	23
3.16967	23
3.17333	23
3.17700	23
3.18067	23
3.18433	23
3.18800	23
3.19167	24
3.19533	24
3.19900	24
3.20267	24
3.20633	24
3.21000	24
3.21367	24
3.21733	24
3.22100	24
3.22467	24
3.22833	24
3.23200	24
3.23567	25
3.23933	25
3.24300	25
3.24667	25
3.25033	25
3.25400	25
3.25767	25
3.26133	25
3.26500	25
3.26867	25
3.27233	25
3.27600	25
3.27967	25
3.28333	25
3.28700	25
3.29067	25
3.29433	25
3.29800	25
3.30167	25
3.30533	25
3.30900	26
3.31267	25
3.31633	25
3.32000	25
3.32367	25
3.32733	25
3.33100	25
3.33467	25
3.33833	25
3.34200	24
3.34567	24
3.34933	24
3.35300	24
3.35667	24
3.36033	24
3.36400	24
3.36767	24
3.37133	24
3.37500	24
3.37867	24
3.38233	25
3.38600	25
3.38967	25
3.39333	25
3.39700	25
3.40067	26
3.40433	26
3.40800	26
3.41167	27
3.41533	27
3.41900	27
3.42267	28
3.42633	28
3.43000	28
3.43367	28
3.43733	29
3.44100	29
3.44467	29
3.44833	29
3.45200	29
3.45567	29
3.45933	29
3.46300	29
3.46667	29
3.47033	29
3.47400	29
3.47767	29
3.48133	28
3.48500	28
3.48867	28
3.49233	28
3.49600	28
3.49967	28
3.50333	28
3.50700	28
3.51067	27
3.51433	27
3.51800	27
3.52167	27
3.52533	27
3.52900	27
3.53267	27
3.53633	27
3.54000	26
3.54367	26
3.54733	26
3.55100	26
3.55467	26
3.55833	26
3.56200	26
3.56567	26
3.56933	26
3.57300	26
3.57667	26
3.58033	26
3.58400	26
3.58767	26
3.59133	26
3.59500	26
3.59867	25
3.60233	25
3.60600	25
3.60967	25
3.61333	25
3.61700	25
3.62067	25
3.62433	25
3.62800	25
3.63167	25
3.63533	25
3.63900	25
3.64267	24
3.64633	24
3.65000	23
3.65367	23
3.65733	23
3.66100	23
3.66467	23
3.66833	23
3.67200	23
3.67567	24
3.67933	23
3.68300	23
3.68667	23
3.69033	23
3.69400	23
3.69767	23
3.70133	23
3.70500	23
3.70867	22
3.71233	22
3.71600	22
3.71967	22
3.72333	22
3.72700	22
3.73067	23
3.73433	23
3.73800	23
3.74167	23
3.74533	23
3.74900	23
3.75267	23
3.75633	23
3.76000	24
3.76367	24
3.76733	24
3.77100	24
3.77467	24
3.77833	24
3.78200	24
3.78567	24
3.78933	24
3.79300	24
3.79667	24
3.80033	24
3.80400	24
3.80767	24
3.81133	24
3.81500	24
3.81867	24
3.82233	25
3.82600	25
3.82967	25
3.83333	25
3.83700	25
3.84067	25
3.84433	26
3.84800	26
3.85167	26
3.85533	26
3.85900	26
3.86267	26
3.86633	26
3.87000	26
3.87367	26
3.87733	26
3.88100	26
3.88467	26
3.88833	25
3.89200	25
3.89567	25
3.89933	25
3.90300	25
3.90667	25
3.91033	25
3.91400	25
3.91767	24
3.92133	24
3.92500	24
3.92867	24
3.93233	24
3.93600	24
3.93967	24
3.94333	24
3.94700	24
3.95067	24
3.95433	24
3.95800	24
3.96167	24
3.96533	24
3.96900	24
3.97267	25
3.97633	25
3.98000	25
3.98367	25
3.98733	25
3.99100	25
3.99467	25
3.99833	25

[Chromatogram (Ch3)]
Interval(msec)	220
# of Points	1091
Start Time(min)	0.002
End Time(min)	3.998
R.Time (min)	Intensity
0.00167	1
0.00533	2
0.00900	-0
0.01267	-2
0.01633	-4
0.02000	-3
0.02367	-3
0.02733	-3
0.03100	-4
0.03467	-3
0.03833	-2
0.04200	-4
0.04567	-5
0.04933	-4
0.05300	-4
0.05667	-5
0.06033	-6
0.06400	-6
0.06767	-4
0.07133	-0
0.07500	4
0.07867	7
0.08233	6
0.08600	2
0.08967	0
0.09333	-0
0.09700	-2
0.10067	-3
0.10433	-2
0.10800	-0
0.11167	2
0.11533	1
0.11900	1
0.12267	0
0.12633	-2
0.13000	-4
0.13367	-5
0.13733	-3
0.14100	-0
0.14467	1
0.14833	-1
0.15200	-1
0.15567	0
0.15933	0
0.16300	-1
0.16667	-2
0.17033	-2
0.17400	-1
0.17767	-1
0.18133	-0
0.18500	-2
0.18867	-4
0.19233	-4
0.19600	-2
0.19967	-1
0.20333	-1
0.20700	-0
0.21067	1
0.21433	-0
0.21800	-0
0.22167	0
0.22533	-0
0.22900	-1
0.23267	0
0.23633	1
0.24000	2
0.24367	4
0.24733	5
0.25100	4
0.25467	3
0.25833	1
0.26200	0
0.26567	-0
0.26933	-1
0.27300	-0
0.27667	0
0.28033	-0
0.28400	-1
0.28767	-2
0.29133	-1
0.29500	0
0.29867	-1
0.30233	-2
0.30600	-1
0.30967	-1
0.31333	-0
0.31700	0
0.32067	1
0.32433	1
0.32800	3
0.33167	2
0.33533	1
0.33900	2
0.34267	3
0.34633	5
0.35000	5
0.35367	5
0.35733	5
0.36100	5
0.36467	5
0.36833	4
0.37200	2
0.37567	2
0.37933	0
0.38300	-1
0.38667	-1
0.39033	0
0.39400	1
0.39767	1
0.40133	2
0.40500	5
0.40867	6
0.41233	6
0.41600	6
0.41967	5
0.42333	3
0.42700	3
0.43067	5
0.43433	5
0.43800	6
0.44167	3
0.44533	0
0.44900	1
0.45267	2
0.45633	4
0.46000	5
0.46367	6
0.46733	7
0.47100	7
0.47467	6
0.47833	4
0.48200	2
0.48567	2
0.48933	4
0.49300	4
0.49667	3
0.50033	1
0.50400	1
0.50767	3
0.51133	5
0.51500	7
0.51867	6
0.52233	7
0.52600	6
0.52967	5
0.53333	3
0.53700	2
0.54067	4
0.54433	3
0.54800	2
0.55167	3
0.55533	5
0.55900	7
0.56267	7
0.56633	7
0.57000	6
0.57367	6
0.57733	6
0.58100	7
0.58467	8
0.58833	7
0.59200	7
0.59567	6
0.59933	6
0.60300	6
0.60667	7
0.61033	8
0.61400	7
0.61767	8
0.62133	8
0.62500	7
0.62867	5
0.63233	6
0.63600	8
0.63967	9
0.64333	9
0.64700	11
0.65067	12
0.65433	12
0.65800	11
0.66167	10
0.66533	9
0.66900	10
0.67267	10
0.67633	10
0.68000	8
0.68367	7
0.68733	7
0.69100	9
0.69467	8
0.69833	7
0.70200	7
0.70567	8
0.70933	11
0.71300	13
0.71667	14
0.72033	13
0.72400	12
0.72767	11
0.73133	11
0.73500	10
0.73867	9
0.74233	11
0.74600	11
0.74967	8
0.75333	7
0.75700	8
0.76067	10
0.76433	10
0.76800	11
0.77167	12
0.77533	11
0.77900	11
0.78267	10
0.78633	11
0.79000	13
0.79367	14
0.79733	14
0.80100	14
0.80467	14
0.80833	13
0.81200	12
0.81567	11
0.81933	10
0.82300	10
0.82667	13
0.83033	13
0.83400	13
0.83767	13
0.84133	13
0.84500	13
0.84867	14
0.85233	14
0.85600	11
0.85967	8
0.86333	8
0.86700	8
0.87067	8
0.87433	9
0.87800	11
0.88167	11
0.88533	13
0.88900	14
0.89267	16
0.89633	18
0.90000	18
0.90367	17
0.90733	16
0.91100	17
0.91467	18
0.91833	17
0.92200	16
0.92567	12
0.92933	10
0.93300	10
0.93667	10
0.94033	10
0.94400	8
0.94767	8
0.95133	9
0.95500	12
0.95867	14
0.96233	15
0.96600	16
0.96967	17
0.97333	17
0.97700	17
0.98067	18
0.98433	19
0.98800	19
0.99167	18
0.99533	17
0.99900	17
1.00267	16
1.00633	15
1.01000	15
1.01367	16
1.01733	15
1.02100	15
1.02467	16
1.02833	15
1.03200	13
1.03567	13
1.03933	14
1.04300	16
1.04667	17
1.05033	17
1.05400	16
1.05767	15
1.06133	16
1.06500	19
1.06867	20
1.07233	21
1.07600	22
1.07967	23
1.08333	24
1.08700	24
1.09067	23
1.09433	22
1.09800	22
1.10167	22
1.10533	22
1.10900	22
1.11267	22
1.11633	22
1.12000	21
1.12367	21
1.12733	21
1.13100	20
1.13467	19
1.13833	21
1.14200	25
1.14567	26
1.14933	25
1.15300	23
1.15667	23
1.16033	22
1.16400	22
1.16767	23
1.17133	22
1.17500	21
1.17867	22
1.18233	25
1.18600	27
1.18967	27
1.19333	27
1.19700	27
1.20067	26
1.20433	27
1.20800	28
1.21167	27
1.21533	27
1.21900	29
1.22267	28
1.22633	27
1.23000	28
1.23367	29
1.23733	29
1.24100	28
1.24467	28
1.24833	28
1.25200	27
1.25567	26
1.25933	26
1.26300	25
1.26667	26
1.27033	26
1.27400	27
1.27767	26
1.28133	23
1.28500	20
1.28867	20
1.29233	22
1.29600	24
1.29967	24
1.30333	25
1.30700	26
1.31067	27
1.31433	27
1.31800	26
1.32167	27
1.32533	27
1.32900	26
1.33267	25
1.33633	26
1.34000	28
1.34367	29
1.34733	29
1.35100	28
1.35467	27
1.35833	27
1.36200	28
1.36567	27
1.36933	27
1.37300	27
1.37667	27
1.38033	28
1.38400	30
1.38767	30
1.39133	32
1.39500	33
1.39867	32
1.40233	32
1.40600	30
1.40967	30
1.41333	31
1.41700	29
1.42067	29
1.42433	28
1.42800	29
1.43167	29
1.43533	29
1.43900	31
1.44267	30
1.44633	28
1.45000	28
1.45367	30
1.45733	31
1.46100	30
1.46467	30
1.46833	30
1.47200	29
1.47567	29
1.47933	30
1.48300	30
1.48667	30
1.49033	31
1.49400	33
1.49767	34
1.50133	35
1.50500	35
1.50867	34
1.51233	35
1.51600	36
1.51967	36
1.52333	36
1.52700	35
1.53067	35
1.53433	36
1.53800	37
1.54167	35
1.54533	33
1.54900	32
1.55267	32
1.55633	34
1.56000	35
1.56367	36
1.56733	37
1.57100	37
1.57467	37
1.57833	38
1.58200	39
1.58567	39
1.58933	40
1.59300	42
1.59667	39
1.60033	36
1.60400	35
1.60767	34
1.61133	34
1.61500	32
1.61867	32
1.62233	32
1.62600	33
1.62967	36
1.63333	40
1.63700	42
1.64067	42
1.64433	42
1.64800	42
1.65167	40
1.65533	40
1.65900	40
1.66267	42
1.66633	44
1.67000	45
1.67367	47
1.67733	46
1.68100	46
1.68467	48
1.68833	50
1.69200	52
1.69567	51
1.69933	49
1.70300	49
1.70667	49
1.71033	48
1.71400	48
1.71767	47
1.72133	47
1.72500	48
1.72867	50
1.73233	51
1.73600	54
1.73967	56
1.74333	58
1.74700	59
1.75067	59
1.75433	60
1.75800	61
1.76167	62
1.76533	62
1.76900	62
1.77267	63
1.77633	65
1.78000	66
1.78367	66
1.78733	69
1.79100	70
1.79467	69
1.79833	67
1.80200	67
1.80567	68
1.80933	68
1.81300	69
1.81667	73
1.82033	74
1.82400	76
1.82767	74
1.83133	72
1.83500	70
1.83867	70
1.84233	70
1.84600	72
1.84967	75
1.85333	76
1.85700	77
1.86067	77
1.86433	79
1.86800	81
1.87167	84
1.87533	84
1.87900	84
1.88267	85
1.88633	86
1.89000	86
1.89367	86
1.89733	89
1.90100	89
1.90467	90
1.90833	90
1.91200	91
1.91567	89
1.91933	89
1.92300	89
1.92667	87
1.93033	85
1.93400	86
1.93767	90
1.94133	94
1.94500	98
1.94867	100
1.95233	101
1.95600	101
1.95967	102
1.96333	105
1.96700	106
1.97067	103
1.97433	102
1.97800	104
1.98167	106
1.98533	109
1.98900	112
1.99267	115
1.99633	116
2.00000	117
2.00367	118
2.00733	117
2.01100	116
2.01467	113
2.01833	113
2.02200	115
2.02567	117
2.02933	121
2.03300	121
2.03667	122
2.04033	123
2.04400	125
2.04767	127
2.05133	129
2.05500	132
2.05867	132
2.06233	132
2.06600	132
2.06967	133
2.07333	133
2.07700	135
2.08067	139
2.08433	142
2.08800	143
2.09167	143
2.09533	145
2.09900	146
2.10267	148
2.10633	151
2.11000	153
2.11367	156
2.11733	157
2.12100	157
2.12467	159
2.12833	161
2.13200	163
2.13567	164
2.13933	166
2.14300	166
2.14667	166
2.15033	167
2.15400	167
2.15767	168
2.16133	169
2.16500	172
2.16867	174
2.17233	176
2.17600	177
2.17967	179
2.18333	182
2.18700	185
2.19067	185
2.19433	185
2.19800	185
2.20167	185
2.20533	186
2.20900	188
2.21267	190
2.21633	191
2.22000	192
2.22367	194
2.22733	198
2.23100	200
2.23467	200
2.23833	198
2.24200	198
2.24567	201
2.24933	203
2.25300	205
2.25667	206
2.26033	207
2.26400	208
2.26767	210
2.27133	211
2.27500	213
2.27867	212
2.28233	213
2.28600	215
2.28967	217
2.29333	217
2.29700	218
2.30067	221
2.30433	224
2.30800	226
2.31167	227
2.31533	227
2.31900	230
2.32267	232
2.32633	231
2.33000	232
2.33367	233
2.33733	232
2.34100	232
2.34467	233
2.34833	235
2.35200	236
2.35567	238
2.35933	241
2.36300	244
2.36667	247
2.37033	248
2.37400	247
2.37767	245
2.38133	244
2.38500	244
2.38867	243
2.39233	243
2.39600	244
2.39967	247
2.40333	250
2.40700	253
2.41067	256
2.41433	259
2.41800	261
2.42167	263
2.42533	265
2.42900	264
2.43267	264
2.43633	267
2.44000	271
2.44367	274
2.44733	275
2.45100	276
2.45467	276
2.45833	277
2.46200	276
2.46567	275
2.46933	275
2.47300	276
2.47667	274
2.48033	273
2.48400	271
2.48767	271
2.49133	270
2.49500	267
2.49867	263
2.50233	261
2.50600	259
2.50967	256
2.51333	251
2.51700	246
2.52067	241
2.52433	238
2.52800	235
2.53167	232
2.53533	228
2.53900	225
2.54267	221
2.54633	219
2.55000	219
2.55367	218
2.55733	218
2.56100	216
2.56467	215
2.56833	213
2.57200	210
2.57567	209
2.57933	209
2.58300	207
2.58667	203
2.59033	202
2.59400	202
2.59767	202
2.60133	201
2.60500	199
2.60867	196
2.61233	193
2.61600	188
2.61967	181
2.62333	173
2.62700	161
2.63067	148
2.63433	134
2.63800	120
2.64167	108
2.64533	97
2.64900	88
2.65267	82
2.65633	77
2.66000	72
2.66367	72
2.66733	73
2.67100	75
2.67467	76
2.67833	76
2.68200	78
2.68567	79
2.68933	78
2.69300	73
2.69667	65
2.70033	65
2.70400	77
2.70767	99
2.71133	128
2.71500	162
2.71867	195
2.72233	229
2.72600	263
2.72967	297
2.73333	330
2.73700	363
2.74067	396
2.74433	425
2.74800	453
2.75167	481
2.75533	507
2.75900	531
2.76267	552
2.76633	571
2.77000	588
2.77367	604
2.77733	620
2.78100	636
2.78467	653
2.78833	668
2.79200	682
2.79567	694
2.79933	704
2.80300	716
2.80667	728
2.81033	738
2.81400	748
2.81767	757
2.82133	763
2.82500	769
2.82867	774
2.83233	777
2.83600	782
2.83967	791
2.84333	805
2.84700	831
2.85067	883
2.85433	979
2.85800	1134
2.86167	1354
2.86533	1628
2.86900	1933
2.87267	2238
2.87633	2509
2.88000	2717
2.88367	2845
2.88733	2891
2.89100	2866
2.89467	2782
2.89833	2654
2.90200	2501
2.90567	2338
2.90933	2172
2.91300	2013
2.91667	1865
2.92033	1729
2.92400	1606
2.92767	1494
2.93133	1395
2.93500	1307
2.93867	1230
2.94233	1165
2.94600	1108
2.94967	1057
2.95333	1014
2.95700	978
2.96067	946
2.96433	918
2.96800	894
2.97167	872
2.97533	853
2.97900	837
2.98267	822
2.98633	808
2.99000	798
2.99367	788
2.99733	779
3.00100	773
3.00467	767
3.00833	763
3.01200	759
3.01567	753
3.01933	749
3.02300	744
3.02667	740
3.03033	738
3.03400	734
3.03767	729
3.04133	726
3.04500	724
3.04867	722
3.05233	721
3.05600	718
3.05967	717
3.06333	716
3.06700	713
3.07067	712
3.07433	711
3.07800	711
3.08167	710
3.08533	708
3.08900	705
3.09267	703
3.09633	701
3.10000	700
3.10367	698
3.10733	695
3.11100	691
3.11467	689
3.11833	687
3.12200	684
3.12567	682
3.12933	682
3.13300	681
3.13667	679
3.14033	674
3.14400	671
3.14767	670
3.15133	668
3.15500	665
3.15867	662
3.16233	659
3.16600	657
3.16967	655
3.17333	654
3.17700	651
3.18067	651
3.18433	650
3.18800	646
3.19167	643
3.19533	644
3.19900	643
3.20267	639
3.20633	635
3.21000	631
3.21367	629
3.21733	628
3.22100	626
3.22467	624
3.22833	620
3.23200	616
3.23567	614
3.23933	610
3.24300	607
3.24667	606
3.25033	603
3.25400	600
3.25767	597
3.26133	594
3.26500	591
3.26867	590
3.27233	588
3.27600	585
3.27967	579
3.28333	573
3.28700	568
3.29067	566
3.29433	565
3.29800	565
3.30167	563
3.30533	561
3.30900	556
3.31267	550
3.31633	546
3.32000	544
3.32367	542
3.32733	539
3.33100	536
3.33467	534
3.33833	534
3.34200	532
3.34567	528
3.34933	524
3.35300	520
3.35667	518
3.36033	514
3.36400	510
3.36767	506
3.37133	505
3.37500	502
3.37867	496
3.38233	493
3.38600	490
3.38967	487
3.39333	486
3.39700	485
3.40067	482
3.40433	479
3.40800	477
3.41167	475
3.41533	472
3.41900	468
3.42267	463
3.42633	458
3.43000	454
3.43367	451
3.43733	447
3.44100	444
3.44467	441
3.44833	439
3.45200	438
3.45567	437
3.45933	435
3.46300	433
3.46667	432
3.47033	428
3.47400	424
3.47767	422
3.48133	419
3.48500	415
3.48867	412
3.49233	410
3.49600	408
3.49967	406
3.50333	404
3.50700	403
3.51067	400
3.51433	398
3.51800	396
3.52167	392
3.52533	387
3.52900	384
3.53267	383
3.53633	383
3.54000	381
3.54367	378
3.54733	375
3.55100	371
3.55467	368
3.55833	364
3.56200	361
3.56567	358
3.56933	355
3.57300	350
3.57667	347
3.58033	346
3.58400	345
3.58767	343
3.59133	342
3.59500	341
3.59867	340
3.60233	340
3.60600	338
3.60967	333
3.61333	331
3.61700	329
3.62067	328
3.62433	326
3.62800	323
3.63167	320
3.63533	318
3.63900	316
3.64267	314
3.64633	313
3.65000	310
3.65367	307
3.65733	306
3.66100	305
3.66467	305
3.66833	308
3.67200	308
3.67567	306
3.67933	305
3.68300	301
3.68667	299
3.69033	296
3.69400	292
3.69767	288
3.70133	287
3.70500	288
3.70867	288
3.71233	288
3.71600	286
3.71967	283
3.72333	281
3.72700	280
3.73067	279
3.73433	278
3.73800	276
3.74167	274
3.74533	271
3.74900	269
3.75267	269
3.75633	269
3.76000	269
3.76367	268
3.76733	269
3.77100	270
3.77467	270
3.77833	269
3.78200	268
3.78567	266
3.78933	265
3.79300	263
3.79667	262
3.80033	262
3.80400	259
3.80767	255
3.81133	254
3.81500	255
3.81867	254
3.82233	250
3.82600	248
3.82967	247
3.83333	245
3.83700	243
3.84067	241
3.84433	243
3.84800	244
3.85167	243
3.85533	239
3.85900	236
3.86267	236
3.86633	237
3.87000	235
3.87367	234
3.87733	234
3.88100	233
3.88467	231
3.88833	230
3.89200	230
3.89567	230
3.89933	230
3.90300	230
3.90667	231
3.91033	231
3.91400	230
3.91767	228
3.92133	227
3.92500	223
3.92867	221
3.93233	221
3.93600	221
3.93967	219
3.94333	219
3.94700	220
3.95067	219
3.95433	217
3.95800	219
3.96167	219
3.96533	221
3.96900	222
3.97267	220
3.97633	218
3.98000	217
3.98367	217
3.98733	214
3.99100	211
3.99467	209
3.99833	207

[Status Trace (Column Oven Temperature)]
Interval(msec)	1000
# of Points	240
Start Time(min)	0.015
End Time(min)	3.999
Intensity Units	
Intensity Multiplier	1
R.Time (min)	Intensity
0.01530	35.04
0.03197	35.03
0.04863	35.04
0.06530	35.04
0.08197	35.04
0.09863	35.05
0.11530	35.04
0.13197	35.03
0.14863	35.02
0.16530	35.01
0.18197	35.01
0.19863	35.02
0.21530	35.02
0.23197	35.01
0.24863	35.01
0.26530	34.99
0.28197	34.98
0.29863	34.98
0.31530	34.96
0.33197	34.96
0.34863	34.96
0.36530	34.96
0.38197	34.96
0.39863	34.97
0.41530	34.97
0.43197	34.99
0.44863	35.00
0.46530	35.01
0.48197	35.02
0.49863	35.03
0.51530	35.04
0.53197	35.04
0.54863	35.03
0.56530	35.01
0.58197	35.01
0.59863	35.01
0.61530	35.01
0.63197	35.00
0.64863	34.99
0.66530	34.99
0.68197	34.98
0.69863	34.98
0.71530	34.97
0.73197	34.97
0.74863	34.96
0.76530	34.97
0.78197	34.97
0.79863	34.97
0.81530	34.97
0.83197	34.97
0.84863	34.96
0.86530	34.96
0.88197	34.95
0.89863	34.95
0.91530	34.96
0.93197	34.96
0.94863	34.97
0.96530	34.97
0.98197	34.99
0.99863	35.00
1.01530	35.01
1.03197	35.01
1.04863	35.01
1.06530	35.01
1.08197	35.00
1.09863	35.00
1.11530	35.00
1.13197	35.00
1.14863	35.01
1.16530	35.01
1.18197	35.00
1.19863	35.00
1.21530	34.99
1.23197	34.98
1.24863	34.96
1.26530	34.96
1.28197	34.95
1.29863	34.95
1.31530	34.95
1.33197	34.97
1.34863	34.98
1.36530	34.99
1.38197	34.98
1.39863	34.99
1.41530	34.99
1.43197	34.99
1.44863	34.98
1.46530	34.97
1.48197	34.97
1.49863	34.96
1.51530	34.97
1.53197	34.97
1.54863	34.97
1.56530	34.98
1.58197	34.99
1.59863	35.02
1.61530	35.11
1.63197	35.27
1.64863	35.47
1.66530	35.76
1.68197	36.12
1.69863	36.46
1.71530	36.81
1.73197	37.15
1.74863	37.51
1.76530	37.83
1.78197	38.14
1.79863	38.50
1.81530	38.82
1.83197	39.16
1.84863	39.49
1.86530	39.83
1.88197	40.14
1.89863	40.45
1.91530	40.78
1.93197	41.10
1.94863	41.44
1.96530	41.76
1.98197	42.09
1.99863	42.41
2.01530	42.72
2.03197	43.06
2.04863	43.38
2.06530	43.70
2.08197	44.04
2.09863	44.35
2.11530	44.68
2.13197	45.00
2.14863	45.33
2.16530	45.67
2.18197	45.98
2.19863	46.32
2.21530	46.63
2.23197	46.98
2.24863	47.32
2.26530	47.64
2.28197	47.98
2.29863	48.30
2.31530	48.62
2.33197	48.99
2.34863	49.30
2.36530	49.53
2.38197	49.62
2.39863	49.63
2.41530	49.65
2.43197	49.67
2.44863	49.67
2.46530	49.69
2.48197	49.71
2.49863	49.71
2.51530	49.75
2.53197	49.76
2.54863	49.76
2.56530	49.79
2.58197	49.80
2.59863	49.82
2.61530	49.82
2.63197	49.82
2.64863	49.85
2.66530	49.85
2.68197	49.86
2.69863	49.86
2.71530	49.85
2.73197	49.84
2.74863	49.87
2.76530	49.89
2.78197	49.90
2.79863	49.91
2.81530	49.90
2.83197	49.91
2.84863	49.91
2.86530	49.91
2.88197	49.92
2.89863	49.94
2.91530	49.96
2.93197	49.97
2.94863	49.98
2.96530	50.00
2.98197	50.01
2.99863	50.02
3.01530	50.03
3.03197	50.03
3.04863	50.04
3.06530	50.05
3.08197	50.06
3.09863	50.08
3.11530	50.08
3.13197	50.08
3.14863	50.09
3.16530	50.10
3.18197	50.10
3.19863	50.09
3.21530	50.09
3.23197	50.09
3.24863	50.09
3.26530	50.09
3.28197	50.09
3.29863	50.09
3.31530	50.10
3.33197	50.09
3.34863	50.10
3.36530	50.11
3.38197	50.11
3.39863	50.10
3.41530	50.08
3.43197	50.06
3.44863	50.04
3.46530	50.03
3.48197	50.03
3.49863	50.02
3.51530	50.02
3.53197	50.02
3.54863	50.01
3.56530	50.02
3.58197	50.02
3.59863	50.03
3.61530	50.03
3.63197	50.03
3.64863	50.03
3.66530	50.04
3.68197	50.05
3.69863	50.06
3.71530	50.06
3.73197	50.07
3.74863	50.07
3.76530	50.07
3.78197	50.08
3.79863	50.08
3.81530	50.08
3.83197	50.07
3.84863	50.07
3.86530	50.06
3.88197	50.06
3.89863	50.06
3.91530	50.07
3.93197	50.07
3.94863	50.08
3.96530	50.07
3.98197	50.06
3.99863	50.06

[Status Trace (Injection Unit Temperature)]
Interval(msec)	1000
# of Points	240
Start Time(min)	0.015
End Time(min)	3.999
Intensity Units	
Intensity Multiplier	1
R.Time (min)	Intensity
0.01530	99.98
0.03197	99.98
0.04863	99.98
0.06530	99.99
0.08197	99.99
0.09863	99.98
0.11530	99.98
0.13197	99.99
0.14863	99.98
0.16530	99.99
0.18197	99.99
0.19863	99.99
0.21530	99.98
0.23197	99.99
0.24863	99.99
0.26530	99.99
0.28197	99.98
0.29863	99.99
0.31530	99.98
0.33197	99.99
0.34863	99.99
0.36530	99.99
0.38197	99.99
0.39863	99.99
0.41530	99.99
0.43197	99.98
0.44863	99.99
0.46530	99.98
0.48197	99.99
0.49863	99.99
0.51530	99.99
0.53197	99.99
0.54863	99.98
0.56530	99.98
0.58197	99.98
0.59863	99.99
0.61530	99.98
0.63197	99.98
0.64863	99.98
0.66530	99.98
0.68197	99.98
0.69863	99.98
0.71530	99.98
0.73197	99.98
0.74863	99.98
0.76530	99.98
0.78197	99.98
0.79863	99.98
0.81530	99.98
0.83197	99.98
0.84863	99.98
0.86530	99.98
0.88197	99.98
0.89863	99.98
0.91530	99.98
0.93197	99.98
0.94863	99.98
0.96530	99.98
0.98197	99.99
0.99863	99.98
1.01530	99.98
1.03197	99.98
1.04863	99.99
1.06530	99.98
1.08197	99.98
1.09863	99.98
1.11530	99.98
1.13197	99.98
1.14863	99.99
1.16530	99.98
1.18197	99.98
1.19863	99.99
1.21530	99.98
1.23197	99.99
1.24863	99.99
1.26530	99.99
1.28197	99.99
1.29863	99.99
1.31530	99.99
1.33197	99.99
1.34863	99.99
1.36530	99.99
1.38197	99.99
1.39863	99.99
1.41530	99.99
1.43197	99.99
1.44863	99.99
1.46530	99.99
1.48197	99.99
1.49863	99.99
1.51530	99.99
1.53197	99.99
1.54863	99.99
1.56530	99.99
1.58197	99.99
1.59863	99.99
1.61530	99.99
1.63197	99.99
1.64863	99.99
1.66530	99.99
1.68197	99.99
1.69863	99.99
1.71530	99.99
1.73197	99.99
1.74863	99.99
1.76530	99.99
1.78197	99.99
1.79863	99.99
1.81530	99.99
1.83197	99.99
1.84863	99.99
1.86530	99.99
1.88197	99.99
1.89863	99.99
1.91530	99.99
1.93197	99.99
1.94863	99.98
1.96530	99.98
1.98197	99.98
1.99863	99.99
2.01530	99.98
2.03197	99.98
2.04863	99.98
2.06530	99.98
2.08197	99.98
2.09863	99.98
2.11530	99.98
2.13197	99.98
2.14863	99.98
2.16530	99.98
2.18197	99.98
2.19863	99.97
2.21530	99.98
2.23197	99.98
2.24863	99.97
2.26530	99.97
2.28197	99.97
2.29863	99.97
2.31530	99.98
2.33197	99.96
2.34863	99.97
2.36530	99.97
2.38197	99.97
2.39863	99.98
2.41530	99.97
2.43197	99.97
2.44863	99.97
2.46530	99.97
2.48197	99.98
2.49863	99.97
2.51530	99.98
2.53197	99.97
2.54863	99.98
2.56530	99.97
2.58197	99.98
2.59863	99.98
2.61530	99.98
2.63197	99.98
2.64863	99.98
2.66530	99.98
2.68197	99.98
2.69863	99.98
2.71530	99.99
2.73197	99.99
2.74863	99.99
2.76530	99.99
2.78197	99.99
2.79863	99.99
2.81530	100.00
2.83197	100.00
2.84863	99.99
2.86530	100.00
2.88197	100.00
2.89863	100.00
2.91530	100.01
2.93197	100.01
2.94863	100.01
2.96530	100.01
2.98197	100.01
2.99863	100.02
3.01530	100.02
3.03197	100.02
3.04863	100.02
3.06530	100.02
3.08197	100.02
3.09863	100.03
3.11530	100.02
3.13197	100.03
3.14863	100.03
3.16530	100.03
3.18197	100.03
3.19863	100.03
3.21530	100.03
3.23197	100.03
3.24863	100.03
3.26530	100.03
3.28197	100.03
3.29863	100.04
3.31530	100.04
3.33197	100.04
3.34863	100.04
3.36530	100.04
3.38197	100.04
3.39863	100.04
3.41530	100.04
3.43197	100.04
3.44863	100.04
3.46530	100.04
3.48197	100.05
3.49863	100.04
3.51530	100.04
3.53197	100.04
3.54863	100.05
3.56530	100.04
3.58197	100.05
3.59863	100.04
3.61530	100.04
3.63197	100.04
3.64863	100.05
3.66530	100.04
3.68197	100.04
3.69863	100.05
3.71530	100.05
3.73197	100.05
3.74863	100.05
3.76530	100.05
3.78197	100.05
3.79863	100.05
3.81530	100.05
3.83197	100.05
3.84863	100.05
3.86530	100.05
3.88197	100.06
3.89863	100.05
3.91530	100.05
3.93197	100.05
3.94863	100.05
3.96530	100.05
3.98197	100.05
3.99863	100.05

[Status Trace (Carrier Gas Pressure)]
Interval(msec)	1000
# of Points	240
Start Time(min)	0.015
End Time(min)	3.999
Intensity Units	
Intensity Multiplier	1
R.Time (min)	Intensity
0.01530	57.09
0.03197	55.56
0.04863	57.99
0.06530	59.86
0.08197	58.75
0.09863	57.98
0.11530	58.00
0.13197	58.01
0.14863	58.01
0.16530	58.01
0.18197	58.00
0.19863	58.00
0.21530	58.00
0.23197	58.00
0.24863	58.00
0.26530	58.00
0.28197	58.00
0.29863	58.00
0.31530	58.00
0.33197	58.00
0.34863	58.00
0.36530	58.00
0.38197	58.00
0.39863	58.00
0.41530	58.00
0.43197	58.00
0.44863	58.00
0.46530	58.00
0.48197	58.00
0.49863	58.00
0.51530	58.00
0.53197	58.00
0.54863	58.00
0.56530	58.00
0.58197	58.00
0.59863	58.00
0.61530	58.00
0.63197	58.00
0.64863	58.00
0.66530	58.00
0.68197	58.00
0.69863	58.00
0.71530	58.00
0.73197	58.00
0.74863	58.00
0.76530	58.00
0.78197	58.00
0.79863	58.00
0.81530	58.00
0.83197	58.00
0.84863	58.00
0.86530	58.00
0.88197	58.00
0.89863	58.00
0.91530	58.00
0.93197	58.00
0.94863	58.00
0.96530	58.00
0.98197	58.00
0.99863	58.00
1.01530	58.00
1.03197	58.00
1.04863	58.00
1.06530	58.00
1.08197	58.00
1.09863	58.00
1.11530	58.00
1.13197	58.00
1.14863	58.00
1.16530	58.00
1.18197	58.00
1.19863	58.00
1.21530	58.00
1.23197	58.00
1.24863	58.00
1.26530	58.00
1.28197	58.00
1.29863	58.00
1.31530	58.00
1.33197	58.00
1.34863	58.00
1.36530	58.00
1.38197	58.00
1.39863	58.00
1.41530	58.00
1.43197	58.00
1.44863	58.00
1.46530	58.00
1.48197	58.00
1.49863	58.00
1.51530	58.00
1.53197	58.00
1.54863	58.00
1.56530	58.00
1.58197	58.00
1.59863	58.00
1.61530	58.00
1.63197	58.00
1.64863	58.00
1.66530	58.01
1.68197	58.01
1.69863	58.00
1.71530	58.00
1.73197	58.00
1.74863	58.00
1.76530	58.00
1.78197	58.00
1.79863	58.00
1.81530	58.00
1.83197	58.00
1.84863	58.00
1.86530	58.00
1.88197	58.00
1.89863	58.00
1.91530	58.00
1.93197	58.00
1.94863	58.00
1.96530	58.00
1.98197	58.00
1.99863	58.00
2.01530	58.00
2.03197	58.00
2.04863	58.00
2.06530	58.00
2.08197	58.00
2.09863	58.00
2.11530	58.00
2.13197	58.00
2.14863	58.00
2.16530	58.00
2.18197	58.00
2.19863	58.00
2.21530	58.00
2.23197	58.00
2.24863	58.00
2.26530	58.00
2.28197	58.00
2.29863	58.00
2.31530	58.00
2.33197	58.00
2.34863	58.00
2.36530	58.00
2.38197	57.99
2.39863	57.99
2.41530	58.00
2.43197	58.00
2.44863	58.00
2.46530	58.00
2.48197	58.00
2.49863	58.00
2.51530	57.99
2.53197	57.99
2.54863	58.00
2.56530	58.00
2.58197	58.00
2.59863	58.00
2.61530	58.00
2.63197	58.00
2.64863	58.00
2.66530	58.00
2.68197	58.00
2.69863	58.00
2.71530	58.00
2.73197	58.00
2.74863	58.00
2.76530	58.00
2.78197	58.00
2.79863	58.00
2.81530	58.00
2.83197	58.00
2.84863	58.00
2.86530	58.00
2.88197	58.00
2.89863	58.00
2.91530	58.00
2.93197	58.00
2.94863	58.00
2.96530	58.00
2.98197	58.00
2.99863	58.00
3.01530	58.00
3.03197	58.00
3.04863	58.00
3.06530	58.00
3.08197	58.00
3.09863	58.00
3.11530	58.00
3.13197	58.00
3.14863	58.00
3.16530	58.00
3.18197	58.00
3.19863	58.00
3.21530	58.00
3.23197	58.00
3.24863	58.00
3.26530	58.00
3.28197	58.00
3.29863	58.00
3.31530	58.00
3.33197	58.00
3.34863	58.00
3.36530	58.00
3.38197	58.00
3.39863	58.00
3.41530	58.00
3.43197	58.00
3.44863	58.00
3.46530	58.00
3.48197	58.00
3.49863	58.00
3.51530	58.00
3.53197	58.00
3.54863	58.00
3.56530	58.00
3.58197	58.00
3.59863	58.00
3.61530	58.00
3.63197	58.00
3.64863	58.00
3.66530	58.00
3.68197	58.00
3.69863	58.00
3.71530	58.00
3.73197	58.00
3.74863	58.00
3.76530	58.00
3.78197	58.00
3.79863	58.00
3.81530	58.00
3.83197	58.00
3.84863	58.00
3.86530	58.00
3.88197	58.00
3.89863	58.00
3.91530	58.00
3.93197	58.00
3.94863	58.00
3.96530	58.00
3.98197	58.00
3.99863	58.00

[Status Trace (Carrier Gas Flow)]
Interval(msec)	1000
# of Points	240
Start Time(min)	0.015
End Time(min)	3.999
Intensity Units	
Intensity Multiplier	1
R.Time (min)	Intensity
0.01530	33.88
0.03197	34.54
0.04863	34.55
0.06530	34.52
0.08197	34.51
0.09863	34.52
0.11530	34.50
0.13197	34.52
0.14863	34.52
0.16530	34.52
0.18197	34.52
0.19863	34.52
0.21530	34.52
0.23197	34.52
0.24863	34.52
0.26530	34.52
0.28197	34.52
0.29863	34.52
0.31530	34.52
0.33197	34.52
0.34863	34.52
0.36530	34.52
0.38197	34.52
0.39863	34.52
0.41530	34.52
0.43197	34.52
0.44863	34.52
0.46530	34.52
0.48197	34.52
0.49863	34.52
0.51530	34.52
0.53197	34.52
0.54863	34.52
0.56530	34.52
0.58197	34.52
0.59863	34.52
0.61530	34.52
0.63197	34.52
0.64863	34.52
0.66530	34.52
0.68197	34.52
0.69863	34.52
0.71530	34.52
0.73197	34.52
0.74863	34.52
0.76530	34.52
0.78197	34.52
0.79863	34.52
0.81530	34.52
0.83197	34.52
0.84863	34.52
0.86530	34.52
0.88197	34.52
0.89863	34.52
0.91530	34.52
0.93197	34.52
0.94863	34.52
0.96530	34.52
0.98197	34.52
0.99863	34.52
1.01530	34.52
1.03197	34.52
1.04863	34.52
1.06530	34.52
1.08197	34.52
1.09863	34.52
1.11530	34.52
1.13197	34.52
1.14863	34.52
1.16530	34.52
1.18197	34.52
1.19863	34.52
1.21530	34.52
1.23197	34.52
1.24863	34.52
1.26530	34.52
1.28197	34.52
1.29863	34.52
1.31530	34.52
1.33197	34.52
1.34863	34.52
1.36530	34.52
1.38197	34.52
1.39863	34.52
1.41530	34.52
1.43197	34.52
1.44863	34.52
1.46530	34.52
1.48197	34.52
1.49863	34.52
1.51530	34.52
1.53197	34.52
1.54863	34.52
1.56530	34.52
1.58197	34.52
1.59863	34.52
1.61530	34.51
1.63197	34.52
1.64863	34.52
1.66530	34.52
1.68197	34.52
1.69863	34.52
1.71530	34.52
1.73197	34.53
1.74863	34.52
1.76530	34.51
1.78197	34.53
1.79863	34.52
1.81530	34.51
1.83197	34.52
1.84863	34.52
1.86530	34.52
1.88197	34.51
1.89863	34.52
1.91530	34.52
1.93197	34.52
1.94863	34.52
1.96530	34.52
1.98197	34.52
1.99863	34.53
2.01530	34.52
2.03197	34.51
2.04863	34.51
2.06530	34.53
2.08197	34.52
2.09863	34.51
2.11530	34.52
2.13197	34.52
2.14863	34.52
2.16530	34.52
2.18197	34.52
2.19863	34.52
2.21530	34.52
2.23197	34.52
2.24863	34.52
2.26530	34.52
2.28197	34.52
2.29863	34.52
2.31530	34.52
2.33197	34.52
2.34863	34.52
2.36530	34.52
2.38197	34.52
2.39863	34.52
2.41530	34.52
2.43197	34.52
2.44863	34.52
2.46530	34.52
2.48197	34.52
2.49863	34.51
2.51530	34.52
2.53197	34.52
2.54863	34.52
2.56530	34.52
2.58197	34.52
2.59863	34.52
2.61530	34.52
2.63197	34.52
2.64863	34.52
2.66530	34.52
2.68197	34.52
2.69863	34.52
2.71530	34.52
2.73197	34.52
2.74863	34.52
2.76530	34.52
2.78197	34.52
2.79863	34.52
2.81530	34.52
2.83197	34.52
2.84863	34.52
2.86530	34.51
2.88197	34.51
2.89863	34.52
2.91530	34.52
2.93197	34.52
2.94863	34.51
2.96530	34.51
2.98197	34.51
2.99863	34.53
3.01530	34.51
3.03197	34.52
3.04863	34.52
3.06530	34.52
3.08197	34.52
3.09863	34.52
3.11530	34.52
3.13197	34.52
3.14863	34.52
3.16530	34.52
3.18197	34.52
3.19863	34.52
3.21530	34.52
3.23197	34.52
3.24863	34.52
3.26530	34.52
3.28197	34.52
3.29863	34.52
3.31530	34.52
3.33197	34.52
3.34863	34.52
3.36530	34.52
3.38197	34.52
3.39863	34.52
3.41530	34.52
3.43197	34.52
3.44863	34.52
3.46530	34.52
3.48197	34.52
3.49863	34.52
3.51530	34.52
3.53197	34.52
3.54863	34.52
3.56530	34.52
3.58197	34.52
3.59863	34.52
3.61530	34.52
3.63197	34.52
3.64863	34.52
3.66530	34.52
3.68197	34.52
3.69863	34.52
3.71530	34.52
3.73197	34.52
3.74863	34.52
3.76530	34.52
3.78197	34.52
3.79863	34.52
3.81530	34.52
3.83197	34.52
3.84863	34.52
3.86530	34.51
3.88197	34.52
3.89863	34.51
3.91530	34.52
3.93197	34.53
3.94863	34.51
3.96530	34.52
3.98197	34.52
3.99863	34.54

[Status Trace (Column Flow)]
Interval(msec)	1000
# of Points	240
Start Time(min)	0.015
End Time(min)	3.999
Intensity Units	
Intensity Multiplier	1
R.Time (min)	Intensity
0.01530	5.42
0.03197	5.25
0.04863	5.53
0.06530	5.75
0.08197	5.62
0.09863	5.53
0.11530	5.53
0.13197	5.53
0.14863	5.53
0.16530	5.53
0.18197	5.53
0.19863	5.53
0.21530	5.53
0.23197	5.53
0.24863	5.53
0.26530	5.53
0.28197	5.53
0.29863	5.53
0.31530	5.53
0.33197	5.53
0.34863	5.53
0.36530	5.53
0.38197	5.53
0.39863	5.53
0.41530	5.53
0.43197	5.53
0.44863	5.53
0.46530	5.53
0.48197	5.53
0.49863	5.53
0.51530	5.53
0.53197	5.53
0.54863	5.53
0.56530	5.53
0.58197	5.53
0.59863	5.53
0.61530	5.53
0.63197	5.53
0.64863	5.53
0.66530	5.53
0.68197	5.53
0.69863	5.53
0.71530	5.53
0.73197	5.53
0.74863	5.53
0.76530	5.53
0.78197	5.53
0.79863	5.53
0.81530	5.53
0.83197	5.53
0.84863	5.53
0.86530	5.53
0.88197	5.53
0.89863	5.53
0.91530	5.53
0.93197	5.53
0.94863	5.53
0.96530	5.53
0.98197	5.53
0.99863	5.53
1.01530	5.53
1.03197	5.53
1.04863	5.53
1.06530	5.53
1.08197	5.53
1.09863	5.53
1.11530	5.53
1.13197	5.53
1.14863	5.53
1.16530	5.53
1.18197	5.53
1.19863	5.53
1.21530	5.53
1.23197	5.53
1.24863	5.53
1.26530	5.53
1.28197	5.53
1.29863	5.53
1.31530	5.53
1.33197	5.53
1.34863	5.53
1.36530	5.53
1.38197	5.53
1.39863	5.53
1.41530	5.53
1.43197	5.53
1.44863	5.53
1.46530	5.53
1.48197	5.53
1.49863	5.53
1.51530	5.53
1.53197	5.53
1.54863	5.53
1.56530	5.53
1.58197	5.53
1.59863	5.53
1.61530	5.53
1.63197	5.52
1.64863	5.52
1.66530	5.51
1.68197	5.50
1.69863	5.49
1.71530	5.48
1.73197	5.47
1.74863	5.45
1.76530	5.44
1.78197	5.44
1.79863	5.42
1.81530	5.41
1.83197	5.40
1.84863	5.39
1.86530	5.38
1.88197	5.37
1.89863	5.36
1.91530	5.35
1.93197	5.35
1.94863	5.34
1.96530	5.32
1.98197	5.32
1.99863	5.31
2.01530	5.30
2.03197	5.29
2.04863	5.28
2.06530	5.27
2.08197	5.26
2.09863	5.25
2.11530	5.24
2.13197	5.23
2.14863	5.22
2.16530	5.21
2.18197	5.20
2.19863	5.19
2.21530	5.18
2.23197	5.17
2.24863	5.16
2.26530	5.15
2.28197	5.15
2.29863	5.14
2.31530	5.13
2.33197	5.12
2.34863	5.11
2.36530	5.10
2.38197	5.10
2.39863	5.10
2.41530	5.10
2.43197	5.10
2.44863	5.10
2.46530	5.10
2.48197	5.10
2.49863	5.10
2.51530	5.09
2.53197	5.09
2.54863	5.09
2.56530	5.09
2.58197	5.09
2.59863	5.09
2.61530	5.09
2.63197	5.09
2.64863	5.09
2.66530	5.09
2.68197	5.09
2.69863	5.09
2.71530	5.09
2.73197	5.09
2.74863	5.09
2.76530	5.09
2.78197	5.09
2.79863	5.09
2.81530	5.09
2.83197	5.09
2.84863	5.09
2.86530	5.09
2.88197	5.09
2.89863	5.09
2.91530	5.09
2.93197	5.09
2.94863	5.09
2.96530	5.09
2.98197	5.09
2.99863	5.09
3.01530	5.09
3.03197	5.09
3.04863	5.09
3.06530	5.09
3.08197	5.09
3.09863	5.09
3.11530	5.09
3.13197	5.09
3.14863	5.09
3.16530	5.09
3.18197	5.09
3.19863	5.09
3.21530	5.09
3.23197	5.09
3.24863	5.09
3.26530	5.09
3.28197	5.09
3.29863	5.09
3.31530	5.09
3.33197	5.09
3.34863	5.09
3.36530	5.08
3.38197	5.08
3.39863	5.09
3.41530	5.09
3.43197	5.09
3.44863	5.09
3.46530	5.09
3.48197	5.09
3.49863	5.09
3.51530	5.09
3.53197	5.09
3.54863	5.09
3.56530	5.09
3.58197	5.09
3.59863	5.09
3.61530	5.09
3.63197	5.09
3.64863	5.09
3.66530	5.09
3.68197	5.09
3.69863	5.09
3.71530	5.09
3.73197	5.09
3.74863	5.09
3.76530	5.09
3.78197	5.09
3.79863	5.09
3.81530	5.09
3.83197	5.09
3.84863	5.09
3.86530	5.09
3.88197	5.09
3.89863	5.09
3.91530	5.09
3.93197	5.09
3.94863	5.09
3.96530	5.09
3.98197	5.09
3.99863	5.09

[Status Trace (Linear Velocity)]
Interval(msec)	1000
# of Points	240
Start Time(min)	0.015
End Time(min)	3.999
Intensity Units	
Intensity Multiplier	1
R.Time (min)	Intensity
0.01530	38.42
0.03197	37.41
0.04863	39.01
0.06530	40.24
0.08197	39.50
0.09863	39.00
0.11530	39.01
0.13197	39.02
0.14863	39.02
0.16530	39.02
0.18197	39.02
0.19863	39.02
0.21530	39.02
0.23197	39.02
0.24863	39.02
0.26530	39.02
0.28197	39.02
0.29863	39.02
0.31530	39.02
0.33197	39.02
0.34863	39.02
0.36530	39.02
0.38197	39.02
0.39863	39.02
0.41530	39.02
0.43197	39.02
0.44863	39.02
0.46530	39.02
0.48197	39.02
0.49863	39.02
0.51530	39.02
0.53197	39.02
0.54863	39.02
0.56530	39.02
0.58197	39.02
0.59863	39.02
0.61530	39.02
0.63197	39.02
0.64863	39.02
0.66530	39.02
0.68197	39.02
0.69863	39.02
0.71530	39.02
0.73197	39.02
0.74863	39.02
0.76530	39.02
0.78197	39.02
0.79863	39.02
0.81530	39.02
0.83197	39.02
0.84863	39.02
0.86530	39.02
0.88197	39.02
0.89863	39.02
0.91530	39.02
0.93197	39.02
0.94863	39.02
0.96530	39.02
0.98197	39.02
0.99863	39.02
1.01530	39.02
1.03197	39.02
1.04863	39.02
1.06530	39.02
1.08197	39.02
1.09863	39.02
1.11530	39.02
1.13197	39.02
1.14863	39.02
1.16530	39.02
1.18197	39.02
1.19863	39.02
1.21530	39.02
1.23197	39.02
1.24863	39.02
1.26530	39.02
1.28197	39.02
1.29863	39.02
1.31530	39.02
1.33197	39.02
1.34863	39.02
1.36530	39.02
1.38197	39.02
1.39863	39.02
1.41530	39.02
1.43197	39.02
1.44863	39.02
1.46530	39.02
1.48197	39.02
1.49863	39.02
1.51530	39.02
1.53197	39.02
1.54863	39.02
1.56530	39.02
1.58197	39.02
1.59863	39.02
1.61530	39.01
1.63197	39.00
1.64863	38.98
1.66530	38.95
1.68197	38.92
1.69863	38.88
1.71530	38.85
1.73197	38.82
1.74863	38.78
1.76530	38.75
1.78197	38.72
1.79863	38.69
1.81530	38.66
1.83197	38.63
1.84863	38.60
1.86530	38.56
1.88197	38.53
1.89863	38.50
1.91530	38.47
1.93197	38.44
1.94863	38.41
1.96530	38.38
1.98197	38.35
1.99863	38.32
2.01530	38.29
2.03197	38.26
2.04863	38.23
2.06530	38.20
2.08197	38.17
2.09863	38.14
2.11530	38.11
2.13197	38.09
2.14863	38.06
2.16530	38.02
2.18197	38.00
2.19863	37.97
2.21530	37.93
2.23197	37.91
2.24863	37.88
2.26530	37.84
2.28197	37.82
2.29863	37.79
2.31530	37.76
2.33197	37.73
2.34863	37.70
2.36530	37.67
2.38197	37.67
2.39863	37.66
2.41530	37.66
2.43197	37.66
2.44863	37.66
2.46530	37.66
2.48197	37.66
2.49863	37.66
2.51530	37.65
2.53197	37.65
2.54863	37.66
2.56530	37.65
2.58197	37.65
2.59863	37.65
2.61530	37.65
2.63197	37.65
2.64863	37.65
2.66530	37.65
2.68197	37.65
2.69863	37.65
2.71530	37.65
2.73197	37.65
2.74863	37.65
2.76530	37.64
2.78197	37.64
2.79863	37.64
2.81530	37.64
2.83197	37.64
2.84863	37.64
2.86530	37.64
2.88197	37.64
2.89863	37.64
2.91530	37.64
2.93197	37.64
2.94863	37.64
2.96530	37.63
2.98197	37.63
2.99863	37.63
3.01530	37.63
3.03197	37.63
3.04863	37.63
3.06530	37.63
3.08197	37.63
3.09863	37.63
3.11530	37.63
3.13197	37.63
3.14863	37.63
3.16530	37.63
3.18197	37.63
3.19863	37.63
3.21530	37.63
3.23197	37.63
3.24863	37.63
3.26530	37.63
3.28197	37.63
3.29863	37.63
3.31530	37.63
3.33197	37.63
3.34863	37.63
3.36530	37.63
3.38197	37.63
3.39863	37.63
3.41530	37.63
3.43197	37.63
3.44863	37.63
3.46530	37.63
3.48197	37.63
3.49863	37.63
3.51530	37.63
3.53197	37.63
3.54863	37.63
3.56530	37.63
3.58197	37.63
3.59863	37.63
3.61530	37.63
3.63197	37.63
3.64863	37.63
3.66530	37.63
3.68197	37.63
3.69863	37.63
3.71530	37.63
3.73197	37.63
3.74863	37.63
3.76530	37.63
3.78197	37.63
3.79863	37.63
3.81530	37.63
3.83197	37.63
3.84863	37.63
3.86530	37.63
3.88197	37.63
3.89863	37.63
3.91530	37.63
3.93197	37.63
3.94863	37.63
3.96530	37.63
3.98197	37.63
3.99863	37.63

