[Header]
Application Name	LabSolutions
Version	5.110
Data File Name	C:\Users\User\Desktop\GC Analyses\Jack\UIC Prairie Sampling\7.9.22\220909_083.gcd
Output Date	9/28/2022
Output Time	11:29:54 AM

[File Information]
Type	Data File
Generated	9/15/2022 2:33:01 PM
Generated by	System Administrator
Modified	9/15/2022 2:38:29 PM
Modified by	System Administrator

[Sample Information]
Operator Name	System Administrator
Acquired	9/15/2022 2:34:27 PM
Sample Type	1:Standard
Level	1
Sample Name	220909_Run
Sample ID	220909_Run
ISTD Amount1	1
ISTD Amount2	1
ISTD Amount3	1
ISTD Amount4	1
ISTD Amount5	1
ISTD Amount6	1
ISTD Amount7	1
ISTD Amount8	1
ISTD Amount9	1
ISTD Amount10	1
ISTD Amount11	1
ISTD Amount12	1
ISTD Amount13	1
ISTD Amount14	1
ISTD Amount15	1
ISTD Amount16	1
ISTD Amount17	1
ISTD Amount18	1
ISTD Amount19	1
ISTD Amount20	1
ISTD Amount21	1
ISTD Amount22	1
ISTD Amount23	1
ISTD Amount24	1
ISTD Amount25	1
ISTD Amount26	1
ISTD Amount27	1
ISTD Amount28	1
ISTD Amount29	1
ISTD Amount30	1
ISTD Amount31	1
ISTD Amount32	1
Sample Amount	1
Dilution Factor	1
Vial#	1
Injection Volume	1
Injection Count	1
Bar Code	

[Original Files]
Data File	C:\Users\User\Desktop\GC Analyses\Jack\220909\220909_083.gcd
Method File	C:\LabSolutions\Data\GHG_4min_2022\ghg3_togas_w_acet_4 min_new_int.gcm
Batch File	
Report Format File	c:\LabSolutions\System\DEFAULT.lsr

[File Description]


[Configuration]
Instrument Name	C0B7VH3-Instrument1
Instrument #	1
Line #	1
# of Detectors	3
Detector ID	DET#1	DET#2	DET#3
Detector Name	FID	PTCD	ECD
# of Channels	1	1	1

[Peak Table(Ch1)]
# of Peaks	3
Peak#	R.Time	I.Time	F.Time	Area	Height	A/H	Conc.	Mark	ID#	Name	k'	Plate #	Plate Ht.	Tailing	Resolution	Sep.Factor	Area Ratio	Height Ratio	Conc. %	Norm Conc.
1	1.476	1.432	1.538	19552	8846	2.210	100.000	   	1	CO	0.000	8384	17.892	1.176	0.000	0.000	0	0	16.667	16.667
2	1.567	1.538	1.626	4465	2263	1.973	100.000	 V 	2	CH4	0.062	11505	13.038	1.269	1.492	0.000	0	0	16.667	16.667
3	1.996	1.941	2.304	2470384	1210424	2.041	400.000	   	3	CO2	0.353	17508	8.568	1.241	7.222	5.680	0	0	66.667	66.667

[Peak Table(Ch2)]
# of Peaks	0

[Peak Table(Ch3)]
# of Peaks	2
Peak#	R.Time	I.Time	F.Time	Area	Height	A/H	Conc.	Mark	ID#	Name	k'	Plate #	Plate Ht.	Tailing	Resolution	Sep.Factor	Area Ratio	Height Ratio	Conc. %	Norm Conc.
1	2.587	1.820	2.653	10262	850	12.067	0.000	   			0.000	2048	73.244	0.000	0.000	0.000	0	0	0.000	0.000
2	2.880	2.653	3.863	46437	5880	7.897	1.000	 V 	1	N2O	0.113	10713	14.002	0.000	1.726	0.000	0	0	100.000	100.000

[Compound Results(Ch1)]
# of IDs	6
ID#	Name	R.Time	Area	Height	Conc.	Curve	3rd	2nd	1st	Constant	Area Ratio	Height Ratio	Conc. %	Norm Conc.
1	CO	1.476	19552	8846	100.000	Linear	0.000000e+00	0.000000e+00	1.955166e+002	0.000000e+00	0	0	16.667	16.667
2	CH4	1.567	4465	2263	100.000	Linear	0.000000e+00	0.000000e+00	4.465003e+001	0.000000e+00	0	0	16.667	16.667
3	CO2	1.996	2470384	1210424	400.000	Linear	0.000000e+00	0.000000e+00	6.175961e+003	0.000000e+00	0	0	66.667	66.667
4	Ethylene	0.000	0	0	0.000	Linear	0.000000e+00	0.000000e+00	0.000000e+00	0.000000e+00	0	0	0.000	0.000
5	Acetylene	0.000	0	0	0.000	Linear	0.000000e+00	0.000000e+00	0.000000e+00	0.000000e+00	0	0	0.000	0.000
6	Ethane	0.000	0	0	0.000	Linear	0.000000e+00	0.000000e+00	0.000000e+00	0.000000e+00	0	0	0.000	0.000

[Compound Results(Ch2)]
# of IDs	5
ID#	Name	R.Time	Area	Height	Conc.	Curve	3rd	2nd	1st	Constant	Area Ratio	Height Ratio	Conc. %	Norm Conc.
1	Hydrogen	0.000	0	0	0.000	Linear	0.000000e+00	0.000000e+00	0.000000e+00	0.000000e+00	0	0	0.000	0.000
2	Oxygen	0.000	0	0	0.000	Linear	0.000000e+00	0.000000e+00	0.000000e+00	0.000000e+00	0	0	0.000	0.000
3	Nitrogen	0.000	0	0	0.000	Linear	0.000000e+00	0.000000e+00	0.000000e+00	0.000000e+00	0	0	0.000	0.000
4	Methane	0.000	0	0	0.000	Linear	0.000000e+00	0.000000e+00	0.000000e+00	0.000000e+00	0	0	0.000	0.000
5	Carbon Monoxide	0.000	0	0	0.000	Linear	0.000000e+00	0.000000e+00	0.000000e+00	0.000000e+00	0	0	0.000	0.000

[Compound Results(Ch3)]
# of IDs	2
ID#	Name	R.Time	Area	Height	Conc.	Curve	3rd	2nd	1st	Constant	Area Ratio	Height Ratio	Conc. %	Norm Conc.
1	N2O	2.880	46437	5880	1.000	Linear	0.000000e+00	0.000000e+00	4.643743e+004	0.000000e+00	0	0	100.000	100.000
2	SF6	0.000	0	0	0.000	Linear	0.000000e+00	0.000000e+00	0.000000e+00	0.000000e+00	0	0	0.000	0.000

[Group Results(Ch1)]
# of Groups	0

[Group Results(Ch2)]
# of Groups	0

[Group Results(Ch3)]
# of Groups	0

[Chromatogram (Ch1)]
Interval(msec)	220
# of Points	1091
Start Time(min)	0.002
End Time(min)	3.998
R.Time (min)	Intensity
0.00167	-6
0.00533	-10
0.00900	-11
0.01267	-11
0.01633	-5
0.02000	2
0.02367	6
0.02733	7
0.03100	8
0.03467	8
0.03833	6
0.04200	4
0.04567	3
0.04933	-1
0.05300	-4
0.05667	-7
0.06033	-11
0.06400	-12
0.06767	-8
0.07133	-5
0.07500	-3
0.07867	-2
0.08233	1
0.08600	6
0.08967	12
0.09333	13
0.09700	12
0.10067	12
0.10433	15
0.10800	15
0.11167	11
0.11533	2
0.11900	-9
0.12267	-21
0.12633	-29
0.13000	-34
0.13367	-38
0.13733	-37
0.14100	-29
0.14467	-18
0.14833	-13
0.15200	-14
0.15567	-14
0.15933	-15
0.16300	-15
0.16667	-14
0.17033	-12
0.17400	-6
0.17767	-1
0.18133	4
0.18500	5
0.18867	3
0.19233	1
0.19600	-1
0.19967	-3
0.20333	-5
0.20700	-7
0.21067	-9
0.21433	-11
0.21800	-12
0.22167	-13
0.22533	-13
0.22900	-14
0.23267	-16
0.23633	-17
0.24000	-18
0.24367	-17
0.24733	-15
0.25100	-10
0.25467	-3
0.25833	2
0.26200	5
0.26567	6
0.26933	4
0.27300	-1
0.27667	-7
0.28033	-15
0.28400	-19
0.28767	-19
0.29133	-18
0.29500	-20
0.29867	-22
0.30233	-25
0.30600	-27
0.30967	-29
0.31333	-28
0.31700	-27
0.32067	-28
0.32433	-31
0.32800	-33
0.33167	-35
0.33533	-37
0.33900	-36
0.34267	-32
0.34633	-26
0.35000	-23
0.35367	-23
0.35733	-23
0.36100	-22
0.36467	-22
0.36833	-22
0.37200	-23
0.37567	-23
0.37933	-24
0.38300	-20
0.38667	-19
0.39033	-21
0.39400	-21
0.39767	-21
0.40133	-20
0.40500	-22
0.40867	-24
0.41233	-26
0.41600	-25
0.41967	-24
0.42333	-26
0.42700	-30
0.43067	-32
0.43433	-30
0.43800	-26
0.44167	-19
0.44533	-15
0.44900	-13
0.45267	-15
0.45633	-19
0.46000	-23
0.46367	-26
0.46733	-30
0.47100	-32
0.47467	-30
0.47833	-24
0.48200	-18
0.48567	-15
0.48933	-13
0.49300	-10
0.49667	-8
0.50033	-7
0.50400	-6
0.50767	-4
0.51133	-5
0.51500	-9
0.51867	-12
0.52233	-15
0.52600	-15
0.52967	-15
0.53333	-15
0.53700	-16
0.54067	-12
0.54433	-5
0.54800	1
0.55167	5
0.55533	7
0.55900	-2
0.56267	-11
0.56633	-23
0.57000	-39
0.57367	-49
0.57733	-53
0.58100	-52
0.58467	-47
0.58833	-35
0.59200	-24
0.59567	-15
0.59933	-9
0.60300	-13
0.60667	-18
0.61033	-24
0.61400	-28
0.61767	-31
0.62133	-31
0.62500	-31
0.62867	-29
0.63233	-25
0.63600	-18
0.63967	-11
0.64333	-7
0.64700	-6
0.65067	-8
0.65433	-14
0.65800	-19
0.66167	-18
0.66533	-12
0.66900	-11
0.67267	-14
0.67633	-21
0.68000	-27
0.68367	-32
0.68733	-37
0.69100	-44
0.69467	-48
0.69833	-50
0.70200	-51
0.70567	-48
0.70933	-40
0.71300	-27
0.71667	-14
0.72033	-9
0.72400	-12
0.72767	-17
0.73133	-21
0.73500	-24
0.73867	-28
0.74233	-32
0.74600	-34
0.74967	-36
0.75333	-37
0.75700	-32
0.76067	-26
0.76433	-23
0.76800	-23
0.77167	-27
0.77533	-31
0.77900	-35
0.78267	-37
0.78633	-36
0.79000	-34
0.79367	-33
0.79733	-33
0.80100	-34
0.80467	-35
0.80833	-37
0.81200	-39
0.81567	-39
0.81933	-32
0.82300	-25
0.82667	-22
0.83033	-23
0.83400	-27
0.83767	-30
0.84133	-33
0.84500	-36
0.84867	-40
0.85233	-45
0.85600	-45
0.85967	-43
0.86333	-42
0.86700	-46
0.87067	-54
0.87433	-59
0.87800	-58
0.88167	-55
0.88533	-51
0.88900	-48
0.89267	-46
0.89633	-49
0.90000	-56
0.90367	-62
0.90733	-65
0.91100	-63
0.91467	-58
0.91833	-55
0.92200	-53
0.92567	-54
0.92933	-57
0.93300	-60
0.93667	-58
0.94033	-49
0.94400	-39
0.94767	-37
0.95133	-40
0.95500	-42
0.95867	-45
0.96233	-49
0.96600	-48
0.96967	-43
0.97333	-39
0.97700	-40
0.98067	-42
0.98433	-42
0.98800	-41
0.99167	-42
0.99533	-45
0.99900	-50
1.00267	-53
1.00633	-58
1.01000	-61
1.01367	-59
1.01733	-53
1.02100	-45
1.02467	-38
1.02833	-33
1.03200	-30
1.03567	-29
1.03933	-33
1.04300	-36
1.04667	-39
1.05033	-42
1.05400	-42
1.05767	-42
1.06133	-42
1.06500	-43
1.06867	-46
1.07233	-47
1.07600	-49
1.07967	-54
1.08333	-62
1.08700	-68
1.09067	-72
1.09433	-73
1.09800	-72
1.10167	-71
1.10533	-71
1.10900	-71
1.11267	-70
1.11633	-66
1.12000	-61
1.12367	-54
1.12733	-49
1.13100	-48
1.13467	-48
1.13833	-47
1.14200	-45
1.14567	-45
1.14933	-46
1.15300	-51
1.15667	-56
1.16033	-57
1.16400	-54
1.16767	-49
1.17133	-45
1.17500	-44
1.17867	-45
1.18233	-47
1.18600	-49
1.18967	-51
1.19333	-54
1.19700	-59
1.20067	-62
1.20433	-58
1.20800	-53
1.21167	-50
1.21533	-53
1.21900	-61
1.22267	-70
1.22633	-76
1.23000	-78
1.23367	-75
1.23733	-70
1.24100	-64
1.24467	-58
1.24833	-53
1.25200	-52
1.25567	-57
1.25933	-67
1.26300	-75
1.26667	-79
1.27033	-77
1.27400	-73
1.27767	-66
1.28133	-61
1.28500	-58
1.28867	-58
1.29233	-59
1.29600	-64
1.29967	-67
1.30333	-68
1.30700	-67
1.31067	-66
1.31433	-66
1.31800	-66
1.32167	-65
1.32533	-65
1.32900	-69
1.33267	-74
1.33633	-78
1.34000	-80
1.34367	-80
1.34733	-77
1.35100	-71
1.35467	-63
1.35833	-57
1.36200	-55
1.36567	-55
1.36933	-52
1.37300	-50
1.37667	-52
1.38033	-60
1.38400	-70
1.38767	-76
1.39133	-76
1.39500	-72
1.39867	-61
1.40233	-51
1.40600	-48
1.40967	-57
1.41333	-70
1.41700	-81
1.42067	-89
1.42433	-93
1.42800	-93
1.43167	-90
1.43533	-81
1.43900	-43
1.44267	118
1.44633	541
1.45000	1307
1.45367	2483
1.45733	4010
1.46100	5619
1.46467	7025
1.46833	8063
1.47200	8652
1.47567	8751
1.47933	8350
1.48300	7494
1.48667	6325
1.49033	5047
1.49400	3844
1.49767	2823
1.50133	2015
1.50500	1408
1.50867	961
1.51233	640
1.51600	411
1.51967	248
1.52333	134
1.52700	53
1.53067	-3
1.53433	-36
1.53800	-43
1.54167	4
1.54533	164
1.54900	481
1.55267	909
1.55633	1350
1.56000	1729
1.56367	2007
1.56733	2158
1.57100	2149
1.57467	1970
1.57833	1655
1.58200	1280
1.58567	918
1.58933	616
1.59300	390
1.59667	229
1.60033	117
1.60400	42
1.60767	-12
1.61133	-52
1.61500	-79
1.61867	-95
1.62233	-105
1.62600	-111
1.62967	-112
1.63333	-112
1.63700	-114
1.64067	-118
1.64433	-125
1.64800	-131
1.65167	-135
1.65533	-135
1.65900	-130
1.66267	-121
1.66633	-115
1.67000	-113
1.67367	-114
1.67733	-114
1.68100	-116
1.68467	-118
1.68833	-115
1.69200	-109
1.69567	-104
1.69933	-100
1.70300	-102
1.70667	-105
1.71033	-106
1.71400	-107
1.71767	-106
1.72133	-106
1.72500	-105
1.72867	-103
1.73233	-97
1.73600	-90
1.73967	-86
1.74333	-86
1.74700	-91
1.75067	-99
1.75433	-104
1.75800	-105
1.76167	-101
1.76533	-99
1.76900	-98
1.77267	-101
1.77633	-104
1.78000	-106
1.78367	-104
1.78733	-100
1.79100	-98
1.79467	-97
1.79833	-98
1.80200	-100
1.80567	-100
1.80933	-98
1.81300	-99
1.81667	-100
1.82033	-100
1.82400	-100
1.82767	-98
1.83133	-98
1.83500	-97
1.83867	-96
1.84233	-95
1.84600	-94
1.84967	-92
1.85333	-93
1.85700	-96
1.86067	-98
1.86433	-96
1.86800	-91
1.87167	-87
1.87533	-86
1.87900	-88
1.88267	-93
1.88633	-99
1.89000	-101
1.89367	-98
1.89733	-93
1.90100	-92
1.90467	-96
1.90833	-100
1.91200	-102
1.91567	-103
1.91933	-106
1.92300	-110
1.92667	-113
1.93033	-116
1.93400	-118
1.93767	-117
1.94133	-112
1.94500	-105
1.94867	-97
1.95233	-64
1.95600	157
1.95967	1452
1.96333	7344
1.96700	27725
1.97067	81829
1.97433	192775
1.97800	369847
1.98167	594350
1.98533	826996
1.98900	1025923
1.99267	1159525
1.99633	1210351
2.00000	1174979
2.00367	1064629
2.00733	903356
2.01100	721662
2.01467	547012
2.01833	397238
2.02200	279257
2.02567	191944
2.02933	130155
2.03300	87760
2.03667	59258
2.04033	40331
2.04400	27830
2.04767	19569
2.05133	14079
2.05500	10387
2.05867	7868
2.06233	6118
2.06600	4877
2.06967	3975
2.07333	3306
2.07700	2801
2.08067	2410
2.08433	2101
2.08800	1852
2.09167	1646
2.09533	1474
2.09900	1332
2.10267	1213
2.10633	1113
2.11000	1028
2.11367	957
2.11733	901
2.12100	852
2.12467	807
2.12833	765
2.13200	723
2.13567	684
2.13933	645
2.14300	609
2.14667	576
2.15033	544
2.15400	515
2.15767	488
2.16133	466
2.16500	449
2.16867	432
2.17233	413
2.17600	397
2.17967	387
2.18333	378
2.18700	369
2.19067	359
2.19433	347
2.19800	337
2.20167	327
2.20533	316
2.20900	301
2.21267	288
2.21633	278
2.22000	271
2.22367	268
2.22733	265
2.23100	261
2.23467	255
2.23833	250
2.24200	245
2.24567	236
2.24933	225
2.25300	216
2.25667	212
2.26033	211
2.26400	209
2.26767	204
2.27133	198
2.27500	192
2.27867	186
2.28233	181
2.28600	173
2.28967	164
2.29333	158
2.29700	154
2.30067	146
2.30433	139
2.30800	136
2.31167	137
2.31533	139
2.31900	142
2.32267	144
2.32633	146
2.33000	146
2.33367	143
2.33733	138
2.34100	134
2.34467	132
2.34833	128
2.35200	123
2.35567	121
2.35933	121
2.36300	124
2.36667	127
2.37033	131
2.37400	131
2.37767	128
2.38133	124
2.38500	117
2.38867	109
2.39233	104
2.39600	101
2.39967	99
2.40333	97
2.40700	93
2.41067	89
2.41433	89
2.41800	95
2.42167	101
2.42533	102
2.42900	102
2.43267	102
2.43633	103
2.44000	101
2.44367	96
2.44733	91
2.45100	85
2.45467	77
2.45833	72
2.46200	70
2.46567	72
2.46933	76
2.47300	79
2.47667	80
2.48033	80
2.48400	75
2.48767	69
2.49133	65
2.49500	62
2.49867	64
2.50233	69
2.50600	74
2.50967	76
2.51333	74
2.51700	71
2.52067	71
2.52433	76
2.52800	88
2.53167	98
2.53533	103
2.53900	104
2.54267	99
2.54633	91
2.55000	81
2.55367	70
2.55733	61
2.56100	55
2.56467	54
2.56833	55
2.57200	55
2.57567	54
2.57933	51
2.58300	46
2.58667	37
2.59033	27
2.59400	22
2.59767	23
2.60133	26
2.60500	29
2.60867	29
2.61233	31
2.61600	35
2.61967	39
2.62333	40
2.62700	40
2.63067	37
2.63433	31
2.63800	24
2.64167	20
2.64533	21
2.64900	26
2.65267	33
2.65633	39
2.66000	45
2.66367	49
2.66733	55
2.67100	64
2.67467	70
2.67833	66
2.68200	54
2.68567	42
2.68933	31
2.69300	23
2.69667	19
2.70033	18
2.70400	20
2.70767	25
2.71133	33
2.71500	41
2.71867	44
2.72233	40
2.72600	34
2.72967	30
2.73333	29
2.73700	29
2.74067	27
2.74433	25
2.74800	22
2.75167	20
2.75533	17
2.75900	16
2.76267	22
2.76633	32
2.77000	43
2.77367	50
2.77733	53
2.78100	54
2.78467	52
2.78833	49
2.79200	43
2.79567	38
2.79933	33
2.80300	27
2.80667	24
2.81033	25
2.81400	28
2.81767	28
2.82133	25
2.82500	24
2.82867	28
2.83233	31
2.83600	32
2.83967	30
2.84333	27
2.84700	25
2.85067	22
2.85433	20
2.85800	22
2.86167	24
2.86533	26
2.86900	27
2.87267	28
2.87633	30
2.88000	30
2.88367	29
2.88733	30
2.89100	30
2.89467	29
2.89833	30
2.90200	31
2.90567	31
2.90933	33
2.91300	34
2.91667	30
2.92033	25
2.92400	23
2.92767	19
2.93133	17
2.93500	21
2.93867	25
2.94233	27
2.94600	25
2.94967	23
2.95333	22
2.95700	22
2.96067	22
2.96433	24
2.96800	27
2.97167	29
2.97533	31
2.97900	35
2.98267	40
2.98633	43
2.99000	45
2.99367	47
2.99733	47
3.00100	46
3.00467	42
3.00833	36
3.01200	30
3.01567	30
3.01933	37
3.02300	45
3.02667	47
3.03033	45
3.03400	38
3.03767	29
3.04133	25
3.04500	23
3.04867	20
3.05233	17
3.05600	18
3.05967	19
3.06333	21
3.06700	27
3.07067	32
3.07433	37
3.07800	37
3.08167	30
3.08533	19
3.08900	10
3.09267	5
3.09633	4
3.10000	6
3.10367	11
3.10733	18
3.11100	20
3.11467	19
3.11833	19
3.12200	24
3.12567	31
3.12933	36
3.13300	37
3.13667	37
3.14033	33
3.14400	24
3.14767	17
3.15133	13
3.15500	13
3.15867	10
3.16233	6
3.16600	2
3.16967	0
3.17333	2
3.17700	2
3.18067	0
3.18433	1
3.18800	5
3.19167	10
3.19533	13
3.19900	15
3.20267	16
3.20633	16
3.21000	17
3.21367	17
3.21733	15
3.22100	17
3.22467	18
3.22833	15
3.23200	10
3.23567	5
3.23933	2
3.24300	0
3.24667	1
3.25033	3
3.25400	5
3.25767	11
3.26133	14
3.26500	16
3.26867	19
3.27233	24
3.27600	28
3.27967	34
3.28333	38
3.28700	38
3.29067	36
3.29433	36
3.29800	36
3.30167	36
3.30533	33
3.30900	28
3.31267	24
3.31633	19
3.32000	17
3.32367	17
3.32733	21
3.33100	25
3.33467	30
3.33833	38
3.34200	46
3.34567	50
3.34933	50
3.35300	45
3.35667	37
3.36033	29
3.36400	24
3.36767	23
3.37133	23
3.37500	22
3.37867	23
3.38233	28
3.38600	34
3.38967	38
3.39333	39
3.39700	38
3.40067	39
3.40433	44
3.40800	46
3.41167	43
3.41533	38
3.41900	29
3.42267	21
3.42633	15
3.43000	12
3.43367	11
3.43733	15
3.44100	20
3.44467	22
3.44833	21
3.45200	20
3.45567	23
3.45933	23
3.46300	24
3.46667	28
3.47033	32
3.47400	36
3.47767	42
3.48133	49
3.48500	51
3.48867	46
3.49233	38
3.49600	31
3.49967	24
3.50333	22
3.50700	20
3.51067	19
3.51433	20
3.51800	20
3.52167	20
3.52533	19
3.52900	18
3.53267	20
3.53633	23
3.54000	26
3.54367	27
3.54733	27
3.55100	30
3.55467	32
3.55833	31
3.56200	27
3.56567	24
3.56933	26
3.57300	29
3.57667	30
3.58033	29
3.58400	26
3.58767	24
3.59133	24
3.59500	28
3.59867	34
3.60233	35
3.60600	33
3.60967	26
3.61333	17
3.61700	13
3.62067	12
3.62433	16
3.62800	24
3.63167	30
3.63533	31
3.63900	29
3.64267	28
3.64633	31
3.65000	36
3.65367	38
3.65733	36
3.66100	33
3.66467	33
3.66833	36
3.67200	40
3.67567	42
3.67933	42
3.68300	40
3.68667	41
3.69033	40
3.69400	40
3.69767	43
3.70133	46
3.70500	45
3.70867	42
3.71233	37
3.71600	34
3.71967	34
3.72333	37
3.72700	38
3.73067	37
3.73433	37
3.73800	38
3.74167	41
3.74533	46
3.74900	49
3.75267	55
3.75633	57
3.76000	57
3.76367	54
3.76733	49
3.77100	44
3.77467	41
3.77833	41
3.78200	39
3.78567	36
3.78933	32
3.79300	28
3.79667	28
3.80033	30
3.80400	33
3.80767	36
3.81133	38
3.81500	39
3.81867	38
3.82233	36
3.82600	35
3.82967	37
3.83333	40
3.83700	38
3.84067	34
3.84433	30
3.84800	29
3.85167	27
3.85533	25
3.85900	24
3.86267	22
3.86633	18
3.87000	16
3.87367	16
3.87733	18
3.88100	20
3.88467	25
3.88833	30
3.89200	35
3.89567	36
3.89933	33
3.90300	26
3.90667	18
3.91033	14
3.91400	13
3.91767	15
3.92133	17
3.92500	18
3.92867	18
3.93233	18
3.93600	19
3.93967	16
3.94333	13
3.94700	11
3.95067	9
3.95433	11
3.95800	16
3.96167	24
3.96533	30
3.96900	33
3.97267	30
3.97633	24
3.98000	16
3.98367	11
3.98733	14
3.99100	17
3.99467	20
3.99833	19

[Chromatogram (Ch2)]
Interval(msec)	220
# of Points	1091
Start Time(min)	0.002
End Time(min)	3.998
R.Time (min)	Intensity
0.00167	-2
0.00533	-2
0.00900	-2
0.01267	-2
0.01633	-2
0.02000	-2
0.02367	-2
0.02733	-2
0.03100	-2
0.03467	-2
0.03833	-3
0.04200	-3
0.04567	-3
0.04933	-3
0.05300	-3
0.05667	-4
0.06033	-4
0.06400	-5
0.06767	-5
0.07133	-5
0.07500	-5
0.07867	-5
0.08233	-5
0.08600	-5
0.08967	-5
0.09333	-5
0.09700	-5
0.10067	-5
0.10433	-5
0.10800	-5
0.11167	-4
0.11533	-4
0.11900	-4
0.12267	-4
0.12633	-4
0.13000	-4
0.13367	-4
0.13733	-4
0.14100	-4
0.14467	-4
0.14833	-3
0.15200	-3
0.15567	-3
0.15933	-3
0.16300	-3
0.16667	-3
0.17033	-3
0.17400	-3
0.17767	-4
0.18133	-4
0.18500	-4
0.18867	-5
0.19233	-5
0.19600	-5
0.19967	-5
0.20333	-5
0.20700	-5
0.21067	-5
0.21433	-5
0.21800	-5
0.22167	-6
0.22533	-6
0.22900	-6
0.23267	-6
0.23633	-6
0.24000	-6
0.24367	-5
0.24733	-5
0.25100	-5
0.25467	-6
0.25833	-6
0.26200	-6
0.26567	-5
0.26933	-5
0.27300	-6
0.27667	-6
0.28033	-6
0.28400	-6
0.28767	-6
0.29133	-6
0.29500	-6
0.29867	-6
0.30233	-6
0.30600	-6
0.30967	-6
0.31333	-6
0.31700	-6
0.32067	-6
0.32433	-5
0.32800	-5
0.33167	-5
0.33533	-5
0.33900	-5
0.34267	-5
0.34633	-5
0.35000	-5
0.35367	-5
0.35733	-5
0.36100	-5
0.36467	-5
0.36833	-5
0.37200	-6
0.37567	-6
0.37933	-6
0.38300	-6
0.38667	-6
0.39033	-6
0.39400	-6
0.39767	-6
0.40133	-6
0.40500	-6
0.40867	-6
0.41233	-7
0.41600	-7
0.41967	-7
0.42333	-7
0.42700	-7
0.43067	-7
0.43433	-7
0.43800	-7
0.44167	-6
0.44533	-6
0.44900	-7
0.45267	-7
0.45633	-7
0.46000	-7
0.46367	-7
0.46733	-7
0.47100	-7
0.47467	-7
0.47833	-7
0.48200	-6
0.48567	-6
0.48933	-6
0.49300	-6
0.49667	-6
0.50033	-6
0.50400	-6
0.50767	-6
0.51133	-6
0.51500	-6
0.51867	-6
0.52233	-6
0.52600	-6
0.52967	-6
0.53333	-5
0.53700	-5
0.54067	-6
0.54433	-6
0.54800	-6
0.55167	-5
0.55533	-5
0.55900	-5
0.56267	-5
0.56633	-4
0.57000	-5
0.57367	-5
0.57733	-5
0.58100	-5
0.58467	-5
0.58833	-5
0.59200	-6
0.59567	-6
0.59933	-6
0.60300	-6
0.60667	-7
0.61033	-7
0.61400	-7
0.61767	-6
0.62133	-6
0.62500	-6
0.62867	-6
0.63233	-6
0.63600	-5
0.63967	-5
0.64333	-5
0.64700	-5
0.65067	-5
0.65433	-5
0.65800	-5
0.66167	-5
0.66533	-5
0.66900	-5
0.67267	-5
0.67633	-5
0.68000	-5
0.68367	-5
0.68733	-5
0.69100	-5
0.69467	-5
0.69833	-5
0.70200	-5
0.70567	-4
0.70933	-4
0.71300	-4
0.71667	-5
0.72033	-5
0.72400	-6
0.72767	-6
0.73133	-6
0.73500	-6
0.73867	-6
0.74233	-6
0.74600	-6
0.74967	-6
0.75333	-6
0.75700	-5
0.76067	-5
0.76433	-5
0.76800	-6
0.77167	-6
0.77533	-6
0.77900	-6
0.78267	-6
0.78633	-5
0.79000	-5
0.79367	-5
0.79733	-5
0.80100	-5
0.80467	-5
0.80833	-5
0.81200	-5
0.81567	-5
0.81933	-4
0.82300	-4
0.82667	-4
0.83033	-4
0.83400	-4
0.83767	-4
0.84133	-4
0.84500	-4
0.84867	-4
0.85233	-4
0.85600	-4
0.85967	-4
0.86333	-4
0.86700	-5
0.87067	-5
0.87433	-5
0.87800	-5
0.88167	-5
0.88533	-5
0.88900	-5
0.89267	-6
0.89633	-6
0.90000	-6
0.90367	-6
0.90733	-6
0.91100	-6
0.91467	-6
0.91833	-6
0.92200	-5
0.92567	-5
0.92933	-6
0.93300	-6
0.93667	-6
0.94033	-6
0.94400	-6
0.94767	-6
0.95133	-7
0.95500	-7
0.95867	-8
0.96233	-8
0.96600	-8
0.96967	-9
0.97333	-9
0.97700	-9
0.98067	-9
0.98433	-10
0.98800	-10
0.99167	-10
0.99533	-10
0.99900	-10
1.00267	-10
1.00633	-9
1.01000	-8
1.01367	-8
1.01733	-8
1.02100	-7
1.02467	-7
1.02833	-6
1.03200	-6
1.03567	-5
1.03933	-5
1.04300	-5
1.04667	-5
1.05033	-4
1.05400	-4
1.05767	-4
1.06133	-4
1.06500	-4
1.06867	-4
1.07233	-4
1.07600	-4
1.07967	-4
1.08333	-4
1.08700	-4
1.09067	-4
1.09433	-4
1.09800	-4
1.10167	-4
1.10533	-4
1.10900	-4
1.11267	-4
1.11633	-4
1.12000	-4
1.12367	-4
1.12733	-4
1.13100	-4
1.13467	-4
1.13833	-4
1.14200	-4
1.14567	-4
1.14933	-4
1.15300	-4
1.15667	-4
1.16033	-5
1.16400	-5
1.16767	-5
1.17133	-5
1.17500	-6
1.17867	-6
1.18233	-6
1.18600	-6
1.18967	-6
1.19333	-6
1.19700	-6
1.20067	-6
1.20433	-6
1.20800	-6
1.21167	-6
1.21533	-5
1.21900	-5
1.22267	-5
1.22633	-5
1.23000	-6
1.23367	-6
1.23733	-6
1.24100	-6
1.24467	-7
1.24833	-7
1.25200	-7
1.25567	-7
1.25933	-7
1.26300	-7
1.26667	-8
1.27033	-7
1.27400	-7
1.27767	-7
1.28133	-7
1.28500	-7
1.28867	-7
1.29233	-7
1.29600	-7
1.29967	-7
1.30333	-7
1.30700	-7
1.31067	-7
1.31433	-6
1.31800	-7
1.32167	-7
1.32533	-7
1.32900	-7
1.33267	-7
1.33633	-7
1.34000	-7
1.34367	-7
1.34733	-7
1.35100	-7
1.35467	-7
1.35833	-7
1.36200	-7
1.36567	-7
1.36933	-7
1.37300	-7
1.37667	-8
1.38033	-8
1.38400	-8
1.38767	-8
1.39133	-8
1.39500	-8
1.39867	-8
1.40233	-8
1.40600	-8
1.40967	-7
1.41333	-7
1.41700	-7
1.42067	-6
1.42433	-6
1.42800	-6
1.43167	-5
1.43533	-5
1.43900	-5
1.44267	-5
1.44633	-6
1.45000	-6
1.45367	-7
1.45733	-7
1.46100	-7
1.46467	-7
1.46833	-8
1.47200	-8
1.47567	-8
1.47933	-8
1.48300	-8
1.48667	-8
1.49033	-9
1.49400	-9
1.49767	-9
1.50133	-9
1.50500	-10
1.50867	-10
1.51233	-10
1.51600	-10
1.51967	-11
1.52333	-11
1.52700	-11
1.53067	-11
1.53433	-11
1.53800	-11
1.54167	-11
1.54533	-11
1.54900	-11
1.55267	-11
1.55633	-11
1.56000	-11
1.56367	-10
1.56733	-10
1.57100	-9
1.57467	-9
1.57833	-9
1.58200	-9
1.58567	-8
1.58933	-8
1.59300	-8
1.59667	-9
1.60033	-9
1.60400	-10
1.60767	-11
1.61133	-12
1.61500	-14
1.61867	-16
1.62233	-19
1.62600	-22
1.62967	-25
1.63333	-29
1.63700	-32
1.64067	-36
1.64433	-40
1.64800	-43
1.65167	-47
1.65533	-50
1.65900	-54
1.66267	-57
1.66633	-60
1.67000	-64
1.67367	-68
1.67733	-72
1.68100	-76
1.68467	-81
1.68833	-86
1.69200	-90
1.69567	-95
1.69933	-99
1.70300	-102
1.70667	-105
1.71033	-108
1.71400	-110
1.71767	-112
1.72133	-113
1.72500	-115
1.72867	-116
1.73233	-117
1.73600	-118
1.73967	-119
1.74333	-119
1.74700	-120
1.75067	-120
1.75433	-120
1.75800	-121
1.76167	-121
1.76533	-122
1.76900	-123
1.77267	-124
1.77633	-125
1.78000	-126
1.78367	-127
1.78733	-127
1.79100	-128
1.79467	-128
1.79833	-128
1.80200	-128
1.80567	-128
1.80933	-127
1.81300	-126
1.81667	-126
1.82033	-125
1.82400	-125
1.82767	-125
1.83133	-125
1.83500	-125
1.83867	-126
1.84233	-126
1.84600	-126
1.84967	-127
1.85333	-127
1.85700	-127
1.86067	-127
1.86433	-127
1.86800	-128
1.87167	-128
1.87533	-129
1.87900	-129
1.88267	-129
1.88633	-129
1.89000	-128
1.89367	-128
1.89733	-127
1.90100	-126
1.90467	-126
1.90833	-125
1.91200	-125
1.91567	-124
1.91933	-124
1.92300	-124
1.92667	-124
1.93033	-124
1.93400	-124
1.93767	-124
1.94133	-124
1.94500	-124
1.94867	-124
1.95233	-125
1.95600	-125
1.95967	-125
1.96333	-125
1.96700	-124
1.97067	-124
1.97433	-124
1.97800	-123
1.98167	-122
1.98533	-122
1.98900	-121
1.99267	-121
1.99633	-121
2.00000	-121
2.00367	-120
2.00733	-120
2.01100	-120
2.01467	-119
2.01833	-119
2.02200	-118
2.02567	-117
2.02933	-116
2.03300	-116
2.03667	-116
2.04033	-116
2.04400	-116
2.04767	-116
2.05133	-115
2.05500	-115
2.05867	-115
2.06233	-114
2.06600	-114
2.06967	-114
2.07333	-113
2.07700	-113
2.08067	-113
2.08433	-112
2.08800	-112
2.09167	-112
2.09533	-112
2.09900	-112
2.10267	-112
2.10633	-112
2.11000	-112
2.11367	-112
2.11733	-112
2.12100	-111
2.12467	-111
2.12833	-111
2.13200	-110
2.13567	-110
2.13933	-109
2.14300	-109
2.14667	-109
2.15033	-108
2.15400	-108
2.15767	-108
2.16133	-108
2.16500	-108
2.16867	-108
2.17233	-108
2.17600	-108
2.17967	-107
2.18333	-107
2.18700	-107
2.19067	-107
2.19433	-107
2.19800	-107
2.20167	-106
2.20533	-105
2.20900	-104
2.21267	-104
2.21633	-103
2.22000	-103
2.22367	-102
2.22733	-102
2.23100	-101
2.23467	-101
2.23833	-101
2.24200	-101
2.24567	-101
2.24933	-101
2.25300	-101
2.25667	-101
2.26033	-101
2.26400	-101
2.26767	-101
2.27133	-101
2.27500	-100
2.27867	-100
2.28233	-100
2.28600	-99
2.28967	-99
2.29333	-99
2.29700	-98
2.30067	-98
2.30433	-98
2.30800	-98
2.31167	-97
2.31533	-96
2.31900	-95
2.32267	-94
2.32633	-94
2.33000	-94
2.33367	-94
2.33733	-95
2.34100	-96
2.34467	-97
2.34833	-98
2.35200	-98
2.35567	-98
2.35933	-97
2.36300	-96
2.36667	-94
2.37033	-92
2.37400	-89
2.37767	-86
2.38133	-82
2.38500	-78
2.38867	-73
2.39233	-69
2.39600	-64
2.39967	-59
2.40333	-54
2.40700	-49
2.41067	-45
2.41433	-41
2.41800	-37
2.42167	-34
2.42533	-31
2.42900	-28
2.43267	-26
2.43633	-24
2.44000	-21
2.44367	-19
2.44733	-17
2.45100	-15
2.45467	-13
2.45833	-12
2.46200	-10
2.46567	-9
2.46933	-8
2.47300	-7
2.47667	-6
2.48033	-5
2.48400	-4
2.48767	-2
2.49133	-1
2.49500	-0
2.49867	1
2.50233	2
2.50600	2
2.50967	3
2.51333	4
2.51700	4
2.52067	5
2.52433	5
2.52800	5
2.53167	5
2.53533	6
2.53900	6
2.54267	7
2.54633	7
2.55000	8
2.55367	8
2.55733	9
2.56100	9
2.56467	10
2.56833	10
2.57200	10
2.57567	10
2.57933	10
2.58300	10
2.58667	11
2.59033	11
2.59400	11
2.59767	11
2.60133	11
2.60500	11
2.60867	11
2.61233	11
2.61600	11
2.61967	12
2.62333	12
2.62700	13
2.63067	13
2.63433	14
2.63800	14
2.64167	14
2.64533	14
2.64900	14
2.65267	13
2.65633	13
2.66000	12
2.66367	12
2.66733	12
2.67100	12
2.67467	12
2.67833	13
2.68200	13
2.68567	14
2.68933	15
2.69300	16
2.69667	17
2.70033	18
2.70400	19
2.70767	20
2.71133	20
2.71500	20
2.71867	20
2.72233	20
2.72600	19
2.72967	19
2.73333	19
2.73700	18
2.74067	18
2.74433	17
2.74800	17
2.75167	17
2.75533	17
2.75900	18
2.76267	18
2.76633	19
2.77000	19
2.77367	20
2.77733	20
2.78100	21
2.78467	21
2.78833	21
2.79200	21
2.79567	21
2.79933	21
2.80300	21
2.80667	21
2.81033	21
2.81400	22
2.81767	22
2.82133	22
2.82500	22
2.82867	22
2.83233	22
2.83600	22
2.83967	22
2.84333	21
2.84700	18
2.85067	14
2.85433	8
2.85800	-1
2.86167	-13
2.86533	-29
2.86900	-50
2.87267	-74
2.87633	-102
2.88000	-134
2.88367	-170
2.88733	-209
2.89100	-251
2.89467	-296
2.89833	-343
2.90200	-391
2.90567	-441
2.90933	-491
2.91300	-541
2.91667	-591
2.92033	-641
2.92400	-690
2.92767	-738
2.93133	-785
2.93500	-834
2.93867	-887
2.94233	-948
2.94600	-1010
2.94967	-1064
2.95333	-1098
2.95700	-1107
2.96067	-1088
2.96433	-1046
2.96800	-986
2.97167	-914
2.97533	-836
2.97900	-755
2.98267	-675
2.98633	-598
2.99000	-526
2.99367	-460
2.99733	-400
3.00100	-346
3.00467	-299
3.00833	-257
3.01200	-220
3.01567	-188
3.01933	-160
3.02300	-136
3.02667	-115
3.03033	-97
3.03400	-82
3.03767	-69
3.04133	-57
3.04500	-48
3.04867	-39
3.05233	-32
3.05600	-25
3.05967	-20
3.06333	-16
3.06700	-12
3.07067	-9
3.07433	-6
3.07800	-4
3.08167	-2
3.08533	-1
3.08900	1
3.09267	2
3.09633	3
3.10000	4
3.10367	4
3.10733	5
3.11100	6
3.11467	6
3.11833	7
3.12200	7
3.12567	8
3.12933	8
3.13300	9
3.13667	9
3.14033	10
3.14400	10
3.14767	10
3.15133	11
3.15500	11
3.15867	12
3.16233	12
3.16600	12
3.16967	13
3.17333	13
3.17700	13
3.18067	13
3.18433	13
3.18800	13
3.19167	13
3.19533	13
3.19900	13
3.20267	13
3.20633	13
3.21000	13
3.21367	14
3.21733	14
3.22100	14
3.22467	14
3.22833	15
3.23200	15
3.23567	15
3.23933	15
3.24300	16
3.24667	16
3.25033	17
3.25400	17
3.25767	18
3.26133	18
3.26500	18
3.26867	19
3.27233	19
3.27600	20
3.27967	20
3.28333	20
3.28700	21
3.29067	21
3.29433	21
3.29800	21
3.30167	21
3.30533	21
3.30900	22
3.31267	22
3.31633	22
3.32000	22
3.32367	22
3.32733	22
3.33100	22
3.33467	23
3.33833	23
3.34200	23
3.34567	23
3.34933	23
3.35300	23
3.35667	23
3.36033	23
3.36400	23
3.36767	23
3.37133	23
3.37500	23
3.37867	22
3.38233	22
3.38600	22
3.38967	23
3.39333	23
3.39700	23
3.40067	23
3.40433	23
3.40800	22
3.41167	22
3.41533	22
3.41900	22
3.42267	22
3.42633	22
3.43000	22
3.43367	22
3.43733	22
3.44100	21
3.44467	21
3.44833	21
3.45200	21
3.45567	21
3.45933	21
3.46300	21
3.46667	21
3.47033	21
3.47400	21
3.47767	21
3.48133	21
3.48500	21
3.48867	21
3.49233	21
3.49600	21
3.49967	20
3.50333	20
3.50700	19
3.51067	19
3.51433	19
3.51800	19
3.52167	18
3.52533	18
3.52900	18
3.53267	18
3.53633	18
3.54000	18
3.54367	19
3.54733	19
3.55100	19
3.55467	19
3.55833	19
3.56200	20
3.56567	20
3.56933	20
3.57300	20
3.57667	20
3.58033	20
3.58400	20
3.58767	20
3.59133	20
3.59500	20
3.59867	20
3.60233	19
3.60600	19
3.60967	19
3.61333	20
3.61700	20
3.62067	20
3.62433	20
3.62800	20
3.63167	20
3.63533	20
3.63900	20
3.64267	21
3.64633	21
3.65000	21
3.65367	21
3.65733	21
3.66100	21
3.66467	21
3.66833	21
3.67200	21
3.67567	21
3.67933	21
3.68300	21
3.68667	22
3.69033	22
3.69400	22
3.69767	22
3.70133	22
3.70500	22
3.70867	22
3.71233	22
3.71600	22
3.71967	22
3.72333	22
3.72700	22
3.73067	23
3.73433	23
3.73800	23
3.74167	23
3.74533	24
3.74900	24
3.75267	24
3.75633	24
3.76000	24
3.76367	24
3.76733	24
3.77100	24
3.77467	24
3.77833	23
3.78200	23
3.78567	23
3.78933	23
3.79300	23
3.79667	23
3.80033	24
3.80400	24
3.80767	24
3.81133	24
3.81500	24
3.81867	24
3.82233	24
3.82600	24
3.82967	24
3.83333	24
3.83700	23
3.84067	23
3.84433	23
3.84800	23
3.85167	23
3.85533	23
3.85900	23
3.86267	23
3.86633	22
3.87000	22
3.87367	22
3.87733	22
3.88100	22
3.88467	22
3.88833	21
3.89200	21
3.89567	21
3.89933	21
3.90300	21
3.90667	21
3.91033	21
3.91400	21
3.91767	21
3.92133	21
3.92500	21
3.92867	21
3.93233	21
3.93600	21
3.93967	21
3.94333	21
3.94700	21
3.95067	21
3.95433	21
3.95800	21
3.96167	21
3.96533	21
3.96900	21
3.97267	21
3.97633	21
3.98000	22
3.98367	22
3.98733	22
3.99100	22
3.99467	22
3.99833	22

[Chromatogram (Ch3)]
Interval(msec)	220
# of Points	1091
Start Time(min)	0.002
End Time(min)	3.998
R.Time (min)	Intensity
0.00167	-0
0.00533	-1
0.00900	-0
0.01267	0
0.01633	-1
0.02000	-2
0.02367	-2
0.02733	-1
0.03100	-1
0.03467	1
0.03833	3
0.04200	5
0.04567	5
0.04933	3
0.05300	3
0.05667	2
0.06033	0
0.06400	-1
0.06767	-2
0.07133	-3
0.07500	-4
0.07867	-2
0.08233	-1
0.08600	-1
0.08967	-1
0.09333	-0
0.09700	2
0.10067	2
0.10433	1
0.10800	-0
0.11167	1
0.11533	2
0.11900	1
0.12267	0
0.12633	2
0.13000	3
0.13367	3
0.13733	2
0.14100	-1
0.14467	-4
0.14833	-6
0.15200	-4
0.15567	-2
0.15933	1
0.16300	2
0.16667	2
0.17033	3
0.17400	5
0.17767	4
0.18133	4
0.18500	5
0.18867	6
0.19233	7
0.19600	9
0.19967	9
0.20333	10
0.20700	9
0.21067	9
0.21433	11
0.21800	14
0.22167	15
0.22533	13
0.22900	12
0.23267	11
0.23633	9
0.24000	9
0.24367	8
0.24733	7
0.25100	7
0.25467	7
0.25833	8
0.26200	7
0.26567	7
0.26933	6
0.27300	7
0.27667	7
0.28033	8
0.28400	10
0.28767	10
0.29133	10
0.29500	10
0.29867	9
0.30233	10
0.30600	11
0.30967	10
0.31333	8
0.31700	8
0.32067	8
0.32433	6
0.32800	6
0.33167	6
0.33533	8
0.33900	9
0.34267	8
0.34633	7
0.35000	5
0.35367	4
0.35733	5
0.36100	5
0.36467	5
0.36833	4
0.37200	3
0.37567	2
0.37933	3
0.38300	5
0.38667	8
0.39033	9
0.39400	11
0.39767	12
0.40133	10
0.40500	9
0.40867	9
0.41233	11
0.41600	10
0.41967	10
0.42333	11
0.42700	12
0.43067	12
0.43433	14
0.43800	16
0.44167	16
0.44533	16
0.44900	15
0.45267	13
0.45633	10
0.46000	10
0.46367	12
0.46733	14
0.47100	13
0.47467	12
0.47833	13
0.48200	13
0.48567	13
0.48933	14
0.49300	14
0.49667	12
0.50033	12
0.50400	12
0.50767	13
0.51133	15
0.51500	15
0.51867	14
0.52233	14
0.52600	15
0.52967	15
0.53333	14
0.53700	15
0.54067	16
0.54433	15
0.54800	13
0.55167	12
0.55533	11
0.55900	12
0.56267	12
0.56633	12
0.57000	12
0.57367	14
0.57733	14
0.58100	14
0.58467	13
0.58833	13
0.59200	15
0.59567	16
0.59933	17
0.60300	18
0.60667	16
0.61033	14
0.61400	14
0.61767	14
0.62133	13
0.62500	15
0.62867	17
0.63233	18
0.63600	21
0.63967	22
0.64333	22
0.64700	21
0.65067	21
0.65433	22
0.65800	20
0.66167	20
0.66533	19
0.66900	20
0.67267	21
0.67633	22
0.68000	22
0.68367	21
0.68733	20
0.69100	19
0.69467	18
0.69833	17
0.70200	16
0.70567	14
0.70933	13
0.71300	14
0.71667	14
0.72033	15
0.72400	17
0.72767	19
0.73133	19
0.73500	20
0.73867	22
0.74233	24
0.74600	25
0.74967	25
0.75333	24
0.75700	22
0.76067	22
0.76433	23
0.76800	24
0.77167	23
0.77533	24
0.77900	23
0.78267	23
0.78633	25
0.79000	26
0.79367	26
0.79733	26
0.80100	26
0.80467	26
0.80833	27
0.81200	26
0.81567	26
0.81933	24
0.82300	23
0.82667	25
0.83033	25
0.83400	24
0.83767	25
0.84133	25
0.84500	26
0.84867	28
0.85233	30
0.85600	30
0.85967	30
0.86333	29
0.86700	28
0.87067	29
0.87433	30
0.87800	30
0.88167	29
0.88533	29
0.88900	29
0.89267	29
0.89633	30
0.90000	30
0.90367	31
0.90733	31
0.91100	31
0.91467	30
0.91833	29
0.92200	29
0.92567	29
0.92933	29
0.93300	25
0.93667	23
0.94033	22
0.94400	23
0.94767	26
0.95133	27
0.95500	28
0.95867	30
0.96233	32
0.96600	34
0.96967	37
0.97333	38
0.97700	36
0.98067	34
0.98433	34
0.98800	36
0.99167	35
0.99533	35
0.99900	34
1.00267	35
1.00633	35
1.01000	36
1.01367	35
1.01733	35
1.02100	36
1.02467	37
1.02833	38
1.03200	37
1.03567	34
1.03933	33
1.04300	33
1.04667	32
1.05033	31
1.05400	30
1.05767	30
1.06133	29
1.06500	28
1.06867	29
1.07233	32
1.07600	32
1.07967	33
1.08333	33
1.08700	32
1.09067	30
1.09433	29
1.09800	30
1.10167	31
1.10533	33
1.10900	33
1.11267	32
1.11633	33
1.12000	34
1.12367	35
1.12733	36
1.13100	37
1.13467	37
1.13833	37
1.14200	39
1.14567	40
1.14933	41
1.15300	40
1.15667	39
1.16033	39
1.16400	38
1.16767	38
1.17133	38
1.17500	39
1.17867	41
1.18233	40
1.18600	39
1.18967	40
1.19333	39
1.19700	39
1.20067	39
1.20433	40
1.20800	40
1.21167	39
1.21533	37
1.21900	37
1.22267	37
1.22633	36
1.23000	36
1.23367	36
1.23733	37
1.24100	38
1.24467	40
1.24833	42
1.25200	44
1.25567	43
1.25933	41
1.26300	40
1.26667	40
1.27033	40
1.27400	38
1.27767	38
1.28133	38
1.28500	39
1.28867	39
1.29233	41
1.29600	42
1.29967	44
1.30333	44
1.30700	45
1.31067	47
1.31433	45
1.31800	41
1.32167	38
1.32533	36
1.32900	36
1.33267	36
1.33633	38
1.34000	41
1.34367	44
1.34733	45
1.35100	43
1.35467	43
1.35833	44
1.36200	45
1.36567	45
1.36933	45
1.37300	44
1.37667	42
1.38033	43
1.38400	44
1.38767	44
1.39133	45
1.39500	45
1.39867	45
1.40233	43
1.40600	42
1.40967	42
1.41333	43
1.41700	45
1.42067	46
1.42433	46
1.42800	47
1.43167	47
1.43533	48
1.43900	49
1.44267	48
1.44633	47
1.45000	46
1.45367	49
1.45733	49
1.46100	50
1.46467	49
1.46833	47
1.47200	48
1.47567	49
1.47933	51
1.48300	52
1.48667	53
1.49033	54
1.49400	53
1.49767	51
1.50133	51
1.50500	52
1.50867	53
1.51233	52
1.51600	50
1.51967	49
1.52333	48
1.52700	49
1.53067	50
1.53433	51
1.53800	51
1.54167	51
1.54533	54
1.54900	55
1.55267	56
1.55633	56
1.56000	54
1.56367	53
1.56733	52
1.57100	51
1.57467	51
1.57833	50
1.58200	52
1.58567	53
1.58933	55
1.59300	56
1.59667	55
1.60033	55
1.60400	55
1.60767	54
1.61133	54
1.61500	53
1.61867	53
1.62233	51
1.62600	53
1.62967	56
1.63333	58
1.63700	59
1.64067	62
1.64433	66
1.64800	68
1.65167	68
1.65533	66
1.65900	66
1.66267	67
1.66633	68
1.67000	69
1.67367	72
1.67733	73
1.68100	74
1.68467	77
1.68833	76
1.69200	75
1.69567	74
1.69933	73
1.70300	72
1.70667	74
1.71033	78
1.71400	82
1.71767	85
1.72133	86
1.72500	87
1.72867	86
1.73233	86
1.73600	86
1.73967	85
1.74333	84
1.74700	83
1.75067	85
1.75433	89
1.75800	91
1.76167	92
1.76533	94
1.76900	96
1.77267	97
1.77633	97
1.78000	98
1.78367	99
1.78733	100
1.79100	100
1.79467	101
1.79833	101
1.80200	102
1.80567	102
1.80933	102
1.81300	101
1.81667	102
1.82033	104
1.82400	108
1.82767	110
1.83133	113
1.83500	115
1.83867	115
1.84233	114
1.84600	113
1.84967	112
1.85333	112
1.85700	113
1.86067	113
1.86433	113
1.86800	113
1.87167	112
1.87533	112
1.87900	114
1.88267	115
1.88633	115
1.89000	115
1.89367	115
1.89733	116
1.90100	115
1.90467	116
1.90833	117
1.91200	117
1.91567	118
1.91933	120
1.92300	120
1.92667	118
1.93033	118
1.93400	119
1.93767	121
1.94133	124
1.94500	128
1.94867	129
1.95233	128
1.95600	129
1.95967	129
1.96333	131
1.96700	129
1.97067	126
1.97433	125
1.97800	127
1.98167	128
1.98533	128
1.98900	130
1.99267	131
1.99633	132
2.00000	136
2.00367	139
2.00733	141
2.01100	144
2.01467	146
2.01833	145
2.02200	145
2.02567	146
2.02933	148
2.03300	150
2.03667	150
2.04033	149
2.04400	152
2.04767	155
2.05133	157
2.05500	159
2.05867	159
2.06233	158
2.06600	157
2.06967	159
2.07333	162
2.07700	164
2.08067	166
2.08433	169
2.08800	171
2.09167	171
2.09533	173
2.09900	174
2.10267	176
2.10633	179
2.11000	182
2.11367	184
2.11733	185
2.12100	186
2.12467	188
2.12833	189
2.13200	190
2.13567	190
2.13933	192
2.14300	194
2.14667	198
2.15033	203
2.15400	208
2.15767	209
2.16133	210
2.16500	210
2.16867	208
2.17233	208
2.17600	208
2.17967	207
2.18333	208
2.18700	210
2.19067	213
2.19433	215
2.19800	219
2.20167	221
2.20533	223
2.20900	225
2.21267	229
2.21633	232
2.22000	233
2.22367	232
2.22733	232
2.23100	233
2.23467	236
2.23833	238
2.24200	239
2.24567	241
2.24933	242
2.25300	242
2.25667	242
2.26033	245
2.26400	247
2.26767	246
2.27133	246
2.27500	246
2.27867	247
2.28233	249
2.28600	250
2.28967	251
2.29333	253
2.29700	254
2.30067	254
2.30433	254
2.30800	256
2.31167	258
2.31533	259
2.31900	258
2.32267	258
2.32633	258
2.33000	261
2.33367	264
2.33733	266
2.34100	268
2.34467	268
2.34833	267
2.35200	268
2.35567	271
2.35933	275
2.36300	278
2.36667	278
2.37033	278
2.37400	280
2.37767	281
2.38133	283
2.38500	283
2.38867	283
2.39233	284
2.39600	285
2.39967	284
2.40333	281
2.40700	281
2.41067	285
2.41433	290
2.41800	293
2.42167	294
2.42533	295
2.42900	296
2.43267	296
2.43633	295
2.44000	296
2.44367	301
2.44733	303
2.45100	302
2.45467	308
2.45833	327
2.46200	357
2.46567	394
2.46933	439
2.47300	487
2.47667	534
2.48033	580
2.48400	624
2.48767	663
2.49133	699
2.49500	730
2.49867	757
2.50233	782
2.50600	805
2.50967	827
2.51333	848
2.51700	867
2.52067	884
2.52433	899
2.52800	913
2.53167	927
2.53533	938
2.53900	946
2.54267	956
2.54633	964
2.55000	971
2.55367	977
2.55733	982
2.56100	988
2.56467	991
2.56833	994
2.57200	996
2.57567	999
2.57933	1003
2.58300	1005
2.58667	1006
2.59033	1004
2.59400	1001
2.59767	991
2.60133	974
2.60500	951
2.60867	917
2.61233	876
2.61600	829
2.61967	781
2.62333	734
2.62700	691
2.63067	654
2.63433	623
2.63800	600
2.64167	582
2.64533	568
2.64900	559
2.65267	556
2.65633	559
2.66000	563
2.66367	567
2.66733	573
2.67100	583
2.67467	590
2.67833	595
2.68200	602
2.68567	610
2.68933	617
2.69300	626
2.69667	636
2.70033	645
2.70400	652
2.70767	660
2.71133	670
2.71500	679
2.71867	688
2.72233	696
2.72600	705
2.72967	712
2.73333	719
2.73700	726
2.74067	733
2.74433	740
2.74800	745
2.75167	747
2.75533	750
2.75900	755
2.76267	761
2.76633	767
2.77000	770
2.77367	773
2.77733	774
2.78100	777
2.78467	782
2.78833	786
2.79200	791
2.79567	795
2.79933	799
2.80300	804
2.80667	808
2.81033	809
2.81400	812
2.81767	816
2.82133	822
2.82500	834
2.82867	865
2.83233	925
2.83600	1036
2.83967	1219
2.84333	1495
2.84700	1881
2.85067	2374
2.85433	2952
2.85800	3586
2.86167	4230
2.86533	4831
2.86900	5344
2.87267	5732
2.87633	5969
2.88000	6055
2.88367	6001
2.88733	5827
2.89100	5559
2.89467	5226
2.89833	4864
2.90200	4488
2.90567	4112
2.90933	3750
2.91300	3411
2.91667	3100
2.92033	2818
2.92400	2565
2.92767	2340
2.93133	2139
2.93500	1963
2.93867	1810
2.94233	1677
2.94600	1561
2.94967	1462
2.95333	1375
2.95700	1298
2.96067	1229
2.96433	1170
2.96800	1120
2.97167	1077
2.97533	1040
2.97900	1008
2.98267	980
2.98633	958
2.99000	937
2.99367	919
2.99733	902
3.00100	888
3.00467	874
3.00833	863
3.01200	853
3.01567	844
3.01933	836
3.02300	830
3.02667	825
3.03033	820
3.03400	816
3.03767	812
3.04133	806
3.04500	799
3.04867	795
3.05233	794
3.05600	791
3.05967	786
3.06333	782
3.06700	779
3.07067	777
3.07433	776
3.07800	774
3.08167	773
3.08533	770
3.08900	768
3.09267	765
3.09633	761
3.10000	759
3.10367	757
3.10733	755
3.11100	752
3.11467	748
3.11833	744
3.12200	742
3.12567	742
3.12933	742
3.13300	740
3.13667	736
3.14033	732
3.14400	730
3.14767	727
3.15133	722
3.15500	717
3.15867	714
3.16233	711
3.16600	707
3.16967	704
3.17333	701
3.17700	698
3.18067	696
3.18433	693
3.18800	691
3.19167	686
3.19533	684
3.19900	682
3.20267	679
3.20633	678
3.21000	675
3.21367	673
3.21733	670
3.22100	669
3.22467	669
3.22833	666
3.23200	661
3.23567	657
3.23933	655
3.24300	653
3.24667	652
3.25033	650
3.25400	646
3.25767	643
3.26133	640
3.26500	637
3.26867	633
3.27233	629
3.27600	624
3.27967	617
3.28333	612
3.28700	608
3.29067	606
3.29433	602
3.29800	598
3.30167	595
3.30533	591
3.30900	587
3.31267	582
3.31633	576
3.32000	570
3.32367	565
3.32733	561
3.33100	560
3.33467	559
3.33833	557
3.34200	554
3.34567	552
3.34933	547
3.35300	541
3.35667	535
3.36033	531
3.36400	527
3.36767	524
3.37133	522
3.37500	522
3.37867	520
3.38233	518
3.38600	512
3.38967	507
3.39333	503
3.39700	497
3.40067	491
3.40433	487
3.40800	483
3.41167	480
3.41533	478
3.41900	476
3.42267	475
3.42633	471
3.43000	467
3.43367	462
3.43733	457
3.44100	455
3.44467	452
3.44833	447
3.45200	442
3.45567	437
3.45933	434
3.46300	430
3.46667	426
3.47033	423
3.47400	419
3.47767	416
3.48133	415
3.48500	414
3.48867	409
3.49233	405
3.49600	402
3.49967	400
3.50333	399
3.50700	396
3.51067	392
3.51433	389
3.51800	386
3.52167	383
3.52533	379
3.52900	376
3.53267	373
3.53633	370
3.54000	367
3.54367	365
3.54733	364
3.55100	361
3.55467	359
3.55833	356
3.56200	355
3.56567	354
3.56933	354
3.57300	352
3.57667	348
3.58033	344
3.58400	340
3.58767	340
3.59133	340
3.59500	340
3.59867	337
3.60233	335
3.60600	334
3.60967	331
3.61333	329
3.61700	326
3.62067	324
3.62433	322
3.62800	321
3.63167	316
3.63533	311
3.63900	309
3.64267	309
3.64633	310
3.65000	310
3.65367	307
3.65733	306
3.66100	303
3.66467	301
3.66833	299
3.67200	298
3.67567	298
3.67933	296
3.68300	293
3.68667	291
3.69033	288
3.69400	286
3.69767	283
3.70133	281
3.70500	281
3.70867	282
3.71233	281
3.71600	281
3.71967	279
3.72333	277
3.72700	276
3.73067	274
3.73433	273
3.73800	273
3.74167	272
3.74533	268
3.74900	267
3.75267	264
3.75633	263
3.76000	261
3.76367	261
3.76733	259
3.77100	259
3.77467	258
3.77833	259
3.78200	260
3.78567	260
3.78933	258
3.79300	258
3.79667	256
3.80033	255
3.80400	255
3.80767	255
3.81133	251
3.81500	249
3.81867	248
3.82233	249
3.82600	250
3.82967	251
3.83333	251
3.83700	250
3.84067	248
3.84433	246
3.84800	245
3.85167	245
3.85533	242
3.85900	241
3.86267	241
3.86633	242
3.87000	244
3.87367	246
3.87733	243
3.88100	242
3.88467	242
3.88833	242
3.89200	242
3.89567	241
3.89933	239
3.90300	236
3.90667	234
3.91033	233
3.91400	233
3.91767	232
3.92133	232
3.92500	232
3.92867	232
3.93233	231
3.93600	231
3.93967	231
3.94333	230
3.94700	230
3.95067	229
3.95433	231
3.95800	233
3.96167	234
3.96533	233
3.96900	232
3.97267	231
3.97633	230
3.98000	229
3.98367	229
3.98733	231
3.99100	232
3.99467	232
3.99833	230

[Status Trace (Column Oven Temperature)]
Interval(msec)	1000
# of Points	240
Start Time(min)	0.002
End Time(min)	3.985
Intensity Units	
Intensity Multiplier	1
R.Time (min)	Intensity
0.00203	34.96
0.01870	34.95
0.03537	34.95
0.05203	34.96
0.06870	34.97
0.08537	34.97
0.10203	34.98
0.11870	34.97
0.13537	34.98
0.15203	34.97
0.16870	34.97
0.18537	34.96
0.20203	34.96
0.21870	34.96
0.23537	34.97
0.25203	34.97
0.26870	34.97
0.28537	34.97
0.30203	34.97
0.31870	34.98
0.33537	34.97
0.35203	34.97
0.36870	34.97
0.38537	34.98
0.40203	34.98
0.41870	34.98
0.43537	34.98
0.45203	34.99
0.46870	35.01
0.48537	35.00
0.50203	35.00
0.51870	35.00
0.53537	35.00
0.55203	34.99
0.56870	34.99
0.58537	34.99
0.60203	35.00
0.61870	34.99
0.63537	35.00
0.65203	35.00
0.66870	34.99
0.68537	34.99
0.70203	34.99
0.71870	34.99
0.73537	34.99
0.75203	35.00
0.76870	35.00
0.78537	34.99
0.80203	34.98
0.81870	34.97
0.83537	34.96
0.85203	34.96
0.86870	34.96
0.88537	34.96
0.90203	34.97
0.91870	34.97
0.93537	34.97
0.95203	34.98
0.96870	35.00
0.98537	35.02
1.00203	35.02
1.01870	35.02
1.03537	35.00
1.05203	34.99
1.06870	34.98
1.08537	34.97
1.10203	34.97
1.11870	34.96
1.13537	34.95
1.15203	34.95
1.16870	34.95
1.18537	34.96
1.20203	34.98
1.21870	34.97
1.23537	34.97
1.25203	34.99
1.26870	34.99
1.28537	34.98
1.30203	34.97
1.31870	34.98
1.33537	34.99
1.35203	34.98
1.36870	34.98
1.38537	34.99
1.40203	34.99
1.41870	34.98
1.43537	34.98
1.45203	34.98
1.46870	34.98
1.48537	34.99
1.50203	35.00
1.51870	35.01
1.53537	35.02
1.55203	35.03
1.56870	35.03
1.58537	35.02
1.60203	35.06
1.61870	35.16
1.63537	35.34
1.65203	35.54
1.66870	35.80
1.68537	36.16
1.70203	36.53
1.71870	36.88
1.73537	37.23
1.75203	37.56
1.76870	37.90
1.78537	38.24
1.80203	38.56
1.81870	38.86
1.83537	39.19
1.85203	39.52
1.86870	39.86
1.88537	40.18
1.90203	40.49
1.91870	40.82
1.93537	41.16
1.95203	41.49
1.96870	41.82
1.98537	42.13
2.00203	42.47
2.01870	42.77
2.03537	43.11
2.05203	43.45
2.06870	43.77
2.08537	44.09
2.10203	44.43
2.11870	44.75
2.13537	45.07
2.15203	45.41
2.16870	45.73
2.18537	46.07
2.20203	46.39
2.21870	46.72
2.23537	47.05
2.25203	47.38
2.26870	47.73
2.28537	48.05
2.30203	48.40
2.31870	48.68
2.33537	49.05
2.35203	49.36
2.36870	49.57
2.38537	49.64
2.40203	49.64
2.41870	49.64
2.43537	49.66
2.45203	49.68
2.46870	49.68
2.48537	49.69
2.50203	49.69
2.51870	49.71
2.53537	49.73
2.55203	49.74
2.56870	49.76
2.58537	49.77
2.60203	49.79
2.61870	49.80
2.63537	49.80
2.65203	49.86
2.66870	49.88
2.68537	49.86
2.70203	49.83
2.71870	49.84
2.73537	49.87
2.75203	49.87
2.76870	49.87
2.78537	49.86
2.80203	49.86
2.81870	49.86
2.83537	49.86
2.85203	49.85
2.86870	49.86
2.88537	49.87
2.90203	49.88
2.91870	49.90
2.93537	49.92
2.95203	49.94
2.96870	49.96
2.98537	49.97
3.00203	49.99
3.01870	50.00
3.03537	50.00
3.05203	50.01
3.06870	50.02
3.08537	50.03
3.10203	50.05
3.11870	50.07
3.13537	50.07
3.15203	50.08
3.16870	50.08
3.18537	50.09
3.20203	50.10
3.21870	50.12
3.23537	50.12
3.25203	50.12
3.26870	50.11
3.28537	50.08
3.30203	50.07
3.31870	50.05
3.33537	50.04
3.35203	50.03
3.36870	50.02
3.38537	50.01
3.40203	50.00
3.41870	50.00
3.43537	50.01
3.45203	50.01
3.46870	50.02
3.48537	50.02
3.50203	50.05
3.51870	50.05
3.53537	50.07
3.55203	50.07
3.56870	50.07
3.58537	50.08
3.60203	50.10
3.61870	50.10
3.63537	50.10
3.65203	50.09
3.66870	50.09
3.68537	50.10
3.70203	50.10
3.71870	50.09
3.73537	50.07
3.75203	50.07
3.76870	50.06
3.78537	50.06
3.80203	50.05
3.81870	50.05
3.83537	50.04
3.85203	50.04
3.86870	50.04
3.88537	50.04
3.90203	50.05
3.91870	50.05
3.93537	50.05
3.95203	50.05
3.96870	50.05
3.98537	50.05

[Status Trace (Injection Unit Temperature)]
Interval(msec)	1000
# of Points	240
Start Time(min)	0.002
End Time(min)	3.985
Intensity Units	
Intensity Multiplier	1
R.Time (min)	Intensity
0.00203	99.98
0.01870	99.98
0.03537	99.98
0.05203	99.99
0.06870	99.98
0.08537	99.98
0.10203	99.98
0.11870	99.99
0.13537	99.99
0.15203	99.99
0.16870	99.99
0.18537	99.99
0.20203	99.98
0.21870	99.99
0.23537	99.99
0.25203	99.99
0.26870	99.99
0.28537	99.99
0.30203	99.99
0.31870	99.99
0.33537	99.99
0.35203	99.99
0.36870	99.99
0.38537	99.99
0.40203	99.98
0.41870	99.99
0.43537	99.99
0.45203	99.99
0.46870	99.99
0.48537	99.99
0.50203	99.99
0.51870	99.99
0.53537	99.99
0.55203	99.99
0.56870	99.99
0.58537	99.99
0.60203	99.99
0.61870	99.99
0.63537	99.99
0.65203	99.99
0.66870	99.99
0.68537	99.99
0.70203	99.99
0.71870	99.99
0.73537	99.99
0.75203	99.99
0.76870	99.99
0.78537	99.99
0.80203	99.99
0.81870	99.99
0.83537	99.99
0.85203	99.99
0.86870	99.99
0.88537	99.99
0.90203	99.99
0.91870	99.99
0.93537	99.99
0.95203	99.99
0.96870	99.99
0.98537	99.98
1.00203	99.99
1.01870	99.99
1.03537	99.99
1.05203	99.99
1.06870	99.99
1.08537	99.99
1.10203	99.99
1.11870	99.98
1.13537	99.99
1.15203	99.99
1.16870	99.99
1.18537	99.99
1.20203	99.99
1.21870	99.99
1.23537	99.99
1.25203	99.99
1.26870	99.99
1.28537	99.99
1.30203	99.99
1.31870	99.99
1.33537	99.99
1.35203	99.99
1.36870	99.99
1.38537	99.99
1.40203	99.99
1.41870	99.98
1.43537	99.99
1.45203	99.99
1.46870	99.99
1.48537	99.99
1.50203	99.99
1.51870	99.99
1.53537	99.99
1.55203	99.99
1.56870	99.99
1.58537	99.99
1.60203	99.99
1.61870	99.99
1.63537	99.99
1.65203	99.99
1.66870	99.99
1.68537	99.99
1.70203	99.99
1.71870	99.99
1.73537	99.99
1.75203	99.99
1.76870	99.99
1.78537	99.98
1.80203	99.99
1.81870	99.98
1.83537	99.99
1.85203	99.99
1.86870	99.98
1.88537	99.99
1.90203	99.99
1.91870	99.98
1.93537	99.98
1.95203	99.98
1.96870	99.98
1.98537	99.98
2.00203	99.98
2.01870	99.98
2.03537	99.98
2.05203	99.98
2.06870	99.97
2.08537	99.97
2.10203	99.98
2.11870	99.97
2.13537	99.98
2.15203	99.98
2.16870	99.97
2.18537	99.97
2.20203	99.98
2.21870	99.97
2.23537	99.97
2.25203	99.97
2.26870	99.97
2.28537	99.97
2.30203	99.97
2.31870	99.97
2.33537	99.97
2.35203	99.97
2.36870	99.97
2.38537	99.97
2.40203	99.97
2.41870	99.97
2.43537	99.97
2.45203	99.98
2.46870	99.97
2.48537	99.97
2.50203	99.97
2.51870	99.98
2.53537	99.97
2.55203	99.98
2.56870	99.98
2.58537	99.98
2.60203	99.98
2.61870	99.98
2.63537	99.98
2.65203	99.98
2.66870	99.98
2.68537	99.99
2.70203	99.99
2.71870	99.99
2.73537	99.99
2.75203	99.99
2.76870	99.99
2.78537	99.99
2.80203	100.00
2.81870	100.00
2.83537	100.00
2.85203	100.00
2.86870	100.00
2.88537	100.00
2.90203	100.00
2.91870	100.01
2.93537	100.01
2.95203	100.01
2.96870	100.01
2.98537	100.01
3.00203	100.01
3.01870	100.01
3.03537	100.02
3.05203	100.02
3.06870	100.01
3.08537	100.02
3.10203	100.02
3.11870	100.02
3.13537	100.02
3.15203	100.03
3.16870	100.02
3.18537	100.02
3.20203	100.03
3.21870	100.03
3.23537	100.03
3.25203	100.03
3.26870	100.03
3.28537	100.03
3.30203	100.03
3.31870	100.03
3.33537	100.04
3.35203	100.04
3.36870	100.04
3.38537	100.03
3.40203	100.03
3.41870	100.03
3.43537	100.04
3.45203	100.04
3.46870	100.04
3.48537	100.04
3.50203	100.04
3.51870	100.04
3.53537	100.04
3.55203	100.04
3.56870	100.04
3.58537	100.04
3.60203	100.04
3.61870	100.04
3.63537	100.04
3.65203	100.04
3.66870	100.04
3.68537	100.04
3.70203	100.05
3.71870	100.05
3.73537	100.05
3.75203	100.05
3.76870	100.05
3.78537	100.05
3.80203	100.05
3.81870	100.05
3.83537	100.05
3.85203	100.05
3.86870	100.05
3.88537	100.05
3.90203	100.05
3.91870	100.05
3.93537	100.05
3.95203	100.05
3.96870	100.05
3.98537	100.05

[Status Trace (Carrier Gas Pressure)]
Interval(msec)	1000
# of Points	240
Start Time(min)	0.002
End Time(min)	3.985
Intensity Units	
Intensity Multiplier	1
R.Time (min)	Intensity
0.00203	58.00
0.01870	56.33
0.03537	56.12
0.05203	58.40
0.06870	59.92
0.08537	58.45
0.10203	57.97
0.11870	58.00
0.13537	58.01
0.15203	58.01
0.16870	58.00
0.18537	58.00
0.20203	58.00
0.21870	58.00
0.23537	58.00
0.25203	58.00
0.26870	58.00
0.28537	58.00
0.30203	58.00
0.31870	58.00
0.33537	58.00
0.35203	58.00
0.36870	58.00
0.38537	58.00
0.40203	58.00
0.41870	58.00
0.43537	58.00
0.45203	58.00
0.46870	58.00
0.48537	58.00
0.50203	58.00
0.51870	58.00
0.53537	58.00
0.55203	58.00
0.56870	58.00
0.58537	58.00
0.60203	58.00
0.61870	58.00
0.63537	58.00
0.65203	58.00
0.66870	58.00
0.68537	58.00
0.70203	58.00
0.71870	58.00
0.73537	58.00
0.75203	58.00
0.76870	58.00
0.78537	58.00
0.80203	58.00
0.81870	58.00
0.83537	58.00
0.85203	58.00
0.86870	58.00
0.88537	58.00
0.90203	58.00
0.91870	58.00
0.93537	58.00
0.95203	58.00
0.96870	58.00
0.98537	58.00
1.00203	58.00
1.01870	58.00
1.03537	58.00
1.05203	58.00
1.06870	58.00
1.08537	58.00
1.10203	58.00
1.11870	58.00
1.13537	58.00
1.15203	58.00
1.16870	58.00
1.18537	58.00
1.20203	58.00
1.21870	58.00
1.23537	58.00
1.25203	58.00
1.26870	58.00
1.28537	58.00
1.30203	58.00
1.31870	58.00
1.33537	58.00
1.35203	58.00
1.36870	58.00
1.38537	58.00
1.40203	58.00
1.41870	58.00
1.43537	58.00
1.45203	58.00
1.46870	58.00
1.48537	58.00
1.50203	58.00
1.51870	58.00
1.53537	58.00
1.55203	58.00
1.56870	58.00
1.58537	58.00
1.60203	58.00
1.61870	58.00
1.63537	58.00
1.65203	58.00
1.66870	58.00
1.68537	58.01
1.70203	58.00
1.71870	58.00
1.73537	58.00
1.75203	58.00
1.76870	58.00
1.78537	58.00
1.80203	58.00
1.81870	58.00
1.83537	58.00
1.85203	58.00
1.86870	58.00
1.88537	58.00
1.90203	58.00
1.91870	58.00
1.93537	58.00
1.95203	58.00
1.96870	58.00
1.98537	58.00
2.00203	58.00
2.01870	58.00
2.03537	58.00
2.05203	58.00
2.06870	58.00
2.08537	58.00
2.10203	58.00
2.11870	58.00
2.13537	58.00
2.15203	58.00
2.16870	58.00
2.18537	58.00
2.20203	58.00
2.21870	58.00
2.23537	58.00
2.25203	58.00
2.26870	58.00
2.28537	58.00
2.30203	58.00
2.31870	58.00
2.33537	58.00
2.35203	58.00
2.36870	58.00
2.38537	57.99
2.40203	57.99
2.41870	58.00
2.43537	58.00
2.45203	58.00
2.46870	58.00
2.48537	58.00
2.50203	58.00
2.51870	58.02
2.53537	57.99
2.55203	58.00
2.56870	58.00
2.58537	58.00
2.60203	58.00
2.61870	58.00
2.63537	58.00
2.65203	58.00
2.66870	58.00
2.68537	58.00
2.70203	58.00
2.71870	58.00
2.73537	58.00
2.75203	58.00
2.76870	58.00
2.78537	58.00
2.80203	58.00
2.81870	58.00
2.83537	58.00
2.85203	58.00
2.86870	58.00
2.88537	58.00
2.90203	58.00
2.91870	58.00
2.93537	58.00
2.95203	58.00
2.96870	58.00
2.98537	58.00
3.00203	58.00
3.01870	58.00
3.03537	58.00
3.05203	58.00
3.06870	58.00
3.08537	58.00
3.10203	58.00
3.11870	58.00
3.13537	58.00
3.15203	58.00
3.16870	58.00
3.18537	58.00
3.20203	58.00
3.21870	58.00
3.23537	58.00
3.25203	58.00
3.26870	58.00
3.28537	58.00
3.30203	58.00
3.31870	58.00
3.33537	58.00
3.35203	58.00
3.36870	58.00
3.38537	58.00
3.40203	58.00
3.41870	58.00
3.43537	58.00
3.45203	58.00
3.46870	58.00
3.48537	58.00
3.50203	58.00
3.51870	58.00
3.53537	58.00
3.55203	58.00
3.56870	58.00
3.58537	58.00
3.60203	58.00
3.61870	58.00
3.63537	58.00
3.65203	58.00
3.66870	58.00
3.68537	58.00
3.70203	58.00
3.71870	58.00
3.73537	58.00
3.75203	58.00
3.76870	58.00
3.78537	58.00
3.80203	58.00
3.81870	58.00
3.83537	58.00
3.85203	58.00
3.86870	58.00
3.88537	58.00
3.90203	58.00
3.91870	58.00
3.93537	58.00
3.95203	58.00
3.96870	58.00
3.98537	58.00

[Status Trace (Carrier Gas Flow)]
Interval(msec)	1000
# of Points	240
Start Time(min)	0.002
End Time(min)	3.985
Intensity Units	
Intensity Multiplier	1
R.Time (min)	Intensity
0.00203	34.52
0.01870	34.56
0.03537	34.54
0.05203	34.54
0.06870	34.49
0.08537	34.52
0.10203	34.52
0.11870	34.52
0.13537	34.52
0.15203	34.52
0.16870	34.52
0.18537	34.52
0.20203	34.52
0.21870	34.52
0.23537	34.52
0.25203	34.52
0.26870	34.52
0.28537	34.52
0.30203	34.52
0.31870	34.52
0.33537	34.52
0.35203	34.52
0.36870	34.52
0.38537	34.52
0.40203	34.52
0.41870	34.52
0.43537	34.52
0.45203	34.52
0.46870	34.52
0.48537	34.52
0.50203	34.52
0.51870	34.52
0.53537	34.52
0.55203	34.52
0.56870	34.52
0.58537	34.52
0.60203	34.52
0.61870	34.52
0.63537	34.52
0.65203	34.52
0.66870	34.52
0.68537	34.52
0.70203	34.52
0.71870	34.52
0.73537	34.52
0.75203	34.52
0.76870	34.52
0.78537	34.52
0.80203	34.52
0.81870	34.52
0.83537	34.52
0.85203	34.52
0.86870	34.52
0.88537	34.52
0.90203	34.52
0.91870	34.52
0.93537	34.52
0.95203	34.52
0.96870	34.52
0.98537	34.52
1.00203	34.52
1.01870	34.52
1.03537	34.52
1.05203	34.52
1.06870	34.52
1.08537	34.52
1.10203	34.52
1.11870	34.52
1.13537	34.52
1.15203	34.52
1.16870	34.52
1.18537	34.52
1.20203	34.52
1.21870	34.52
1.23537	34.52
1.25203	34.52
1.26870	34.52
1.28537	34.52
1.30203	34.52
1.31870	34.52
1.33537	34.52
1.35203	34.52
1.36870	34.52
1.38537	34.52
1.40203	34.52
1.41870	34.52
1.43537	34.52
1.45203	34.52
1.46870	34.52
1.48537	34.52
1.50203	34.52
1.51870	34.52
1.53537	34.52
1.55203	34.52
1.56870	34.52
1.58537	34.52
1.60203	34.52
1.61870	34.52
1.63537	34.52
1.65203	34.52
1.66870	34.52
1.68537	34.52
1.70203	34.52
1.71870	34.52
1.73537	34.52
1.75203	34.52
1.76870	34.52
1.78537	34.52
1.80203	34.52
1.81870	34.52
1.83537	34.52
1.85203	34.52
1.86870	34.52
1.88537	34.52
1.90203	34.52
1.91870	34.52
1.93537	34.52
1.95203	34.52
1.96870	34.52
1.98537	34.52
2.00203	34.52
2.01870	34.52
2.03537	34.52
2.05203	34.52
2.06870	34.52
2.08537	34.52
2.10203	34.52
2.11870	34.52
2.13537	34.52
2.15203	34.52
2.16870	34.52
2.18537	34.52
2.20203	34.52
2.21870	34.52
2.23537	34.52
2.25203	34.52
2.26870	34.52
2.28537	34.52
2.30203	34.52
2.31870	34.52
2.33537	34.52
2.35203	34.52
2.36870	34.52
2.38537	34.54
2.40203	34.52
2.41870	34.52
2.43537	34.52
2.45203	34.52
2.46870	34.52
2.48537	34.52
2.50203	34.52
2.51870	34.53
2.53537	34.52
2.55203	34.51
2.56870	34.52
2.58537	34.53
2.60203	34.52
2.61870	34.51
2.63537	34.51
2.65203	34.52
2.66870	34.52
2.68537	34.52
2.70203	34.52
2.71870	34.52
2.73537	34.52
2.75203	34.52
2.76870	34.51
2.78537	34.52
2.80203	34.50
2.81870	34.53
2.83537	34.51
2.85203	34.51
2.86870	34.52
2.88537	34.52
2.90203	34.52
2.91870	34.52
2.93537	34.52
2.95203	34.52
2.96870	34.52
2.98537	34.52
3.00203	34.51
3.01870	34.52
3.03537	34.52
3.05203	34.52
3.06870	34.52
3.08537	34.52
3.10203	34.52
3.11870	34.52
3.13537	34.51
3.15203	34.52
3.16870	34.52
3.18537	34.52
3.20203	34.52
3.21870	34.52
3.23537	34.52
3.25203	34.52
3.26870	34.52
3.28537	34.52
3.30203	34.52
3.31870	34.52
3.33537	34.52
3.35203	34.52
3.36870	34.52
3.38537	34.52
3.40203	34.52
3.41870	34.52
3.43537	34.52
3.45203	34.52
3.46870	34.52
3.48537	34.52
3.50203	34.52
3.51870	34.52
3.53537	34.52
3.55203	34.52
3.56870	34.52
3.58537	34.52
3.60203	34.52
3.61870	34.52
3.63537	34.52
3.65203	34.52
3.66870	34.52
3.68537	34.52
3.70203	34.52
3.71870	34.52
3.73537	34.52
3.75203	34.52
3.76870	34.52
3.78537	34.52
3.80203	34.52
3.81870	34.52
3.83537	34.52
3.85203	34.52
3.86870	34.52
3.88537	34.52
3.90203	34.52
3.91870	34.52
3.93537	34.52
3.95203	34.52
3.96870	34.52
3.98537	34.52

[Status Trace (Column Flow)]
Interval(msec)	1000
# of Points	240
Start Time(min)	0.002
End Time(min)	3.985
Intensity Units	
Intensity Multiplier	1
R.Time (min)	Intensity
0.00203	5.53
0.01870	5.34
0.03537	5.31
0.05203	5.58
0.06870	5.76
0.08537	5.58
0.10203	5.53
0.11870	5.53
0.13537	5.53
0.15203	5.53
0.16870	5.53
0.18537	5.53
0.20203	5.53
0.21870	5.53
0.23537	5.53
0.25203	5.53
0.26870	5.53
0.28537	5.53
0.30203	5.53
0.31870	5.53
0.33537	5.53
0.35203	5.53
0.36870	5.53
0.38537	5.53
0.40203	5.53
0.41870	5.53
0.43537	5.53
0.45203	5.53
0.46870	5.53
0.48537	5.53
0.50203	5.53
0.51870	5.53
0.53537	5.53
0.55203	5.53
0.56870	5.53
0.58537	5.53
0.60203	5.53
0.61870	5.53
0.63537	5.53
0.65203	5.53
0.66870	5.53
0.68537	5.53
0.70203	5.53
0.71870	5.53
0.73537	5.53
0.75203	5.53
0.76870	5.53
0.78537	5.53
0.80203	5.53
0.81870	5.53
0.83537	5.53
0.85203	5.53
0.86870	5.53
0.88537	5.53
0.90203	5.53
0.91870	5.53
0.93537	5.53
0.95203	5.53
0.96870	5.53
0.98537	5.53
1.00203	5.53
1.01870	5.53
1.03537	5.53
1.05203	5.53
1.06870	5.53
1.08537	5.53
1.10203	5.53
1.11870	5.53
1.13537	5.53
1.15203	5.53
1.16870	5.53
1.18537	5.53
1.20203	5.53
1.21870	5.53
1.23537	5.53
1.25203	5.53
1.26870	5.53
1.28537	5.53
1.30203	5.53
1.31870	5.53
1.33537	5.53
1.35203	5.53
1.36870	5.53
1.38537	5.53
1.40203	5.53
1.41870	5.53
1.43537	5.53
1.45203	5.53
1.46870	5.53
1.48537	5.53
1.50203	5.53
1.51870	5.53
1.53537	5.53
1.55203	5.53
1.56870	5.53
1.58537	5.53
1.60203	5.53
1.61870	5.53
1.63537	5.52
1.65203	5.51
1.66870	5.51
1.68537	5.50
1.70203	5.48
1.71870	5.47
1.73537	5.46
1.75203	5.45
1.76870	5.44
1.78537	5.43
1.80203	5.42
1.81870	5.41
1.83537	5.40
1.85203	5.39
1.86870	5.38
1.88537	5.37
1.90203	5.36
1.91870	5.35
1.93537	5.34
1.95203	5.33
1.96870	5.32
1.98537	5.31
2.00203	5.30
2.01870	5.29
2.03537	5.28
2.05203	5.27
2.06870	5.26
2.08537	5.25
2.10203	5.25
2.11870	5.24
2.13537	5.23
2.15203	5.22
2.16870	5.21
2.18537	5.20
2.20203	5.19
2.21870	5.18
2.23537	5.17
2.25203	5.16
2.26870	5.15
2.28537	5.14
2.30203	5.13
2.31870	5.12
2.33537	5.11
2.35203	5.10
2.36870	5.10
2.38537	5.10
2.40203	5.10
2.41870	5.10
2.43537	5.10
2.45203	5.10
2.46870	5.09
2.48537	5.09
2.50203	5.09
2.51870	5.10
2.53537	5.09
2.55203	5.09
2.56870	5.09
2.58537	5.09
2.60203	5.09
2.61870	5.09
2.63537	5.09
2.65203	5.09
2.66870	5.09
2.68537	5.09
2.70203	5.09
2.71870	5.09
2.73537	5.09
2.75203	5.09
2.76870	5.09
2.78537	5.09
2.80203	5.09
2.81870	5.09
2.83537	5.09
2.85203	5.09
2.86870	5.09
2.88537	5.09
2.90203	5.09
2.91870	5.09
2.93537	5.09
2.95203	5.09
2.96870	5.09
2.98537	5.09
3.00203	5.09
3.01870	5.09
3.03537	5.09
3.05203	5.09
3.06870	5.09
3.08537	5.09
3.10203	5.08
3.11870	5.08
3.13537	5.08
3.15203	5.08
3.16870	5.08
3.18537	5.08
3.20203	5.08
3.21870	5.08
3.23537	5.08
3.25203	5.08
3.26870	5.08
3.28537	5.08
3.30203	5.08
3.31870	5.08
3.33537	5.08
3.35203	5.09
3.36870	5.09
3.38537	5.09
3.40203	5.09
3.41870	5.09
3.43537	5.09
3.45203	5.09
3.46870	5.09
3.48537	5.09
3.50203	5.09
3.51870	5.08
3.53537	5.08
3.55203	5.08
3.56870	5.08
3.58537	5.08
3.60203	5.08
3.61870	5.08
3.63537	5.08
3.65203	5.08
3.66870	5.08
3.68537	5.08
3.70203	5.08
3.71870	5.08
3.73537	5.08
3.75203	5.08
3.76870	5.08
3.78537	5.08
3.80203	5.08
3.81870	5.08
3.83537	5.09
3.85203	5.09
3.86870	5.09
3.88537	5.09
3.90203	5.08
3.91870	5.08
3.93537	5.08
3.95203	5.08
3.96870	5.08
3.98537	5.08

[Status Trace (Linear Velocity)]
Interval(msec)	1000
# of Points	240
Start Time(min)	0.002
End Time(min)	3.985
Intensity Units	
Intensity Multiplier	1
R.Time (min)	Intensity
0.00203	39.02
0.01870	37.93
0.03537	37.79
0.05203	39.28
0.06870	40.28
0.08537	39.32
0.10203	39.00
0.11870	39.02
0.13537	39.03
0.15203	39.03
0.16870	39.02
0.18537	39.02
0.20203	39.02
0.21870	39.02
0.23537	39.02
0.25203	39.02
0.26870	39.02
0.28537	39.02
0.30203	39.02
0.31870	39.02
0.33537	39.02
0.35203	39.02
0.36870	39.02
0.38537	39.02
0.40203	39.02
0.41870	39.02
0.43537	39.02
0.45203	39.02
0.46870	39.02
0.48537	39.02
0.50203	39.02
0.51870	39.02
0.53537	39.02
0.55203	39.02
0.56870	39.02
0.58537	39.02
0.60203	39.02
0.61870	39.02
0.63537	39.02
0.65203	39.02
0.66870	39.02
0.68537	39.02
0.70203	39.02
0.71870	39.02
0.73537	39.02
0.75203	39.02
0.76870	39.02
0.78537	39.02
0.80203	39.02
0.81870	39.02
0.83537	39.02
0.85203	39.02
0.86870	39.02
0.88537	39.02
0.90203	39.02
0.91870	39.02
0.93537	39.02
0.95203	39.02
0.96870	39.02
0.98537	39.02
1.00203	39.02
1.01870	39.02
1.03537	39.02
1.05203	39.02
1.06870	39.02
1.08537	39.02
1.10203	39.02
1.11870	39.02
1.13537	39.02
1.15203	39.02
1.16870	39.02
1.18537	39.02
1.20203	39.02
1.21870	39.02
1.23537	39.02
1.25203	39.02
1.26870	39.02
1.28537	39.02
1.30203	39.02
1.31870	39.02
1.33537	39.02
1.35203	39.02
1.36870	39.02
1.38537	39.02
1.40203	39.02
1.41870	39.02
1.43537	39.02
1.45203	39.02
1.46870	39.02
1.48537	39.02
1.50203	39.02
1.51870	39.02
1.53537	39.02
1.55203	39.02
1.56870	39.02
1.58537	39.02
1.60203	39.01
1.61870	39.01
1.63537	38.99
1.65203	38.97
1.66870	38.94
1.68537	38.91
1.70203	38.88
1.71870	38.84
1.73537	38.81
1.75203	38.78
1.76870	38.74
1.78537	38.71
1.80203	38.68
1.81870	38.65
1.83537	38.62
1.85203	38.59
1.86870	38.56
1.88537	38.53
1.90203	38.50
1.91870	38.47
1.93537	38.44
1.95203	38.41
1.96870	38.37
1.98537	38.35
2.00203	38.32
2.01870	38.29
2.03537	38.26
2.05203	38.23
2.06870	38.19
2.08537	38.17
2.10203	38.14
2.11870	38.11
2.13537	38.08
2.15203	38.05
2.16870	38.02
2.18537	37.99
2.20203	37.96
2.21870	37.93
2.23537	37.90
2.25203	37.87
2.26870	37.84
2.28537	37.81
2.30203	37.78
2.31870	37.75
2.33537	37.72
2.35203	37.69
2.36870	37.67
2.38537	37.66
2.40203	37.66
2.41870	37.67
2.43537	37.66
2.45203	37.66
2.46870	37.66
2.48537	37.66
2.50203	37.66
2.51870	37.67
2.53537	37.65
2.55203	37.66
2.56870	37.66
2.58537	37.65
2.60203	37.65
2.61870	37.65
2.63537	37.65
2.65203	37.65
2.66870	37.65
2.68537	37.65
2.70203	37.65
2.71870	37.65
2.73537	37.65
2.75203	37.64
2.76870	37.65
2.78537	37.65
2.80203	37.65
2.81870	37.65
2.83537	37.65
2.85203	37.65
2.86870	37.65
2.88537	37.65
2.90203	37.65
2.91870	37.64
2.93537	37.64
2.95203	37.64
2.96870	37.64
2.98537	37.64
3.00203	37.64
3.01870	37.63
3.03537	37.63
3.05203	37.63
3.06870	37.63
3.08537	37.63
3.10203	37.63
3.11870	37.63
3.13537	37.63
3.15203	37.63
3.16870	37.63
3.18537	37.63
3.20203	37.63
3.21870	37.62
3.23537	37.62
3.25203	37.62
3.26870	37.62
3.28537	37.63
3.30203	37.63
3.31870	37.63
3.33537	37.63
3.35203	37.63
3.36870	37.63
3.38537	37.63
3.40203	37.63
3.41870	37.63
3.43537	37.63
3.45203	37.63
3.46870	37.63
3.48537	37.63
3.50203	37.63
3.51870	37.63
3.53537	37.63
3.55203	37.63
3.56870	37.63
3.58537	37.63
3.60203	37.63
3.61870	37.63
3.63537	37.63
3.65203	37.63
3.66870	37.63
3.68537	37.63
3.70203	37.63
3.71870	37.63
3.73537	37.63
3.75203	37.63
3.76870	37.63
3.78537	37.63
3.80203	37.63
3.81870	37.63
3.83537	37.63
3.85203	37.63
3.86870	37.63
3.88537	37.63
3.90203	37.63
3.91870	37.63
3.93537	37.63
3.95203	37.63
3.96870	37.63
3.98537	37.63

