[Header]
Application Name	LabSolutions
Version	5.110
Data File Name	C:\Users\User\Desktop\GC Analyses\Jack\UIC Prairie Sampling\7.9.22\220909_012.gcd
Output Date	9/28/2022
Output Time	11:29:49 AM

[File Information]
Type	Data File
Generated	9/9/2022 2:20:51 PM
Generated by	System Administrator
Modified	9/9/2022 2:25:16 PM
Modified by	System Administrator

[Sample Information]
Operator Name	System Administrator
Acquired	9/9/2022 2:21:14 PM
Sample Type	1:Standard
Level	1
Sample Name	220909_Run
Sample ID	220909_Run
ISTD Amount1	1
ISTD Amount2	1
ISTD Amount3	1
ISTD Amount4	1
ISTD Amount5	1
ISTD Amount6	1
ISTD Amount7	1
ISTD Amount8	1
ISTD Amount9	1
ISTD Amount10	1
ISTD Amount11	1
ISTD Amount12	1
ISTD Amount13	1
ISTD Amount14	1
ISTD Amount15	1
ISTD Amount16	1
ISTD Amount17	1
ISTD Amount18	1
ISTD Amount19	1
ISTD Amount20	1
ISTD Amount21	1
ISTD Amount22	1
ISTD Amount23	1
ISTD Amount24	1
ISTD Amount25	1
ISTD Amount26	1
ISTD Amount27	1
ISTD Amount28	1
ISTD Amount29	1
ISTD Amount30	1
ISTD Amount31	1
ISTD Amount32	1
Sample Amount	1
Dilution Factor	1
Vial#	1
Injection Volume	1
Injection Count	1
Bar Code	

[Original Files]
Data File	C:\Users\User\Desktop\GC Analyses\Jack\220909\220909_012.gcd
Method File	C:\LabSolutions\Data\GHG_4min_2022\ghg3_togas_w_acet_4 min_new_int.gcm
Batch File	
Report Format File	c:\LabSolutions\System\DEFAULT.lsr

[File Description]


[Configuration]
Instrument Name	C0B7VH3-Instrument1
Instrument #	1
Line #	1
# of Detectors	3
Detector ID	DET#1	DET#2	DET#3
Detector Name	FID	PTCD	ECD
# of Channels	1	1	1

[Peak Table(Ch1)]
# of Peaks	3
Peak#	R.Time	I.Time	F.Time	Area	Height	A/H	Conc.	Mark	ID#	Name	k'	Plate #	Plate Ht.	Tailing	Resolution	Sep.Factor	Area Ratio	Height Ratio	Conc. %	Norm Conc.
1	1.468	1.421	1.531	10676	4876	2.190	100.000	   	1	CO	0.000	8448	17.755	1.428	0.000	0.000	0	0	16.667	16.667
2	1.567	1.531	1.641	20400	10377	1.966	100.000	 V 	2	CH4	0.067	11133	13.473	1.219	1.606	0.000	0	0	16.667	16.667
3	1.996	1.949	2.290	2113966	1037512	2.038	400.000	   	3	CO2	0.360	17821	8.417	1.187	7.196	5.333	0	0	66.667	66.667

[Peak Table(Ch2)]
# of Peaks	0

[Peak Table(Ch3)]
# of Peaks	2
Peak#	R.Time	I.Time	F.Time	Area	Height	A/H	Conc.	Mark	ID#	Name	k'	Plate #	Plate Ht.	Tailing	Resolution	Sep.Factor	Area Ratio	Height Ratio	Conc. %	Norm Conc.
1	2.469	1.549	2.645	12695	446	28.471	0.000	   			0.000	168	893.710	0.602	0.000	0.000	0	0	0.000	0.000
2	2.876	2.664	3.269	64238	16165	3.974	1.000	   	1	N2O	0.165	12506	11.995	1.520	0.941	0.000	0	0	100.000	100.000

[Compound Results(Ch1)]
# of IDs	6
ID#	Name	R.Time	Area	Height	Conc.	Curve	3rd	2nd	1st	Constant	Area Ratio	Height Ratio	Conc. %	Norm Conc.
1	CO	1.468	10676	4876	100.000	Linear	0.000000e+00	0.000000e+00	1.067650e+002	0.000000e+00	0	0	16.667	16.667
2	CH4	1.567	20400	10377	100.000	Linear	0.000000e+00	0.000000e+00	2.039951e+002	0.000000e+00	0	0	16.667	16.667
3	CO2	1.996	2113966	1037512	400.000	Linear	0.000000e+00	0.000000e+00	5.284915e+003	0.000000e+00	0	0	66.667	66.667
4	Ethylene	0.000	0	0	0.000	Linear	0.000000e+00	0.000000e+00	0.000000e+00	0.000000e+00	0	0	0.000	0.000
5	Acetylene	0.000	0	0	0.000	Linear	0.000000e+00	0.000000e+00	0.000000e+00	0.000000e+00	0	0	0.000	0.000
6	Ethane	0.000	0	0	0.000	Linear	0.000000e+00	0.000000e+00	0.000000e+00	0.000000e+00	0	0	0.000	0.000

[Compound Results(Ch2)]
# of IDs	5
ID#	Name	R.Time	Area	Height	Conc.	Curve	3rd	2nd	1st	Constant	Area Ratio	Height Ratio	Conc. %	Norm Conc.
1	Hydrogen	0.000	0	0	0.000	Linear	0.000000e+00	0.000000e+00	0.000000e+00	0.000000e+00	0	0	0.000	0.000
2	Oxygen	0.000	0	0	0.000	Linear	0.000000e+00	0.000000e+00	0.000000e+00	0.000000e+00	0	0	0.000	0.000
3	Nitrogen	0.000	0	0	0.000	Linear	0.000000e+00	0.000000e+00	0.000000e+00	0.000000e+00	0	0	0.000	0.000
4	Methane	0.000	0	0	0.000	Linear	0.000000e+00	0.000000e+00	0.000000e+00	0.000000e+00	0	0	0.000	0.000
5	Carbon Monoxide	0.000	0	0	0.000	Linear	0.000000e+00	0.000000e+00	0.000000e+00	0.000000e+00	0	0	0.000	0.000

[Compound Results(Ch3)]
# of IDs	2
ID#	Name	R.Time	Area	Height	Conc.	Curve	3rd	2nd	1st	Constant	Area Ratio	Height Ratio	Conc. %	Norm Conc.
1	N2O	2.876	64238	16165	1.000	Linear	0.000000e+00	0.000000e+00	6.423794e+004	0.000000e+00	0	0	100.000	100.000
2	SF6	0.000	0	0	0.000	Linear	0.000000e+00	0.000000e+00	0.000000e+00	0.000000e+00	0	0	0.000	0.000

[Group Results(Ch1)]
# of Groups	0

[Group Results(Ch2)]
# of Groups	0

[Group Results(Ch3)]
# of Groups	0

[Chromatogram (Ch1)]
Interval(msec)	220
# of Points	1091
Start Time(min)	0.002
End Time(min)	3.998
R.Time (min)	Intensity
0.00167	-23
0.00533	-30
0.00900	-35
0.01267	-38
0.01633	-39
0.02000	-38
0.02367	-35
0.02733	-32
0.03100	-28
0.03467	-23
0.03833	-16
0.04200	-11
0.04567	-11
0.04933	-15
0.05300	-20
0.05667	-24
0.06033	-27
0.06400	-30
0.06767	-33
0.07133	-33
0.07500	-32
0.07867	-29
0.08233	-25
0.08600	-21
0.08967	-19
0.09333	-19
0.09700	-18
0.10067	-17
0.10433	-20
0.10800	-26
0.11167	-31
0.11533	-34
0.11900	-36
0.12267	-33
0.12633	-25
0.13000	-14
0.13367	-10
0.13733	-13
0.14100	-19
0.14467	-23
0.14833	-26
0.15200	-28
0.15567	-31
0.15933	-31
0.16300	-32
0.16667	-34
0.17033	-35
0.17400	-37
0.17767	-40
0.18133	-42
0.18500	-43
0.18867	-40
0.19233	-36
0.19600	-32
0.19967	-33
0.20333	-40
0.20700	-46
0.21067	-45
0.21433	-39
0.21800	-35
0.22167	-36
0.22533	-39
0.22900	-40
0.23267	-40
0.23633	-38
0.24000	-36
0.24367	-33
0.24733	-33
0.25100	-34
0.25467	-33
0.25833	-37
0.26200	-42
0.26567	-44
0.26933	-42
0.27300	-39
0.27667	-39
0.28033	-37
0.28400	-34
0.28767	-30
0.29133	-27
0.29500	-25
0.29867	-23
0.30233	-23
0.30600	-27
0.30967	-33
0.31333	-40
0.31700	-42
0.32067	-36
0.32433	-31
0.32800	-32
0.33167	-35
0.33533	-38
0.33900	-43
0.34267	-45
0.34633	-44
0.35000	-42
0.35367	-41
0.35733	-41
0.36100	-42
0.36467	-45
0.36833	-46
0.37200	-41
0.37567	-31
0.37933	-25
0.38300	-27
0.38667	-32
0.39033	-37
0.39400	-40
0.39767	-44
0.40133	-48
0.40500	-48
0.40867	-44
0.41233	-40
0.41600	-35
0.41967	-29
0.42333	-24
0.42700	-25
0.43067	-29
0.43433	-34
0.43800	-38
0.44167	-36
0.44533	-27
0.44900	-19
0.45267	-16
0.45633	-18
0.46000	-22
0.46367	-26
0.46733	-29
0.47100	-28
0.47467	-27
0.47833	-30
0.48200	-36
0.48567	-42
0.48933	-43
0.49300	-39
0.49667	-33
0.50033	-25
0.50400	-21
0.50767	-20
0.51133	-19
0.51500	-19
0.51867	-21
0.52233	-25
0.52600	-29
0.52967	-32
0.53333	-34
0.53700	-37
0.54067	-38
0.54433	-38
0.54800	-39
0.55167	-40
0.55533	-39
0.55900	-39
0.56267	-38
0.56633	-36
0.57000	-35
0.57367	-29
0.57733	-18
0.58100	-11
0.58467	-12
0.58833	-18
0.59200	-25
0.59567	-30
0.59933	-28
0.60300	-22
0.60667	-19
0.61033	-21
0.61400	-28
0.61767	-35
0.62133	-38
0.62500	-36
0.62867	-32
0.63233	-33
0.63600	-38
0.63967	-43
0.64333	-45
0.64700	-43
0.65067	-41
0.65433	-40
0.65800	-40
0.66167	-40
0.66533	-39
0.66900	-37
0.67267	-37
0.67633	-30
0.68000	-18
0.68367	-13
0.68733	-12
0.69100	-15
0.69467	-19
0.69833	-23
0.70200	-26
0.70567	-28
0.70933	-32
0.71300	-33
0.71667	-29
0.72033	-27
0.72400	-21
0.72767	-22
0.73133	-26
0.73500	-27
0.73867	-28
0.74233	-28
0.74600	-24
0.74967	-19
0.75333	-16
0.75700	-19
0.76067	-24
0.76433	-29
0.76800	-30
0.77167	-27
0.77533	-22
0.77900	-19
0.78267	-18
0.78633	-19
0.79000	-19
0.79367	-17
0.79733	-16
0.80100	-17
0.80467	-21
0.80833	-29
0.81200	-35
0.81567	-37
0.81933	-35
0.82300	-32
0.82667	-32
0.83033	-33
0.83400	-35
0.83767	-35
0.84133	-32
0.84500	-29
0.84867	-23
0.85233	-19
0.85600	-18
0.85967	-25
0.86333	-35
0.86700	-42
0.87067	-48
0.87433	-49
0.87800	-45
0.88167	-38
0.88533	-37
0.88900	-39
0.89267	-42
0.89633	-44
0.90000	-44
0.90367	-44
0.90733	-43
0.91100	-40
0.91467	-36
0.91833	-29
0.92200	-24
0.92567	-21
0.92933	-22
0.93300	-24
0.93667	-27
0.94033	-35
0.94400	-32
0.94767	-27
0.95133	-22
0.95500	-19
0.95867	-20
0.96233	-22
0.96600	-25
0.96967	-29
0.97333	-33
0.97700	-36
0.98067	-35
0.98433	-30
0.98800	-22
0.99167	-15
0.99533	-11
0.99900	-15
1.00267	-24
1.00633	-32
1.01000	-36
1.01367	-33
1.01733	-27
1.02100	-25
1.02467	-27
1.02833	-30
1.03200	-31
1.03567	-31
1.03933	-32
1.04300	-36
1.04667	-43
1.05033	-46
1.05400	-44
1.05767	-36
1.06133	-27
1.06500	-20
1.06867	-17
1.07233	-17
1.07600	-19
1.07967	-23
1.08333	-29
1.08700	-33
1.09067	-35
1.09433	-34
1.09800	-33
1.10167	-35
1.10533	-36
1.10900	-36
1.11267	-33
1.11633	-28
1.12000	-19
1.12367	-12
1.12733	-10
1.13100	-12
1.13467	-15
1.13833	-18
1.14200	-21
1.14567	-24
1.14933	-27
1.15300	-30
1.15667	-33
1.16033	-36
1.16400	-40
1.16767	-42
1.17133	-39
1.17500	-33
1.17867	-29
1.18233	-31
1.18600	-36
1.18967	-40
1.19333	-42
1.19700	-43
1.20067	-42
1.20433	-37
1.20800	-31
1.21167	-28
1.21533	-24
1.21900	-18
1.22267	-13
1.22633	-11
1.23000	-13
1.23367	-13
1.23733	-10
1.24100	-9
1.24467	-15
1.24833	-24
1.25200	-31
1.25567	-34
1.25933	-35
1.26300	-33
1.26667	-32
1.27033	-34
1.27400	-37
1.27767	-38
1.28133	-38
1.28500	-38
1.28867	-38
1.29233	-37
1.29600	-38
1.29967	-41
1.30333	-45
1.30700	-46
1.31067	-45
1.31433	-44
1.31800	-42
1.32167	-40
1.32533	-37
1.32900	-33
1.33267	-33
1.33633	-39
1.34000	-48
1.34367	-60
1.34733	-68
1.35100	-71
1.35467	-68
1.35833	-59
1.36200	-50
1.36567	-46
1.36933	-46
1.37300	-45
1.37667	-42
1.38033	-37
1.38400	-33
1.38767	-26
1.39133	-18
1.39500	-12
1.39867	-12
1.40233	-20
1.40600	-32
1.40967	-42
1.41333	-51
1.41700	-51
1.42067	-48
1.42433	-43
1.42800	-35
1.43167	-27
1.43533	-14
1.43900	41
1.44267	269
1.44633	795
1.45000	1583
1.45367	2510
1.45733	3439
1.46100	4221
1.46467	4717
1.46833	4822
1.47200	4569
1.47567	4078
1.47933	3487
1.48300	2891
1.48667	2338
1.49033	1855
1.49400	1450
1.49767	1120
1.50133	856
1.50500	645
1.50867	476
1.51233	342
1.51600	235
1.51967	152
1.52333	89
1.52700	46
1.53067	20
1.53433	16
1.53800	110
1.54167	514
1.54533	1513
1.54900	3174
1.55267	5194
1.55633	7143
1.56000	8741
1.56367	9840
1.56733	10311
1.57100	10019
1.57467	8975
1.57833	7419
1.58200	5715
1.58567	4159
1.58933	2898
1.59300	1956
1.59667	1284
1.60033	818
1.60400	503
1.60767	300
1.61133	171
1.61500	89
1.61867	37
1.62233	2
1.62600	-23
1.62967	-42
1.63333	-57
1.63700	-69
1.64067	-75
1.64433	-76
1.64800	-74
1.65167	-69
1.65533	-67
1.65900	-66
1.66267	-65
1.66633	-64
1.67000	-64
1.67367	-64
1.67733	-64
1.68100	-65
1.68467	-62
1.68833	-59
1.69200	-61
1.69567	-64
1.69933	-66
1.70300	-67
1.70667	-68
1.71033	-67
1.71400	-63
1.71767	-59
1.72133	-56
1.72500	-58
1.72867	-60
1.73233	-59
1.73600	-60
1.73967	-65
1.74333	-68
1.74700	-70
1.75067	-70
1.75433	-71
1.75800	-71
1.76167	-72
1.76533	-73
1.76900	-70
1.77267	-66
1.77633	-60
1.78000	-58
1.78367	-60
1.78733	-61
1.79100	-62
1.79467	-62
1.79833	-58
1.80200	-51
1.80567	-44
1.80933	-43
1.81300	-48
1.81667	-55
1.82033	-61
1.82400	-66
1.82767	-66
1.83133	-63
1.83500	-59
1.83867	-55
1.84233	-56
1.84600	-60
1.84967	-66
1.85333	-69
1.85700	-68
1.86067	-65
1.86433	-64
1.86800	-63
1.87167	-63
1.87533	-64
1.87900	-65
1.88267	-64
1.88633	-61
1.89000	-58
1.89367	-54
1.89733	-49
1.90100	-46
1.90467	-46
1.90833	-49
1.91200	-49
1.91567	-48
1.91933	-47
1.92300	-48
1.92667	-46
1.93033	-40
1.93400	-35
1.93767	-35
1.94133	-35
1.94500	-33
1.94867	-23
1.95233	34
1.95600	392
1.95967	2300
1.96333	10201
1.96700	35118
1.97067	95565
1.97433	209054
1.97800	376470
1.98167	575147
1.98533	769179
1.98900	924727
1.99267	1018066
1.99633	1037515
2.00000	983938
2.00367	871211
2.00733	723049
2.01100	566033
2.01467	421687
2.01833	302018
2.02200	210110
2.02567	143340
2.02933	96714
2.03300	65024
2.03667	43861
2.04033	29870
2.04400	20651
2.04767	14565
2.05133	10520
2.05500	7800
2.05867	5947
2.06233	4662
2.06600	3750
2.06967	3084
2.07333	2587
2.07700	2207
2.08067	1910
2.08433	1674
2.08800	1484
2.09167	1332
2.09533	1208
2.09900	1105
2.10267	1021
2.10633	950
2.11000	888
2.11367	829
2.11733	775
2.12100	734
2.12467	697
2.12833	660
2.13200	626
2.13567	596
2.13933	567
2.14300	538
2.14667	512
2.15033	490
2.15400	470
2.15767	450
2.16133	430
2.16500	413
2.16867	400
2.17233	390
2.17600	381
2.17967	374
2.18333	361
2.18700	343
2.19067	325
2.19433	311
2.19800	303
2.20167	296
2.20533	289
2.20900	282
2.21267	279
2.21633	275
2.22000	270
2.22367	261
2.22733	256
2.23100	250
2.23467	244
2.23833	239
2.24200	236
2.24567	228
2.24933	219
2.25300	213
2.25667	211
2.26033	210
2.26400	206
2.26767	202
2.27133	195
2.27500	188
2.27867	181
2.28233	175
2.28600	171
2.28967	166
2.29333	163
2.29700	164
2.30067	168
2.30433	169
2.30800	171
2.31167	173
2.31533	172
2.31900	168
2.32267	163
2.32633	158
2.33000	153
2.33367	148
2.33733	141
2.34100	134
2.34467	128
2.34833	122
2.35200	118
2.35567	117
2.35933	119
2.36300	123
2.36667	127
2.37033	129
2.37400	126
2.37767	122
2.38133	119
2.38500	116
2.38867	109
2.39233	106
2.39600	107
2.39967	105
2.40333	100
2.40700	95
2.41067	94
2.41433	96
2.41800	97
2.42167	104
2.42533	107
2.42900	103
2.43267	97
2.43633	95
2.44000	94
2.44367	88
2.44733	83
2.45100	80
2.45467	78
2.45833	73
2.46200	68
2.46567	65
2.46933	63
2.47300	63
2.47667	65
2.48033	68
2.48400	71
2.48767	72
2.49133	69
2.49500	64
2.49867	62
2.50233	62
2.50600	63
2.50967	61
2.51333	59
2.51700	57
2.52067	57
2.52433	57
2.52800	56
2.53167	55
2.53533	58
2.53900	60
2.54267	59
2.54633	56
2.55000	56
2.55367	60
2.55733	66
2.56100	67
2.56467	65
2.56833	63
2.57200	64
2.57567	68
2.57933	70
2.58300	69
2.58667	61
2.59033	49
2.59400	39
2.59767	34
2.60133	33
2.60500	31
2.60867	34
2.61233	37
2.61600	37
2.61967	35
2.62333	35
2.62700	34
2.63067	31
2.63433	29
2.63800	29
2.64167	32
2.64533	32
2.64900	32
2.65267	34
2.65633	37
2.66000	41
2.66367	46
2.66733	52
2.67100	53
2.67467	51
2.67833	48
2.68200	47
2.68567	46
2.68933	44
2.69300	43
2.69667	42
2.70033	44
2.70400	49
2.70767	56
2.71133	58
2.71500	55
2.71867	52
2.72233	47
2.72600	38
2.72967	31
2.73333	28
2.73700	26
2.74067	25
2.74433	22
2.74800	20
2.75167	19
2.75533	21
2.75900	28
2.76267	35
2.76633	47
2.77000	62
2.77367	70
2.77733	64
2.78100	50
2.78467	35
2.78833	24
2.79200	20
2.79567	22
2.79933	28
2.80300	35
2.80667	36
2.81033	34
2.81400	32
2.81767	30
2.82133	30
2.82500	33
2.82867	34
2.83233	34
2.83600	32
2.83967	33
2.84333	34
2.84700	36
2.85067	40
2.85433	44
2.85800	48
2.86167	51
2.86533	50
2.86900	49
2.87267	50
2.87633	55
2.88000	63
2.88367	71
2.88733	79
2.89100	88
2.89467	98
2.89833	107
2.90200	111
2.90567	110
2.90933	109
2.91300	110
2.91667	111
2.92033	114
2.92400	114
2.92767	111
2.93133	108
2.93500	108
2.93867	111
2.94233	116
2.94600	120
2.94967	121
2.95333	120
2.95700	116
2.96067	111
2.96433	105
2.96800	100
2.97167	99
2.97533	104
2.97900	108
2.98267	112
2.98633	118
2.99000	124
2.99367	127
2.99733	127
3.00100	127
3.00467	126
3.00833	124
3.01200	120
3.01567	118
3.01933	120
3.02300	124
3.02667	129
3.03033	135
3.03400	141
3.03767	144
3.04133	143
3.04500	136
3.04867	127
3.05233	117
3.05600	107
3.05967	104
3.06333	107
3.06700	114
3.07067	123
3.07433	131
3.07800	135
3.08167	132
3.08533	128
3.08900	125
3.09267	122
3.09633	122
3.10000	126
3.10367	132
3.10733	137
3.11100	137
3.11467	131
3.11833	123
3.12200	117
3.12567	117
3.12933	121
3.13300	121
3.13667	116
3.14033	110
3.14400	108
3.14767	109
3.15133	111
3.15500	115
3.15867	120
3.16233	123
3.16600	127
3.16967	130
3.17333	129
3.17700	123
3.18067	117
3.18433	114
3.18800	114
3.19167	115
3.19533	116
3.19900	115
3.20267	114
3.20633	110
3.21000	105
3.21367	101
3.21733	99
3.22100	98
3.22467	97
3.22833	97
3.23200	99
3.23567	99
3.23933	99
3.24300	100
3.24667	103
3.25033	107
3.25400	110
3.25767	111
3.26133	114
3.26500	120
3.26867	124
3.27233	124
3.27600	121
3.27967	114
3.28333	108
3.28700	103
3.29067	101
3.29433	104
3.29800	109
3.30167	112
3.30533	113
3.30900	112
3.31267	110
3.31633	108
3.32000	109
3.32367	112
3.32733	114
3.33100	115
3.33467	117
3.33833	117
3.34200	117
3.34567	118
3.34933	118
3.35300	116
3.35667	115
3.36033	116
3.36400	121
3.36767	127
3.37133	134
3.37500	139
3.37867	135
3.38233	126
3.38600	119
3.38967	112
3.39333	105
3.39700	99
3.40067	96
3.40433	96
3.40800	97
3.41167	98
3.41533	96
3.41900	95
3.42267	93
3.42633	90
3.43000	92
3.43367	98
3.43733	103
3.44100	102
3.44467	103
3.44833	103
3.45200	106
3.45567	111
3.45933	111
3.46300	111
3.46667	110
3.47033	107
3.47400	105
3.47767	102
3.48133	98
3.48500	95
3.48867	95
3.49233	100
3.49600	105
3.49967	106
3.50333	106
3.50700	107
3.51067	112
3.51433	115
3.51800	116
3.52167	117
3.52533	116
3.52900	113
3.53267	109
3.53633	109
3.54000	110
3.54367	111
3.54733	111
3.55100	114
3.55467	115
3.55833	111
3.56200	110
3.56567	109
3.56933	107
3.57300	105
3.57667	102
3.58033	103
3.58400	106
3.58767	110
3.59133	111
3.59500	110
3.59867	110
3.60233	107
3.60600	102
3.60967	99
3.61333	101
3.61700	107
3.62067	116
3.62433	126
3.62800	132
3.63167	130
3.63533	122
3.63900	115
3.64267	109
3.64633	103
3.65000	98
3.65367	98
3.65733	101
3.66100	102
3.66467	103
3.66833	105
3.67200	108
3.67567	110
3.67933	109
3.68300	104
3.68667	99
3.69033	96
3.69400	94
3.69767	90
3.70133	83
3.70500	80
3.70867	80
3.71233	82
3.71600	84
3.71967	87
3.72333	92
3.72700	95
3.73067	98
3.73433	98
3.73800	99
3.74167	103
3.74533	104
3.74900	103
3.75267	100
3.75633	95
3.76000	93
3.76367	96
3.76733	99
3.77100	101
3.77467	100
3.77833	97
3.78200	98
3.78567	106
3.78933	115
3.79300	118
3.79667	115
3.80033	109
3.80400	102
3.80767	96
3.81133	92
3.81500	91
3.81867	91
3.82233	88
3.82600	84
3.82967	82
3.83333	84
3.83700	89
3.84067	96
3.84433	102
3.84800	105
3.85167	103
3.85533	97
3.85900	88
3.86267	80
3.86633	73
3.87000	71
3.87367	76
3.87733	84
3.88100	91
3.88467	96
3.88833	97
3.89200	97
3.89567	96
3.89933	97
3.90300	100
3.90667	104
3.91033	107
3.91400	108
3.91767	105
3.92133	101
3.92500	96
3.92867	93
3.93233	92
3.93600	96
3.93967	98
3.94333	99
3.94700	97
3.95067	95
3.95433	96
3.95800	97
3.96167	97
3.96533	98
3.96900	100
3.97267	100
3.97633	101
3.98000	103
3.98367	105
3.98733	108
3.99100	113
3.99467	116
3.99833	115

[Chromatogram (Ch2)]
Interval(msec)	220
# of Points	1091
Start Time(min)	0.002
End Time(min)	3.998
R.Time (min)	Intensity
0.00167	1
0.00533	1
0.00900	1
0.01267	1
0.01633	0
0.02000	0
0.02367	0
0.02733	0
0.03100	1
0.03467	1
0.03833	1
0.04200	1
0.04567	1
0.04933	1
0.05300	1
0.05667	1
0.06033	0
0.06400	-0
0.06767	-0
0.07133	-1
0.07500	-1
0.07867	-1
0.08233	-1
0.08600	-1
0.08967	-1
0.09333	-1
0.09700	-0
0.10067	0
0.10433	0
0.10800	1
0.11167	1
0.11533	1
0.11900	1
0.12267	1
0.12633	2
0.13000	2
0.13367	2
0.13733	2
0.14100	2
0.14467	2
0.14833	2
0.15200	3
0.15567	3
0.15933	3
0.16300	3
0.16667	3
0.17033	3
0.17400	2
0.17767	2
0.18133	2
0.18500	2
0.18867	1
0.19233	1
0.19600	1
0.19967	1
0.20333	1
0.20700	1
0.21067	1
0.21433	1
0.21800	1
0.22167	1
0.22533	1
0.22900	0
0.23267	-0
0.23633	-0
0.24000	-1
0.24367	-1
0.24733	-1
0.25100	-2
0.25467	-2
0.25833	-2
0.26200	-2
0.26567	-2
0.26933	-2
0.27300	-2
0.27667	-2
0.28033	-2
0.28400	-1
0.28767	-1
0.29133	-0
0.29500	0
0.29867	0
0.30233	1
0.30600	0
0.30967	0
0.31333	1
0.31700	1
0.32067	1
0.32433	1
0.32800	1
0.33167	1
0.33533	1
0.33900	1
0.34267	1
0.34633	1
0.35000	0
0.35367	0
0.35733	-0
0.36100	-0
0.36467	-1
0.36833	-1
0.37200	-1
0.37567	-1
0.37933	-1
0.38300	-1
0.38667	-1
0.39033	-1
0.39400	-2
0.39767	-2
0.40133	-2
0.40500	-3
0.40867	-3
0.41233	-4
0.41600	-4
0.41967	-4
0.42333	-4
0.42700	-4
0.43067	-4
0.43433	-4
0.43800	-4
0.44167	-3
0.44533	-3
0.44900	-2
0.45267	-2
0.45633	-2
0.46000	-1
0.46367	-1
0.46733	-1
0.47100	-1
0.47467	-1
0.47833	-1
0.48200	-1
0.48567	-1
0.48933	-1
0.49300	-1
0.49667	-1
0.50033	-1
0.50400	-1
0.50767	-0
0.51133	-0
0.51500	0
0.51867	0
0.52233	0
0.52600	-0
0.52967	-0
0.53333	-0
0.53700	-1
0.54067	-1
0.54433	-1
0.54800	-2
0.55167	-2
0.55533	-2
0.55900	-2
0.56267	-2
0.56633	-2
0.57000	-2
0.57367	-2
0.57733	-2
0.58100	-1
0.58467	-1
0.58833	-1
0.59200	-1
0.59567	-1
0.59933	-0
0.60300	-0
0.60667	0
0.61033	0
0.61400	0
0.61767	0
0.62133	0
0.62500	0
0.62867	0
0.63233	0
0.63600	0
0.63967	0
0.64333	1
0.64700	1
0.65067	1
0.65433	1
0.65800	0
0.66167	0
0.66533	0
0.66900	-0
0.67267	-0
0.67633	-0
0.68000	-0
0.68367	-0
0.68733	-0
0.69100	-0
0.69467	-0
0.69833	-0
0.70200	-0
0.70567	-1
0.70933	-0
0.71300	-0
0.71667	0
0.72033	0
0.72400	1
0.72767	1
0.73133	1
0.73500	1
0.73867	1
0.74233	1
0.74600	1
0.74967	1
0.75333	1
0.75700	1
0.76067	1
0.76433	1
0.76800	1
0.77167	1
0.77533	1
0.77900	1
0.78267	1
0.78633	0
0.79000	0
0.79367	0
0.79733	-0
0.80100	-0
0.80467	-1
0.80833	-1
0.81200	-1
0.81567	-1
0.81933	-1
0.82300	-1
0.82667	-1
0.83033	-1
0.83400	-1
0.83767	-1
0.84133	-1
0.84500	-1
0.84867	-1
0.85233	-1
0.85600	-1
0.85967	-2
0.86333	-2
0.86700	-2
0.87067	-2
0.87433	-2
0.87800	-2
0.88167	-2
0.88533	-2
0.88900	-2
0.89267	-2
0.89633	-2
0.90000	-2
0.90367	-2
0.90733	-2
0.91100	-1
0.91467	-1
0.91833	-1
0.92200	-1
0.92567	-1
0.92933	-1
0.93300	-1
0.93667	-0
0.94033	-0
0.94400	-0
0.94767	-0
0.95133	-0
0.95500	-0
0.95867	0
0.96233	0
0.96600	0
0.96967	0
0.97333	0
0.97700	0
0.98067	0
0.98433	0
0.98800	0
0.99167	0
0.99533	0
0.99900	0
1.00267	-0
1.00633	-0
1.01000	-1
1.01367	-1
1.01733	-2
1.02100	-2
1.02467	-2
1.02833	-2
1.03200	-2
1.03567	-2
1.03933	-3
1.04300	-3
1.04667	-3
1.05033	-3
1.05400	-3
1.05767	-3
1.06133	-3
1.06500	-3
1.06867	-3
1.07233	-2
1.07600	-2
1.07967	-2
1.08333	-2
1.08700	-2
1.09067	-1
1.09433	-1
1.09800	-1
1.10167	-1
1.10533	-1
1.10900	-1
1.11267	-1
1.11633	-1
1.12000	-1
1.12367	-1
1.12733	-1
1.13100	-1
1.13467	-1
1.13833	-1
1.14200	-1
1.14567	-1
1.14933	-1
1.15300	-1
1.15667	-1
1.16033	-1
1.16400	-1
1.16767	-1
1.17133	-1
1.17500	-0
1.17867	-0
1.18233	0
1.18600	0
1.18967	0
1.19333	0
1.19700	-0
1.20067	-0
1.20433	-0
1.20800	-1
1.21167	-1
1.21533	-1
1.21900	-1
1.22267	-1
1.22633	-1
1.23000	-1
1.23367	-1
1.23733	-1
1.24100	-1
1.24467	-1
1.24833	-1
1.25200	-1
1.25567	-0
1.25933	-0
1.26300	-1
1.26667	-1
1.27033	-0
1.27400	-0
1.27767	-0
1.28133	-0
1.28500	-0
1.28867	-0
1.29233	-0
1.29600	-0
1.29967	-1
1.30333	-0
1.30700	-0
1.31067	-0
1.31433	-0
1.31800	-1
1.32167	-1
1.32533	-1
1.32900	-1
1.33267	-1
1.33633	-1
1.34000	-1
1.34367	-1
1.34733	-1
1.35100	-1
1.35467	-1
1.35833	-1
1.36200	-1
1.36567	-1
1.36933	-1
1.37300	-1
1.37667	-1
1.38033	-1
1.38400	-1
1.38767	-1
1.39133	-1
1.39500	-1
1.39867	-1
1.40233	-1
1.40600	-1
1.40967	-2
1.41333	-2
1.41700	-2
1.42067	-2
1.42433	-2
1.42800	-2
1.43167	-2
1.43533	-1
1.43900	-1
1.44267	-1
1.44633	-1
1.45000	-2
1.45367	-2
1.45733	-2
1.46100	-3
1.46467	-3
1.46833	-4
1.47200	-4
1.47567	-4
1.47933	-4
1.48300	-4
1.48667	-4
1.49033	-4
1.49400	-4
1.49767	-4
1.50133	-5
1.50500	-5
1.50867	-4
1.51233	-4
1.51600	-4
1.51967	-4
1.52333	-4
1.52700	-3
1.53067	-3
1.53433	-3
1.53800	-3
1.54167	-2
1.54533	-2
1.54900	-2
1.55267	-1
1.55633	-1
1.56000	-1
1.56367	-0
1.56733	-0
1.57100	-0
1.57467	0
1.57833	1
1.58200	1
1.58567	1
1.58933	1
1.59300	1
1.59667	1
1.60033	-0
1.60400	-1
1.60767	-3
1.61133	-4
1.61500	-6
1.61867	-8
1.62233	-11
1.62600	-13
1.62967	-16
1.63333	-19
1.63700	-23
1.64067	-27
1.64433	-30
1.64800	-34
1.65167	-38
1.65533	-42
1.65900	-46
1.66267	-51
1.66633	-55
1.67000	-60
1.67367	-65
1.67733	-70
1.68100	-76
1.68467	-81
1.68833	-85
1.69200	-90
1.69567	-93
1.69933	-97
1.70300	-99
1.70667	-102
1.71033	-103
1.71400	-105
1.71767	-106
1.72133	-108
1.72500	-109
1.72867	-110
1.73233	-110
1.73600	-111
1.73967	-111
1.74333	-111
1.74700	-111
1.75067	-111
1.75433	-111
1.75800	-112
1.76167	-113
1.76533	-114
1.76900	-114
1.77267	-115
1.77633	-116
1.78000	-116
1.78367	-117
1.78733	-117
1.79100	-117
1.79467	-117
1.79833	-118
1.80200	-118
1.80567	-118
1.80933	-118
1.81300	-119
1.81667	-119
1.82033	-120
1.82400	-120
1.82767	-120
1.83133	-120
1.83500	-121
1.83867	-121
1.84233	-121
1.84600	-121
1.84967	-120
1.85333	-120
1.85700	-120
1.86067	-120
1.86433	-120
1.86800	-120
1.87167	-120
1.87533	-120
1.87900	-121
1.88267	-120
1.88633	-120
1.89000	-120
1.89367	-119
1.89733	-119
1.90100	-119
1.90467	-118
1.90833	-118
1.91200	-118
1.91567	-118
1.91933	-118
1.92300	-118
1.92667	-118
1.93033	-118
1.93400	-118
1.93767	-118
1.94133	-118
1.94500	-117
1.94867	-117
1.95233	-116
1.95600	-115
1.95967	-115
1.96333	-114
1.96700	-114
1.97067	-114
1.97433	-113
1.97800	-112
1.98167	-112
1.98533	-111
1.98900	-111
1.99267	-111
1.99633	-111
2.00000	-112
2.00367	-112
2.00733	-112
2.01100	-112
2.01467	-111
2.01833	-111
2.02200	-111
2.02567	-111
2.02933	-111
2.03300	-111
2.03667	-111
2.04033	-110
2.04400	-110
2.04767	-110
2.05133	-110
2.05500	-109
2.05867	-109
2.06233	-109
2.06600	-108
2.06967	-108
2.07333	-108
2.07700	-107
2.08067	-107
2.08433	-107
2.08800	-106
2.09167	-106
2.09533	-106
2.09900	-105
2.10267	-105
2.10633	-105
2.11000	-104
2.11367	-103
2.11733	-103
2.12100	-102
2.12467	-102
2.12833	-102
2.13200	-101
2.13567	-101
2.13933	-101
2.14300	-101
2.14667	-100
2.15033	-100
2.15400	-100
2.15767	-100
2.16133	-100
2.16500	-100
2.16867	-99
2.17233	-99
2.17600	-99
2.17967	-98
2.18333	-98
2.18700	-98
2.19067	-98
2.19433	-97
2.19800	-97
2.20167	-97
2.20533	-97
2.20900	-97
2.21267	-97
2.21633	-97
2.22000	-96
2.22367	-96
2.22733	-96
2.23100	-96
2.23467	-96
2.23833	-96
2.24200	-95
2.24567	-95
2.24933	-94
2.25300	-94
2.25667	-93
2.26033	-93
2.26400	-92
2.26767	-92
2.27133	-91
2.27500	-90
2.27867	-90
2.28233	-90
2.28600	-89
2.28967	-90
2.29333	-90
2.29700	-89
2.30067	-89
2.30433	-88
2.30800	-87
2.31167	-86
2.31533	-86
2.31900	-85
2.32267	-85
2.32633	-85
2.33000	-84
2.33367	-84
2.33733	-83
2.34100	-82
2.34467	-82
2.34833	-82
2.35200	-83
2.35567	-83
2.35933	-83
2.36300	-83
2.36667	-82
2.37033	-81
2.37400	-80
2.37767	-77
2.38133	-74
2.38500	-71
2.38867	-67
2.39233	-63
2.39600	-58
2.39967	-53
2.40333	-48
2.40700	-43
2.41067	-38
2.41433	-34
2.41800	-30
2.42167	-27
2.42533	-24
2.42900	-22
2.43267	-19
2.43633	-17
2.44000	-14
2.44367	-12
2.44733	-10
2.45100	-8
2.45467	-6
2.45833	-4
2.46200	-3
2.46567	-2
2.46933	-1
2.47300	0
2.47667	2
2.48033	3
2.48400	4
2.48767	5
2.49133	7
2.49500	8
2.49867	9
2.50233	10
2.50600	11
2.50967	12
2.51333	12
2.51700	13
2.52067	14
2.52433	14
2.52800	14
2.53167	15
2.53533	15
2.53900	15
2.54267	16
2.54633	17
2.55000	17
2.55367	18
2.55733	18
2.56100	18
2.56467	19
2.56833	19
2.57200	20
2.57567	20
2.57933	20
2.58300	20
2.58667	20
2.59033	20
2.59400	20
2.59767	20
2.60133	20
2.60500	21
2.60867	21
2.61233	21
2.61600	21
2.61967	21
2.62333	21
2.62700	21
2.63067	22
2.63433	22
2.63800	22
2.64167	23
2.64533	23
2.64900	23
2.65267	24
2.65633	24
2.66000	24
2.66367	24
2.66733	24
2.67100	24
2.67467	24
2.67833	24
2.68200	24
2.68567	24
2.68933	24
2.69300	24
2.69667	24
2.70033	25
2.70400	25
2.70767	25
2.71133	26
2.71500	27
2.71867	27
2.72233	28
2.72600	28
2.72967	29
2.73333	29
2.73700	29
2.74067	29
2.74433	29
2.74800	28
2.75167	28
2.75533	27
2.75900	27
2.76267	26
2.76633	26
2.77000	26
2.77367	26
2.77733	26
2.78100	26
2.78467	26
2.78833	26
2.79200	26
2.79567	26
2.79933	27
2.80300	27
2.80667	27
2.81033	27
2.81400	27
2.81767	27
2.82133	28
2.82500	28
2.82867	28
2.83233	28
2.83600	27
2.83967	26
2.84333	23
2.84700	19
2.85067	11
2.85433	0
2.85800	-15
2.86167	-35
2.86533	-60
2.86900	-90
2.87267	-126
2.87633	-166
2.88000	-212
2.88367	-262
2.88733	-318
2.89100	-377
2.89467	-441
2.89833	-508
2.90200	-578
2.90567	-651
2.90933	-727
2.91300	-805
2.91667	-886
2.92033	-968
2.92400	-1052
2.92767	-1138
2.93133	-1225
2.93500	-1314
2.93867	-1401
2.94233	-1475
2.94600	-1525
2.94967	-1541
2.95333	-1520
2.95700	-1467
2.96067	-1388
2.96433	-1291
2.96800	-1184
2.97167	-1072
2.97533	-960
2.97900	-852
2.98267	-751
2.98633	-658
2.99000	-573
2.99367	-497
2.99733	-429
3.00100	-369
3.00467	-316
3.00833	-269
3.01200	-229
3.01567	-194
3.01933	-164
3.02300	-139
3.02667	-117
3.03033	-98
3.03400	-81
3.03767	-67
3.04133	-56
3.04500	-45
3.04867	-37
3.05233	-29
3.05600	-23
3.05967	-18
3.06333	-13
3.06700	-9
3.07067	-5
3.07433	-2
3.07800	0
3.08167	3
3.08533	5
3.08900	7
3.09267	8
3.09633	9
3.10000	10
3.10367	11
3.10733	11
3.11100	12
3.11467	13
3.11833	13
3.12200	14
3.12567	15
3.12933	16
3.13300	16
3.13667	17
3.14033	18
3.14400	18
3.14767	18
3.15133	19
3.15500	19
3.15867	19
3.16233	19
3.16600	19
3.16967	20
3.17333	20
3.17700	20
3.18067	21
3.18433	21
3.18800	21
3.19167	21
3.19533	21
3.19900	22
3.20267	22
3.20633	22
3.21000	22
3.21367	23
3.21733	23
3.22100	23
3.22467	23
3.22833	24
3.23200	24
3.23567	24
3.23933	24
3.24300	24
3.24667	25
3.25033	25
3.25400	25
3.25767	26
3.26133	26
3.26500	26
3.26867	26
3.27233	27
3.27600	27
3.27967	27
3.28333	28
3.28700	28
3.29067	28
3.29433	29
3.29800	29
3.30167	29
3.30533	30
3.30900	30
3.31267	30
3.31633	30
3.32000	31
3.32367	31
3.32733	31
3.33100	31
3.33467	31
3.33833	31
3.34200	31
3.34567	32
3.34933	32
3.35300	31
3.35667	31
3.36033	31
3.36400	31
3.36767	31
3.37133	31
3.37500	31
3.37867	31
3.38233	31
3.38600	31
3.38967	31
3.39333	31
3.39700	31
3.40067	31
3.40433	31
3.40800	31
3.41167	31
3.41533	31
3.41900	31
3.42267	31
3.42633	31
3.43000	32
3.43367	32
3.43733	32
3.44100	32
3.44467	32
3.44833	32
3.45200	32
3.45567	32
3.45933	32
3.46300	32
3.46667	32
3.47033	32
3.47400	32
3.47767	32
3.48133	32
3.48500	32
3.48867	32
3.49233	32
3.49600	32
3.49967	32
3.50333	32
3.50700	32
3.51067	32
3.51433	32
3.51800	32
3.52167	31
3.52533	31
3.52900	31
3.53267	32
3.53633	32
3.54000	32
3.54367	32
3.54733	32
3.55100	32
3.55467	32
3.55833	32
3.56200	32
3.56567	32
3.56933	32
3.57300	32
3.57667	31
3.58033	31
3.58400	31
3.58767	31
3.59133	30
3.59500	30
3.59867	30
3.60233	30
3.60600	30
3.60967	30
3.61333	30
3.61700	30
3.62067	30
3.62433	30
3.62800	30
3.63167	30
3.63533	29
3.63900	29
3.64267	29
3.64633	29
3.65000	29
3.65367	29
3.65733	29
3.66100	30
3.66467	30
3.66833	30
3.67200	30
3.67567	31
3.67933	31
3.68300	31
3.68667	31
3.69033	31
3.69400	31
3.69767	31
3.70133	31
3.70500	31
3.70867	31
3.71233	32
3.71600	32
3.71967	32
3.72333	32
3.72700	32
3.73067	32
3.73433	32
3.73800	32
3.74167	32
3.74533	32
3.74900	32
3.75267	32
3.75633	32
3.76000	33
3.76367	33
3.76733	32
3.77100	32
3.77467	32
3.77833	32
3.78200	32
3.78567	32
3.78933	32
3.79300	32
3.79667	32
3.80033	32
3.80400	32
3.80767	33
3.81133	33
3.81500	33
3.81867	33
3.82233	32
3.82600	32
3.82967	32
3.83333	32
3.83700	32
3.84067	32
3.84433	31
3.84800	31
3.85167	31
3.85533	31
3.85900	31
3.86267	31
3.86633	31
3.87000	30
3.87367	30
3.87733	31
3.88100	31
3.88467	31
3.88833	31
3.89200	31
3.89567	31
3.89933	32
3.90300	31
3.90667	31
3.91033	31
3.91400	31
3.91767	31
3.92133	31
3.92500	31
3.92867	31
3.93233	31
3.93600	32
3.93967	32
3.94333	32
3.94700	32
3.95067	32
3.95433	32
3.95800	32
3.96167	32
3.96533	32
3.96900	32
3.97267	32
3.97633	32
3.98000	32
3.98367	32
3.98733	32
3.99100	32
3.99467	32
3.99833	32

[Chromatogram (Ch3)]
Interval(msec)	220
# of Points	1091
Start Time(min)	0.002
End Time(min)	3.998
R.Time (min)	Intensity
0.00167	-0
0.00533	-0
0.00900	-0
0.01267	-2
0.01633	-3
0.02000	-1
0.02367	-0
0.02733	-1
0.03100	-3
0.03467	-4
0.03833	-5
0.04200	-5
0.04567	-4
0.04933	-3
0.05300	-2
0.05667	-1
0.06033	-1
0.06400	-0
0.06767	0
0.07133	-0
0.07500	-1
0.07867	1
0.08233	1
0.08600	-3
0.08967	-4
0.09333	-5
0.09700	-5
0.10067	-5
0.10433	-4
0.10800	-3
0.11167	-4
0.11533	-3
0.11900	-2
0.12267	-2
0.12633	-3
0.13000	-2
0.13367	-2
0.13733	-3
0.14100	-2
0.14467	-3
0.14833	-3
0.15200	-4
0.15567	-4
0.15933	-3
0.16300	-4
0.16667	-3
0.17033	-1
0.17400	0
0.17767	1
0.18133	1
0.18500	-0
0.18867	-1
0.19233	-1
0.19600	-0
0.19967	0
0.20333	-0
0.20700	0
0.21067	1
0.21433	1
0.21800	-1
0.22167	-1
0.22533	-2
0.22900	-3
0.23267	-4
0.23633	-3
0.24000	-1
0.24367	-1
0.24733	0
0.25100	1
0.25467	2
0.25833	1
0.26200	0
0.26567	1
0.26933	2
0.27300	2
0.27667	1
0.28033	-2
0.28400	-3
0.28767	-3
0.29133	-2
0.29500	-1
0.29867	-1
0.30233	-1
0.30600	1
0.30967	1
0.31333	1
0.31700	2
0.32067	2
0.32433	-1
0.32800	-4
0.33167	-4
0.33533	-3
0.33900	-3
0.34267	-5
0.34633	-6
0.35000	-5
0.35367	-3
0.35733	-1
0.36100	1
0.36467	0
0.36833	-1
0.37200	-1
0.37567	0
0.37933	-2
0.38300	-3
0.38667	-4
0.39033	-4
0.39400	-2
0.39767	-1
0.40133	-1
0.40500	-0
0.40867	1
0.41233	2
0.41600	3
0.41967	4
0.42333	6
0.42700	6
0.43067	4
0.43433	4
0.43800	4
0.44167	5
0.44533	2
0.44900	-2
0.45267	-6
0.45633	-7
0.46000	-8
0.46367	-8
0.46733	-8
0.47100	-7
0.47467	-7
0.47833	-7
0.48200	-5
0.48567	-2
0.48933	-2
0.49300	-1
0.49667	-2
0.50033	-3
0.50400	-3
0.50767	-6
0.51133	-6
0.51500	-6
0.51867	-5
0.52233	-4
0.52600	-3
0.52967	-2
0.53333	-3
0.53700	-3
0.54067	-4
0.54433	-5
0.54800	-5
0.55167	-2
0.55533	-0
0.55900	-1
0.56267	-2
0.56633	-5
0.57000	-9
0.57367	-10
0.57733	-7
0.58100	-6
0.58467	-5
0.58833	-4
0.59200	-5
0.59567	-5
0.59933	-3
0.60300	-1
0.60667	1
0.61033	2
0.61400	2
0.61767	1
0.62133	-0
0.62500	-3
0.62867	-6
0.63233	-10
0.63600	-11
0.63967	-10
0.64333	-8
0.64700	-5
0.65067	-2
0.65433	-0
0.65800	2
0.66167	3
0.66533	3
0.66900	3
0.67267	3
0.67633	0
0.68000	-1
0.68367	-2
0.68733	-2
0.69100	-2
0.69467	-1
0.69833	-3
0.70200	-4
0.70567	-5
0.70933	-6
0.71300	-6
0.71667	-5
0.72033	-5
0.72400	-4
0.72767	-3
0.73133	-2
0.73500	-1
0.73867	-1
0.74233	-1
0.74600	-1
0.74967	-1
0.75333	-2
0.75700	-2
0.76067	-1
0.76433	1
0.76800	1
0.77167	2
0.77533	2
0.77900	0
0.78267	1
0.78633	-1
0.79000	-3
0.79367	-4
0.79733	-6
0.80100	-7
0.80467	-7
0.80833	-5
0.81200	-3
0.81567	-2
0.81933	-2
0.82300	-2
0.82667	-3
0.83033	-5
0.83400	-4
0.83767	-2
0.84133	-1
0.84500	-1
0.84867	-0
0.85233	-1
0.85600	-0
0.85967	0
0.86333	-1
0.86700	-3
0.87067	-6
0.87433	-6
0.87800	-5
0.88167	-5
0.88533	-6
0.88900	-8
0.89267	-10
0.89633	-11
0.90000	-8
0.90367	-7
0.90733	-6
0.91100	-5
0.91467	-4
0.91833	-6
0.92200	-6
0.92567	-8
0.92933	-10
0.93300	-11
0.93667	-12
0.94033	-15
0.94400	-13
0.94767	-10
0.95133	-8
0.95500	-7
0.95867	-7
0.96233	-8
0.96600	-7
0.96967	-6
0.97333	-4
0.97700	-4
0.98067	-7
0.98433	-9
0.98800	-10
0.99167	-9
0.99533	-8
0.99900	-8
1.00267	-7
1.00633	-6
1.01000	-6
1.01367	-6
1.01733	-6
1.02100	-5
1.02467	-3
1.02833	-5
1.03200	-6
1.03567	-6
1.03933	-6
1.04300	-7
1.04667	-7
1.05033	-7
1.05400	-7
1.05767	-6
1.06133	-5
1.06500	-6
1.06867	-6
1.07233	-5
1.07600	-6
1.07967	-9
1.08333	-10
1.08700	-9
1.09067	-9
1.09433	-9
1.09800	-8
1.10167	-5
1.10533	-3
1.10900	-3
1.11267	-5
1.11633	-5
1.12000	-5
1.12367	-7
1.12733	-10
1.13100	-12
1.13467	-11
1.13833	-9
1.14200	-9
1.14567	-9
1.14933	-10
1.15300	-11
1.15667	-11
1.16033	-11
1.16400	-12
1.16767	-11
1.17133	-12
1.17500	-12
1.17867	-9
1.18233	-6
1.18600	-5
1.18967	-5
1.19333	-8
1.19700	-11
1.20067	-12
1.20433	-12
1.20800	-14
1.21167	-13
1.21533	-12
1.21900	-12
1.22267	-10
1.22633	-9
1.23000	-8
1.23367	-9
1.23733	-9
1.24100	-7
1.24467	-6
1.24833	-8
1.25200	-11
1.25567	-10
1.25933	-10
1.26300	-8
1.26667	-7
1.27033	-7
1.27400	-7
1.27767	-8
1.28133	-9
1.28500	-9
1.28867	-10
1.29233	-9
1.29600	-9
1.29967	-11
1.30333	-12
1.30700	-15
1.31067	-16
1.31433	-15
1.31800	-14
1.32167	-14
1.32533	-16
1.32900	-15
1.33267	-15
1.33633	-13
1.34000	-9
1.34367	-10
1.34733	-13
1.35100	-14
1.35467	-14
1.35833	-14
1.36200	-13
1.36567	-13
1.36933	-13
1.37300	-11
1.37667	-9
1.38033	-8
1.38400	-9
1.38767	-11
1.39133	-13
1.39500	-13
1.39867	-11
1.40233	-10
1.40600	-10
1.40967	-10
1.41333	-10
1.41700	-8
1.42067	-8
1.42433	-8
1.42800	-11
1.43167	-11
1.43533	-8
1.43900	-6
1.44267	-5
1.44633	-6
1.45000	-8
1.45367	-9
1.45733	-10
1.46100	-9
1.46467	-9
1.46833	-10
1.47200	-10
1.47567	-9
1.47933	-10
1.48300	-10
1.48667	-7
1.49033	-5
1.49400	-4
1.49767	-4
1.50133	-3
1.50500	-3
1.50867	-5
1.51233	-6
1.51600	-6
1.51967	-5
1.52333	-5
1.52700	-5
1.53067	-7
1.53433	-9
1.53800	-10
1.54167	-11
1.54533	-11
1.54900	-10
1.55267	-9
1.55633	-10
1.56000	-10
1.56367	-10
1.56733	-10
1.57100	-12
1.57467	-11
1.57833	-11
1.58200	-11
1.58567	-10
1.58933	-9
1.59300	-7
1.59667	-5
1.60033	-6
1.60400	-8
1.60767	-9
1.61133	-7
1.61500	-4
1.61867	-1
1.62233	1
1.62600	-1
1.62967	-2
1.63333	-4
1.63700	-5
1.64067	-4
1.64433	-2
1.64800	-1
1.65167	-0
1.65533	3
1.65900	5
1.66267	5
1.66633	4
1.67000	6
1.67367	8
1.67733	9
1.68100	9
1.68467	8
1.68833	7
1.69200	7
1.69567	6
1.69933	6
1.70300	6
1.70667	6
1.71033	6
1.71400	8
1.71767	9
1.72133	11
1.72500	13
1.72867	14
1.73233	15
1.73600	14
1.73967	12
1.74333	12
1.74700	14
1.75067	16
1.75433	16
1.75800	17
1.76167	19
1.76533	21
1.76900	20
1.77267	21
1.77633	22
1.78000	22
1.78367	21
1.78733	19
1.79100	19
1.79467	19
1.79833	18
1.80200	19
1.80567	21
1.80933	24
1.81300	24
1.81667	25
1.82033	26
1.82400	28
1.82767	31
1.83133	32
1.83500	32
1.83867	31
1.84233	29
1.84600	27
1.84967	25
1.85333	24
1.85700	25
1.86067	26
1.86433	27
1.86800	27
1.87167	29
1.87533	28
1.87900	26
1.88267	26
1.88633	27
1.89000	29
1.89367	31
1.89733	33
1.90100	33
1.90467	31
1.90833	29
1.91200	31
1.91567	35
1.91933	37
1.92300	38
1.92667	38
1.93033	38
1.93400	38
1.93767	39
1.94133	39
1.94500	40
1.94867	40
1.95233	40
1.95600	40
1.95967	41
1.96333	41
1.96700	42
1.97067	43
1.97433	43
1.97800	43
1.98167	43
1.98533	43
1.98900	45
1.99267	48
1.99633	49
2.00000	49
2.00367	51
2.00733	53
2.01100	53
2.01467	52
2.01833	54
2.02200	57
2.02567	57
2.02933	56
2.03300	55
2.03667	55
2.04033	55
2.04400	57
2.04767	59
2.05133	60
2.05500	61
2.05867	63
2.06233	67
2.06600	70
2.06967	71
2.07333	74
2.07700	76
2.08067	76
2.08433	77
2.08800	79
2.09167	80
2.09533	79
2.09900	81
2.10267	83
2.10633	83
2.11000	83
2.11367	84
2.11733	85
2.12100	87
2.12467	89
2.12833	91
2.13200	94
2.13567	98
2.13933	100
2.14300	100
2.14667	102
2.15033	106
2.15400	108
2.15767	109
2.16133	109
2.16500	109
2.16867	110
2.17233	112
2.17600	116
2.17967	120
2.18333	122
2.18700	124
2.19067	126
2.19433	126
2.19800	127
2.20167	128
2.20533	130
2.20900	132
2.21267	136
2.21633	138
2.22000	140
2.22367	143
2.22733	145
2.23100	146
2.23467	146
2.23833	145
2.24200	145
2.24567	147
2.24933	148
2.25300	150
2.25667	150
2.26033	152
2.26400	157
2.26767	158
2.27133	161
2.27500	163
2.27867	163
2.28233	163
2.28600	164
2.28967	164
2.29333	166
2.29700	167
2.30067	168
2.30433	169
2.30800	170
2.31167	170
2.31533	171
2.31900	173
2.32267	175
2.32633	177
2.33000	179
2.33367	181
2.33733	181
2.34100	182
2.34467	183
2.34833	184
2.35200	184
2.35567	183
2.35933	183
2.36300	184
2.36667	186
2.37033	187
2.37400	189
2.37767	190
2.38133	189
2.38500	187
2.38867	183
2.39233	183
2.39600	188
2.39967	197
2.40333	207
2.40700	217
2.41067	226
2.41433	235
2.41800	243
2.42167	249
2.42533	257
2.42900	263
2.43267	267
2.43633	270
2.44000	272
2.44367	274
2.44733	278
2.45100	282
2.45467	285
2.45833	287
2.46200	288
2.46567	288
2.46933	288
2.47300	288
2.47667	285
2.48033	282
2.48400	280
2.48767	278
2.49133	275
2.49500	273
2.49867	271
2.50233	268
2.50600	266
2.50967	265
2.51333	262
2.51700	257
2.52067	252
2.52433	246
2.52800	242
2.53167	238
2.53533	235
2.53900	231
2.54267	227
2.54633	221
2.55000	214
2.55367	211
2.55733	208
2.56100	204
2.56467	200
2.56833	195
2.57200	192
2.57567	190
2.57933	189
2.58300	188
2.58667	184
2.59033	181
2.59400	173
2.59767	159
2.60133	139
2.60500	113
2.60867	80
2.61233	42
2.61600	4
2.61967	-34
2.62333	-69
2.62700	-99
2.63067	-125
2.63433	-146
2.63800	-164
2.64167	-177
2.64533	-186
2.64900	-189
2.65267	-190
2.65633	-188
2.66000	-187
2.66367	-183
2.66733	-179
2.67100	-175
2.67467	-169
2.67833	-164
2.68200	-159
2.68567	-155
2.68933	-151
2.69300	-146
2.69667	-140
2.70033	-135
2.70400	-131
2.70767	-128
2.71133	-122
2.71500	-117
2.71867	-114
2.72233	-109
2.72600	-107
2.72967	-104
2.73333	-100
2.73700	-95
2.74067	-92
2.74433	-90
2.74800	-87
2.75167	-82
2.75533	-76
2.75900	-71
2.76267	-66
2.76633	-64
2.77000	-62
2.77367	-61
2.77733	-58
2.78100	-53
2.78467	-50
2.78833	-45
2.79200	-41
2.79567	-36
2.79933	-34
2.80300	-34
2.80667	-32
2.81033	-24
2.81400	-14
2.81767	13
2.82133	81
2.82500	230
2.82867	517
2.83233	1013
2.83600	1781
2.83967	2859
2.84333	4253
2.84700	5928
2.85067	7799
2.85433	9747
2.85800	11627
2.86167	13299
2.86533	14644
2.86900	15567
2.87267	16033
2.87633	16057
2.88000	15690
2.88367	15011
2.88733	14107
2.89100	13063
2.89467	11948
2.89833	10820
2.90200	9718
2.90567	8672
2.90933	7694
2.91300	6798
2.91667	5981
2.92033	5245
2.92400	4589
2.92767	4006
2.93133	3491
2.93500	3036
2.93867	2638
2.94233	2288
2.94600	1984
2.94967	1718
2.95333	1485
2.95700	1283
2.96067	1106
2.96433	955
2.96800	827
2.97167	715
2.97533	618
2.97900	534
2.98267	463
2.98633	402
2.99000	349
2.99367	302
2.99733	265
3.00100	232
3.00467	204
3.00833	181
3.01200	161
3.01567	144
3.01933	129
3.02300	114
3.02667	102
3.03033	91
3.03400	83
3.03767	77
3.04133	74
3.04500	70
3.04867	65
3.05233	59
3.05600	55
3.05967	55
3.06333	55
3.06700	53
3.07067	50
3.07433	48
3.07800	46
3.08167	46
3.08533	46
3.08900	45
3.09267	42
3.09633	43
3.10000	44
3.10367	44
3.10733	44
3.11100	42
3.11467	40
3.11833	40
3.12200	41
3.12567	41
3.12933	41
3.13300	39
3.13667	36
3.14033	37
3.14400	37
3.14767	38
3.15133	40
3.15500	42
3.15867	42
3.16233	40
3.16600	37
3.16967	36
3.17333	36
3.17700	37
3.18067	38
3.18433	40
3.18800	39
3.19167	37
3.19533	36
3.19900	36
3.20267	35
3.20633	35
3.21000	35
3.21367	36
3.21733	35
3.22100	35
3.22467	35
3.22833	35
3.23200	34
3.23567	32
3.23933	30
3.24300	28
3.24667	29
3.25033	30
3.25400	31
3.25767	30
3.26133	29
3.26500	30
3.26867	29
3.27233	28
3.27600	29
3.27967	32
3.28333	33
3.28700	31
3.29067	28
3.29433	26
3.29800	25
3.30167	20
3.30533	19
3.30900	17
3.31267	15
3.31633	15
3.32000	15
3.32367	16
3.32733	16
3.33100	13
3.33467	12
3.33833	13
3.34200	12
3.34567	12
3.34933	11
3.35300	10
3.35667	9
3.36033	6
3.36400	6
3.36767	7
3.37133	9
3.37500	9
3.37867	7
3.38233	7
3.38600	7
3.38967	5
3.39333	3
3.39700	1
3.40067	-1
3.40433	0
3.40800	0
3.41167	-0
3.41533	-2
3.41900	-3
3.42267	-5
3.42633	-8
3.43000	-8
3.43367	-6
3.43733	-6
3.44100	-8
3.44467	-9
3.44833	-10
3.45200	-12
3.45567	-14
3.45933	-16
3.46300	-20
3.46667	-20
3.47033	-18
3.47400	-17
3.47767	-15
3.48133	-15
3.48500	-15
3.48867	-12
3.49233	-12
3.49600	-13
3.49967	-16
3.50333	-20
3.50700	-23
3.51067	-23
3.51433	-23
3.51800	-23
3.52167	-23
3.52533	-26
3.52900	-27
3.53267	-28
3.53633	-27
3.54000	-27
3.54367	-28
3.54733	-29
3.55100	-29
3.55467	-28
3.55833	-29
3.56200	-30
3.56567	-33
3.56933	-35
3.57300	-35
3.57667	-35
3.58033	-34
3.58400	-35
3.58767	-35
3.59133	-36
3.59500	-35
3.59867	-34
3.60233	-34
3.60600	-35
3.60967	-37
3.61333	-38
3.61700	-40
3.62067	-40
3.62433	-41
3.62800	-45
3.63167	-48
3.63533	-49
3.63900	-51
3.64267	-53
3.64633	-53
3.65000	-53
3.65367	-52
3.65733	-50
3.66100	-47
3.66467	-45
3.66833	-46
3.67200	-49
3.67567	-51
3.67933	-54
3.68300	-54
3.68667	-53
3.69033	-52
3.69400	-53
3.69767	-53
3.70133	-53
3.70500	-54
3.70867	-56
3.71233	-55
3.71600	-55
3.71967	-57
3.72333	-57
3.72700	-55
3.73067	-56
3.73433	-57
3.73800	-57
3.74167	-57
3.74533	-57
3.74900	-57
3.75267	-57
3.75633	-57
3.76000	-61
3.76367	-64
3.76733	-64
3.77100	-64
3.77467	-63
3.77833	-64
3.78200	-65
3.78567	-66
3.78933	-66
3.79300	-65
3.79667	-65
3.80033	-65
3.80400	-64
3.80767	-66
3.81133	-67
3.81500	-65
3.81867	-64
3.82233	-63
3.82600	-62
3.82967	-63
3.83333	-65
3.83700	-65
3.84067	-65
3.84433	-65
3.84800	-65
3.85167	-64
3.85533	-66
3.85900	-68
3.86267	-69
3.86633	-70
3.87000	-71
3.87367	-70
3.87733	-71
3.88100	-73
3.88467	-75
3.88833	-75
3.89200	-77
3.89567	-77
3.89933	-77
3.90300	-77
3.90667	-80
3.91033	-79
3.91400	-77
3.91767	-75
3.92133	-77
3.92500	-79
3.92867	-80
3.93233	-81
3.93600	-81
3.93967	-80
3.94333	-77
3.94700	-76
3.95067	-78
3.95433	-80
3.95800	-82
3.96167	-85
3.96533	-89
3.96900	-91
3.97267	-90
3.97633	-89
3.98000	-87
3.98367	-86
3.98733	-87
3.99100	-89
3.99467	-91
3.99833	-96

[Status Trace (Column Oven Temperature)]
Interval(msec)	1000
# of Points	240
Start Time(min)	0.003
End Time(min)	3.986
Intensity Units	
Intensity Multiplier	1
R.Time (min)	Intensity
0.00260	35.03
0.01927	35.02
0.03593	35.01
0.05260	35.00
0.06927	35.02
0.08593	35.02
0.10260	35.02
0.11927	35.01
0.13593	35.00
0.15260	34.99
0.16927	34.99
0.18593	34.98
0.20260	34.98
0.21927	34.98
0.23593	34.99
0.25260	35.00
0.26927	35.00
0.28593	34.99
0.30260	34.99
0.31927	34.98
0.33593	34.97
0.35260	34.98
0.36927	34.98
0.38593	34.98
0.40260	35.00
0.41927	35.02
0.43593	35.03
0.45260	35.02
0.46927	35.02
0.48593	35.02
0.50260	35.01
0.51927	35.00
0.53593	35.02
0.55260	35.01
0.56927	35.02
0.58593	35.02
0.60260	35.01
0.61927	35.00
0.63593	35.00
0.65260	35.00
0.66927	35.00
0.68593	35.01
0.70260	35.01
0.71927	34.98
0.73593	34.97
0.75260	34.97
0.76927	34.97
0.78593	34.96
0.80260	34.97
0.81927	34.97
0.83593	34.97
0.85260	34.98
0.86927	34.99
0.88593	34.99
0.90260	34.99
0.91927	34.99
0.93593	34.98
0.95260	34.98
0.96927	34.97
0.98593	34.96
1.00260	34.98
1.01927	34.99
1.03593	35.00
1.05260	35.01
1.06927	35.01
1.08593	35.00
1.10260	35.00
1.11927	35.01
1.13593	35.02
1.15260	35.02
1.16927	35.00
1.18593	34.99
1.20260	35.00
1.21927	35.00
1.23593	34.99
1.25260	34.97
1.26927	34.98
1.28593	34.97
1.30260	34.97
1.31927	34.98
1.33593	34.99
1.35260	34.99
1.36927	34.98
1.38593	34.98
1.40260	34.99
1.41927	34.99
1.43593	34.99
1.45260	34.99
1.46927	35.01
1.48593	35.02
1.50260	35.02
1.51927	35.01
1.53593	35.01
1.55260	35.00
1.56927	34.99
1.58593	34.99
1.60260	35.02
1.61927	35.12
1.63593	35.28
1.65260	35.51
1.66927	35.83
1.68593	36.20
1.70260	36.55
1.71927	36.91
1.73593	37.23
1.75260	37.55
1.76927	37.89
1.78593	38.23
1.80260	38.55
1.81927	38.87
1.83593	39.21
1.85260	39.54
1.86927	39.88
1.88593	40.20
1.90260	40.53
1.91927	40.86
1.93593	41.19
1.95260	41.52
1.96927	41.85
1.98593	42.15
2.00260	42.48
2.01927	42.82
2.03593	43.14
2.05260	43.48
2.06927	43.79
2.08593	44.12
2.10260	44.46
2.11927	44.78
2.13593	45.09
2.15260	45.43
2.16927	45.77
2.18593	46.10
2.20260	46.44
2.21927	46.75
2.23593	47.10
2.25260	47.43
2.26927	47.76
2.28593	48.09
2.30260	48.39
2.31927	48.74
2.33593	49.05
2.35260	49.36
2.36927	49.58
2.38593	49.69
2.40260	49.69
2.41927	49.71
2.43593	49.73
2.45260	49.72
2.46927	49.74
2.48593	49.75
2.50260	49.75
2.51927	49.77
2.53593	49.78
2.55260	49.81
2.56927	49.81
2.58593	49.81
2.60260	49.82
2.61927	49.84
2.63593	49.84
2.65260	49.85
2.66927	49.86
2.68593	49.86
2.70260	49.86
2.71927	49.85
2.73593	49.84
2.75260	49.88
2.76927	49.90
2.78593	49.90
2.80260	49.90
2.81927	49.90
2.83593	49.91
2.85260	49.92
2.86927	49.93
2.88593	49.94
2.90260	49.97
2.91927	49.99
2.93593	50.00
2.95260	50.01
2.96927	50.02
2.98593	50.02
3.00260	50.02
3.01927	50.02
3.03593	50.02
3.05260	50.02
3.06927	50.03
3.08593	50.03
3.10260	50.04
3.11927	50.04
3.13593	50.04
3.15260	50.06
3.16927	50.06
3.18593	50.07
3.20260	50.07
3.21927	50.08
3.23593	50.10
3.25260	50.10
3.26927	50.10
3.28593	50.10
3.30260	50.09
3.31927	50.08
3.33593	50.07
3.35260	50.07
3.36927	50.07
3.38593	50.07
3.40260	50.07
3.41927	50.06
3.43593	50.06
3.45260	50.06
3.46927	50.05
3.48593	50.05
3.50260	50.05
3.51927	50.04
3.53593	50.04
3.55260	50.05
3.56927	50.05
3.58593	50.06
3.60260	50.07
3.61927	50.07
3.63593	50.09
3.65260	50.09
3.66927	50.09
3.68593	50.08
3.70260	50.08
3.71927	50.08
3.73593	50.08
3.75260	50.08
3.76927	50.09
3.78593	50.08
3.80260	50.08
3.81927	50.08
3.83593	50.09
3.85260	50.09
3.86927	50.09
3.88593	50.09
3.90260	50.10
3.91927	50.10
3.93593	50.09
3.95260	50.10
3.96927	50.09
3.98593	50.09

[Status Trace (Injection Unit Temperature)]
Interval(msec)	1000
# of Points	240
Start Time(min)	0.003
End Time(min)	3.986
Intensity Units	
Intensity Multiplier	1
R.Time (min)	Intensity
0.00260	100.00
0.01927	100.00
0.03593	100.00
0.05260	100.00
0.06927	100.00
0.08593	100.00
0.10260	100.00
0.11927	100.00
0.13593	100.00
0.15260	100.00
0.16927	100.00
0.18593	100.00
0.20260	100.00
0.21927	100.00
0.23593	100.00
0.25260	100.00
0.26927	100.00
0.28593	100.00
0.30260	100.00
0.31927	100.00
0.33593	100.00
0.35260	100.00
0.36927	100.00
0.38593	100.00
0.40260	100.00
0.41927	100.00
0.43593	100.00
0.45260	100.00
0.46927	100.00
0.48593	100.00
0.50260	100.00
0.51927	99.99
0.53593	100.00
0.55260	100.00
0.56927	100.00
0.58593	100.00
0.60260	100.00
0.61927	99.99
0.63593	100.00
0.65260	100.00
0.66927	100.00
0.68593	100.00
0.70260	100.00
0.71927	99.99
0.73593	100.00
0.75260	100.00
0.76927	100.00
0.78593	100.00
0.80260	100.00
0.81927	100.00
0.83593	100.00
0.85260	100.00
0.86927	99.99
0.88593	100.00
0.90260	100.00
0.91927	100.00
0.93593	100.00
0.95260	100.00
0.96927	100.00
0.98593	100.00
1.00260	100.00
1.01927	100.00
1.03593	100.00
1.05260	100.00
1.06927	100.00
1.08593	100.00
1.10260	100.00
1.11927	100.00
1.13593	100.00
1.15260	100.00
1.16927	100.00
1.18593	100.00
1.20260	100.00
1.21927	100.00
1.23593	100.00
1.25260	100.00
1.26927	100.00
1.28593	100.00
1.30260	100.00
1.31927	100.00
1.33593	100.00
1.35260	100.00
1.36927	100.00
1.38593	100.00
1.40260	100.00
1.41927	100.00
1.43593	100.00
1.45260	100.00
1.46927	100.00
1.48593	100.00
1.50260	100.00
1.51927	100.00
1.53593	100.00
1.55260	100.00
1.56927	100.00
1.58593	100.00
1.60260	100.00
1.61927	100.00
1.63593	100.00
1.65260	100.00
1.66927	100.00
1.68593	100.00
1.70260	100.00
1.71927	100.00
1.73593	100.00
1.75260	100.00
1.76927	100.00
1.78593	100.00
1.80260	100.00
1.81927	99.99
1.83593	100.00
1.85260	100.00
1.86927	99.99
1.88593	100.00
1.90260	99.99
1.91927	99.99
1.93593	99.99
1.95260	99.99
1.96927	99.99
1.98593	99.99
2.00260	99.99
2.01927	99.99
2.03593	99.98
2.05260	99.98
2.06927	99.98
2.08593	99.99
2.10260	99.98
2.11927	99.98
2.13593	99.98
2.15260	99.98
2.16927	99.98
2.18593	99.98
2.20260	99.98
2.21927	99.98
2.23593	99.98
2.25260	99.98
2.26927	99.98
2.28593	99.98
2.30260	99.98
2.31927	99.98
2.33593	99.98
2.35260	99.98
2.36927	99.98
2.38593	99.98
2.40260	99.98
2.41927	99.98
2.43593	99.98
2.45260	99.98
2.46927	99.99
2.48593	99.99
2.50260	99.99
2.51927	99.99
2.53593	99.99
2.55260	100.00
2.56927	99.99
2.58593	100.00
2.60260	100.00
2.61927	100.00
2.63593	100.00
2.65260	100.00
2.66927	100.00
2.68593	100.00
2.70260	100.00
2.71927	100.01
2.73593	100.00
2.75260	100.01
2.76927	100.00
2.78593	100.01
2.80260	100.01
2.81927	100.01
2.83593	100.02
2.85260	100.02
2.86927	100.01
2.88593	100.02
2.90260	100.02
2.91927	100.02
2.93593	100.02
2.95260	100.02
2.96927	100.02
2.98593	100.02
3.00260	100.02
3.01927	100.03
3.03593	100.02
3.05260	100.02
3.06927	100.03
3.08593	100.03
3.10260	100.03
3.11927	100.03
3.13593	100.03
3.15260	100.04
3.16927	100.03
3.18593	100.04
3.20260	100.04
3.21927	100.04
3.23593	100.04
3.25260	100.04
3.26927	100.04
3.28593	100.04
3.30260	100.04
3.31927	100.04
3.33593	100.04
3.35260	100.04
3.36927	100.05
3.38593	100.05
3.40260	100.05
3.41927	100.05
3.43593	100.05
3.45260	100.05
3.46927	100.05
3.48593	100.05
3.50260	100.06
3.51927	100.06
3.53593	100.06
3.55260	100.06
3.56927	100.06
3.58593	100.06
3.60260	100.06
3.61927	100.06
3.63593	100.07
3.65260	100.06
3.66927	100.07
3.68593	100.06
3.70260	100.07
3.71927	100.07
3.73593	100.07
3.75260	100.06
3.76927	100.07
3.78593	100.07
3.80260	100.07
3.81927	100.07
3.83593	100.07
3.85260	100.07
3.86927	100.07
3.88593	100.07
3.90260	100.08
3.91927	100.07
3.93593	100.07
3.95260	100.08
3.96927	100.07
3.98593	100.07

[Status Trace (Carrier Gas Pressure)]
Interval(msec)	1000
# of Points	240
Start Time(min)	0.003
End Time(min)	3.986
Intensity Units	
Intensity Multiplier	1
R.Time (min)	Intensity
0.00260	58.00
0.01927	56.23
0.03593	56.34
0.05260	58.47
0.06927	59.91
0.08593	58.33
0.10260	57.97
0.11927	58.01
0.13593	58.01
0.15260	58.01
0.16927	58.00
0.18593	58.00
0.20260	58.00
0.21927	58.00
0.23593	58.00
0.25260	58.00
0.26927	58.00
0.28593	58.00
0.30260	58.00
0.31927	58.00
0.33593	58.00
0.35260	58.00
0.36927	58.00
0.38593	58.00
0.40260	58.00
0.41927	58.00
0.43593	58.00
0.45260	58.00
0.46927	58.00
0.48593	58.00
0.50260	58.00
0.51927	58.00
0.53593	58.00
0.55260	58.00
0.56927	58.00
0.58593	58.00
0.60260	58.00
0.61927	58.00
0.63593	58.00
0.65260	58.00
0.66927	58.00
0.68593	58.00
0.70260	58.00
0.71927	58.00
0.73593	58.00
0.75260	58.00
0.76927	58.00
0.78593	58.00
0.80260	58.00
0.81927	58.00
0.83593	58.00
0.85260	58.00
0.86927	58.00
0.88593	58.00
0.90260	58.00
0.91927	58.00
0.93593	58.00
0.95260	58.00
0.96927	58.00
0.98593	58.00
1.00260	58.00
1.01927	58.00
1.03593	58.00
1.05260	58.00
1.06927	58.00
1.08593	58.00
1.10260	58.00
1.11927	58.00
1.13593	58.00
1.15260	58.00
1.16927	58.00
1.18593	58.00
1.20260	58.00
1.21927	58.00
1.23593	58.00
1.25260	58.00
1.26927	58.00
1.28593	58.00
1.30260	58.00
1.31927	58.00
1.33593	58.00
1.35260	58.00
1.36927	58.00
1.38593	58.00
1.40260	58.00
1.41927	58.00
1.43593	58.00
1.45260	58.00
1.46927	58.00
1.48593	58.00
1.50260	58.00
1.51927	58.00
1.53593	58.00
1.55260	58.00
1.56927	58.00
1.58593	58.00
1.60260	58.00
1.61927	58.00
1.63593	58.00
1.65260	58.01
1.66927	58.01
1.68593	58.00
1.70260	58.00
1.71927	58.00
1.73593	58.00
1.75260	58.00
1.76927	58.00
1.78593	58.00
1.80260	58.00
1.81927	58.00
1.83593	58.00
1.85260	58.00
1.86927	58.00
1.88593	58.00
1.90260	58.00
1.91927	58.00
1.93593	58.00
1.95260	58.00
1.96927	58.00
1.98593	58.00
2.00260	58.00
2.01927	58.00
2.03593	58.00
2.05260	58.00
2.06927	58.00
2.08593	58.00
2.10260	58.00
2.11927	58.00
2.13593	58.00
2.15260	58.00
2.16927	58.00
2.18593	58.00
2.20260	58.00
2.21927	58.00
2.23593	58.00
2.25260	58.00
2.26927	58.00
2.28593	58.00
2.30260	58.00
2.31927	58.00
2.33593	58.00
2.35260	58.00
2.36927	58.00
2.38593	57.99
2.40260	57.99
2.41927	58.00
2.43593	58.00
2.45260	58.00
2.46927	58.00
2.48593	58.00
2.50260	57.99
2.51927	58.02
2.53593	57.99
2.55260	58.00
2.56927	58.00
2.58593	58.00
2.60260	58.00
2.61927	58.00
2.63593	58.00
2.65260	58.00
2.66927	58.00
2.68593	58.00
2.70260	58.00
2.71927	58.00
2.73593	58.00
2.75260	58.00
2.76927	58.00
2.78593	58.00
2.80260	58.00
2.81927	58.00
2.83593	58.00
2.85260	58.00
2.86927	58.00
2.88593	58.00
2.90260	58.00
2.91927	58.00
2.93593	58.00
2.95260	58.00
2.96927	58.00
2.98593	58.00
3.00260	58.00
3.01927	58.00
3.03593	58.00
3.05260	58.00
3.06927	58.00
3.08593	58.00
3.10260	58.00
3.11927	58.00
3.13593	58.00
3.15260	58.00
3.16927	58.00
3.18593	58.00
3.20260	58.00
3.21927	58.00
3.23593	58.00
3.25260	58.00
3.26927	58.00
3.28593	58.00
3.30260	58.00
3.31927	58.00
3.33593	58.00
3.35260	58.00
3.36927	58.00
3.38593	58.00
3.40260	58.00
3.41927	58.00
3.43593	58.00
3.45260	58.00
3.46927	58.00
3.48593	58.00
3.50260	58.00
3.51927	58.00
3.53593	58.00
3.55260	58.00
3.56927	58.00
3.58593	58.00
3.60260	58.00
3.61927	58.00
3.63593	58.00
3.65260	58.00
3.66927	58.00
3.68593	58.00
3.70260	58.00
3.71927	58.00
3.73593	58.00
3.75260	58.00
3.76927	58.00
3.78593	58.00
3.80260	58.00
3.81927	58.00
3.83593	58.00
3.85260	58.00
3.86927	58.00
3.88593	58.00
3.90260	58.00
3.91927	58.00
3.93593	58.00
3.95260	58.00
3.96927	58.00
3.98593	58.00

[Status Trace (Carrier Gas Flow)]
Interval(msec)	1000
# of Points	240
Start Time(min)	0.003
End Time(min)	3.986
Intensity Units	
Intensity Multiplier	1
R.Time (min)	Intensity
0.00260	34.52
0.01927	34.58
0.03593	34.54
0.05260	34.55
0.06927	34.49
0.08593	34.50
0.10260	34.52
0.11927	34.52
0.13593	34.52
0.15260	34.52
0.16927	34.52
0.18593	34.52
0.20260	34.52
0.21927	34.52
0.23593	34.52
0.25260	34.52
0.26927	34.52
0.28593	34.52
0.30260	34.52
0.31927	34.52
0.33593	34.52
0.35260	34.52
0.36927	34.52
0.38593	34.52
0.40260	34.52
0.41927	34.52
0.43593	34.52
0.45260	34.52
0.46927	34.52
0.48593	34.52
0.50260	34.52
0.51927	34.52
0.53593	34.52
0.55260	34.52
0.56927	34.52
0.58593	34.52
0.60260	34.52
0.61927	34.52
0.63593	34.52
0.65260	34.52
0.66927	34.52
0.68593	34.52
0.70260	34.52
0.71927	34.52
0.73593	34.52
0.75260	34.52
0.76927	34.52
0.78593	34.52
0.80260	34.52
0.81927	34.52
0.83593	34.52
0.85260	34.52
0.86927	34.52
0.88593	34.52
0.90260	34.52
0.91927	34.52
0.93593	34.52
0.95260	34.52
0.96927	34.52
0.98593	34.52
1.00260	34.52
1.01927	34.52
1.03593	34.52
1.05260	34.52
1.06927	34.52
1.08593	34.52
1.10260	34.52
1.11927	34.52
1.13593	34.52
1.15260	34.52
1.16927	34.52
1.18593	34.52
1.20260	34.52
1.21927	34.52
1.23593	34.52
1.25260	34.52
1.26927	34.52
1.28593	34.52
1.30260	34.52
1.31927	34.52
1.33593	34.52
1.35260	34.52
1.36927	34.52
1.38593	34.52
1.40260	34.52
1.41927	34.52
1.43593	34.52
1.45260	34.52
1.46927	34.52
1.48593	34.52
1.50260	34.52
1.51927	34.52
1.53593	34.52
1.55260	34.52
1.56927	34.52
1.58593	34.52
1.60260	34.52
1.61927	34.52
1.63593	34.52
1.65260	34.52
1.66927	34.52
1.68593	34.52
1.70260	34.52
1.71927	34.52
1.73593	34.52
1.75260	34.52
1.76927	34.52
1.78593	34.52
1.80260	34.52
1.81927	34.52
1.83593	34.52
1.85260	34.52
1.86927	34.52
1.88593	34.52
1.90260	34.52
1.91927	34.52
1.93593	34.52
1.95260	34.52
1.96927	34.52
1.98593	34.52
2.00260	34.52
2.01927	34.52
2.03593	34.52
2.05260	34.52
2.06927	34.52
2.08593	34.52
2.10260	34.52
2.11927	34.52
2.13593	34.52
2.15260	34.52
2.16927	34.52
2.18593	34.52
2.20260	34.52
2.21927	34.52
2.23593	34.52
2.25260	34.52
2.26927	34.52
2.28593	34.52
2.30260	34.52
2.31927	34.52
2.33593	34.52
2.35260	34.52
2.36927	34.52
2.38593	34.52
2.40260	34.52
2.41927	34.52
2.43593	34.52
2.45260	34.52
2.46927	34.52
2.48593	34.52
2.50260	34.56
2.51927	34.52
2.53593	34.52
2.55260	34.52
2.56927	34.52
2.58593	34.52
2.60260	34.52
2.61927	34.52
2.63593	34.52
2.65260	34.52
2.66927	34.52
2.68593	34.52
2.70260	34.52
2.71927	34.51
2.73593	34.52
2.75260	34.52
2.76927	34.51
2.78593	34.51
2.80260	34.51
2.81927	34.52
2.83593	34.52
2.85260	34.52
2.86927	34.52
2.88593	34.52
2.90260	34.52
2.91927	34.52
2.93593	34.52
2.95260	34.52
2.96927	34.52
2.98593	34.52
3.00260	34.52
3.01927	34.52
3.03593	34.52
3.05260	34.52
3.06927	34.52
3.08593	34.52
3.10260	34.52
3.11927	34.52
3.13593	34.52
3.15260	34.52
3.16927	34.52
3.18593	34.52
3.20260	34.52
3.21927	34.52
3.23593	34.52
3.25260	34.52
3.26927	34.52
3.28593	34.52
3.30260	34.52
3.31927	34.52
3.33593	34.52
3.35260	34.52
3.36927	34.52
3.38593	34.52
3.40260	34.52
3.41927	34.52
3.43593	34.52
3.45260	34.52
3.46927	34.52
3.48593	34.52
3.50260	34.52
3.51927	34.52
3.53593	34.52
3.55260	34.52
3.56927	34.52
3.58593	34.52
3.60260	34.52
3.61927	34.52
3.63593	34.52
3.65260	34.52
3.66927	34.52
3.68593	34.52
3.70260	34.52
3.71927	34.52
3.73593	34.52
3.75260	34.52
3.76927	34.52
3.78593	34.52
3.80260	34.52
3.81927	34.52
3.83593	34.52
3.85260	34.52
3.86927	34.52
3.88593	34.52
3.90260	34.52
3.91927	34.52
3.93593	34.52
3.95260	34.52
3.96927	34.52
3.98593	34.52

[Status Trace (Column Flow)]
Interval(msec)	1000
# of Points	240
Start Time(min)	0.003
End Time(min)	3.986
Intensity Units	
Intensity Multiplier	1
R.Time (min)	Intensity
0.00260	5.49
0.01927	5.29
0.03593	5.30
0.05260	5.55
0.06927	5.72
0.08593	5.53
0.10260	5.49
0.11927	5.50
0.13593	5.50
0.15260	5.50
0.16927	5.50
0.18593	5.50
0.20260	5.50
0.21927	5.50
0.23593	5.50
0.25260	5.50
0.26927	5.50
0.28593	5.50
0.30260	5.50
0.31927	5.50
0.33593	5.50
0.35260	5.50
0.36927	5.50
0.38593	5.50
0.40260	5.49
0.41927	5.49
0.43593	5.49
0.45260	5.49
0.46927	5.49
0.48593	5.49
0.50260	5.49
0.51927	5.49
0.53593	5.49
0.55260	5.49
0.56927	5.49
0.58593	5.49
0.60260	5.49
0.61927	5.49
0.63593	5.49
0.65260	5.49
0.66927	5.49
0.68593	5.49
0.70260	5.49
0.71927	5.49
0.73593	5.50
0.75260	5.50
0.76927	5.50
0.78593	5.50
0.80260	5.50
0.81927	5.50
0.83593	5.50
0.85260	5.50
0.86927	5.50
0.88593	5.49
0.90260	5.49
0.91927	5.50
0.93593	5.50
0.95260	5.50
0.96927	5.50
0.98593	5.50
1.00260	5.50
1.01927	5.49
1.03593	5.49
1.05260	5.49
1.06927	5.49
1.08593	5.49
1.10260	5.49
1.11927	5.49
1.13593	5.49
1.15260	5.49
1.16927	5.49
1.18593	5.49
1.20260	5.49
1.21927	5.49
1.23593	5.50
1.25260	5.50
1.26927	5.50
1.28593	5.50
1.30260	5.50
1.31927	5.50
1.33593	5.50
1.35260	5.49
1.36927	5.50
1.38593	5.50
1.40260	5.50
1.41927	5.49
1.43593	5.50
1.45260	5.49
1.46927	5.49
1.48593	5.49
1.50260	5.49
1.51927	5.49
1.53593	5.49
1.55260	5.49
1.56927	5.49
1.58593	5.49
1.60260	5.49
1.61927	5.49
1.63593	5.49
1.65260	5.48
1.66927	5.47
1.68593	5.46
1.70260	5.45
1.71927	5.44
1.73593	5.43
1.75260	5.42
1.76927	5.41
1.78593	5.39
1.80260	5.39
1.81927	5.38
1.83593	5.37
1.85260	5.35
1.86927	5.34
1.88593	5.33
1.90260	5.33
1.91927	5.32
1.93593	5.31
1.95260	5.30
1.96927	5.29
1.98593	5.28
2.00260	5.27
2.01927	5.26
2.03593	5.25
2.05260	5.24
2.06927	5.23
2.08593	5.22
2.10260	5.21
2.11927	5.20
2.13593	5.19
2.15260	5.18
2.16927	5.17
2.18593	5.16
2.20260	5.15
2.21927	5.14
2.23593	5.13
2.25260	5.13
2.26927	5.12
2.28593	5.11
2.30260	5.10
2.31927	5.09
2.33593	5.08
2.35260	5.07
2.36927	5.06
2.38593	5.06
2.40260	5.06
2.41927	5.06
2.43593	5.06
2.45260	5.06
2.46927	5.06
2.48593	5.06
2.50260	5.06
2.51927	5.06
2.53593	5.06
2.55260	5.06
2.56927	5.06
2.58593	5.06
2.60260	5.06
2.61927	5.06
2.63593	5.06
2.65260	5.06
2.66927	5.06
2.68593	5.06
2.70260	5.06
2.71927	5.06
2.73593	5.06
2.75260	5.06
2.76927	5.06
2.78593	5.06
2.80260	5.06
2.81927	5.06
2.83593	5.06
2.85260	5.06
2.86927	5.06
2.88593	5.06
2.90260	5.05
2.91927	5.05
2.93593	5.05
2.95260	5.05
2.96927	5.05
2.98593	5.05
3.00260	5.05
3.01927	5.05
3.03593	5.05
3.05260	5.05
3.06927	5.05
3.08593	5.05
3.10260	5.05
3.11927	5.05
3.13593	5.05
3.15260	5.05
3.16927	5.05
3.18593	5.05
3.20260	5.05
3.21927	5.05
3.23593	5.05
3.25260	5.05
3.26927	5.05
3.28593	5.05
3.30260	5.05
3.31927	5.05
3.33593	5.05
3.35260	5.05
3.36927	5.05
3.38593	5.05
3.40260	5.05
3.41927	5.05
3.43593	5.05
3.45260	5.05
3.46927	5.05
3.48593	5.05
3.50260	5.05
3.51927	5.05
3.53593	5.05
3.55260	5.05
3.56927	5.05
3.58593	5.05
3.60260	5.05
3.61927	5.05
3.63593	5.05
3.65260	5.05
3.66927	5.05
3.68593	5.05
3.70260	5.05
3.71927	5.05
3.73593	5.05
3.75260	5.05
3.76927	5.05
3.78593	5.05
3.80260	5.05
3.81927	5.05
3.83593	5.05
3.85260	5.05
3.86927	5.05
3.88593	5.05
3.90260	5.05
3.91927	5.05
3.93593	5.05
3.95260	5.05
3.96927	5.05
3.98593	5.05

[Status Trace (Linear Velocity)]
Interval(msec)	1000
# of Points	240
Start Time(min)	0.003
End Time(min)	3.986
Intensity Units	
Intensity Multiplier	1
R.Time (min)	Intensity
0.00260	39.01
0.01927	37.85
0.03593	37.92
0.05260	39.32
0.06927	40.26
0.08593	39.22
0.10260	38.99
0.11927	39.01
0.13593	39.02
0.15260	39.02
0.16927	39.01
0.18593	39.02
0.20260	39.01
0.21927	39.01
0.23593	39.01
0.25260	39.01
0.26927	39.01
0.28593	39.01
0.30260	39.01
0.31927	39.01
0.33593	39.01
0.35260	39.01
0.36927	39.01
0.38593	39.01
0.40260	39.01
0.41927	39.01
0.43593	39.01
0.45260	39.01
0.46927	39.01
0.48593	39.01
0.50260	39.01
0.51927	39.01
0.53593	39.01
0.55260	39.01
0.56927	39.01
0.58593	39.01
0.60260	39.01
0.61927	39.01
0.63593	39.01
0.65260	39.01
0.66927	39.01
0.68593	39.01
0.70260	39.01
0.71927	39.01
0.73593	39.01
0.75260	39.01
0.76927	39.01
0.78593	39.01
0.80260	39.01
0.81927	39.01
0.83593	39.01
0.85260	39.01
0.86927	39.01
0.88593	39.01
0.90260	39.01
0.91927	39.01
0.93593	39.01
0.95260	39.01
0.96927	39.01
0.98593	39.01
1.00260	39.01
1.01927	39.01
1.03593	39.01
1.05260	39.01
1.06927	39.01
1.08593	39.01
1.10260	39.01
1.11927	39.01
1.13593	39.01
1.15260	39.01
1.16927	39.01
1.18593	39.01
1.20260	39.01
1.21927	39.01
1.23593	39.01
1.25260	39.01
1.26927	39.01
1.28593	39.01
1.30260	39.01
1.31927	39.01
1.33593	39.01
1.35260	39.01
1.36927	39.01
1.38593	39.01
1.40260	39.01
1.41927	39.01
1.43593	39.01
1.45260	39.01
1.46927	39.01
1.48593	39.01
1.50260	39.01
1.51927	39.01
1.53593	39.01
1.55260	39.01
1.56927	39.01
1.58593	39.01
1.60260	39.01
1.61927	39.00
1.63593	38.99
1.65260	38.96
1.66927	38.93
1.68593	38.90
1.70260	38.86
1.71927	38.83
1.73593	38.80
1.75260	38.77
1.76927	38.74
1.78593	38.70
1.80260	38.67
1.81927	38.64
1.83593	38.61
1.85260	38.58
1.86927	38.55
1.88593	38.52
1.90260	38.49
1.91927	38.46
1.93593	38.42
1.95260	38.39
1.96927	38.36
1.98593	38.33
2.00260	38.31
2.01927	38.27
2.03593	38.24
2.05260	38.21
2.06927	38.18
2.08593	38.15
2.10260	38.12
2.11927	38.09
2.13593	38.07
2.15260	38.04
2.16927	38.00
2.18593	37.98
2.20260	37.94
2.21927	37.92
2.23593	37.88
2.25260	37.85
2.26927	37.83
2.28593	37.80
2.30260	37.77
2.31927	37.74
2.33593	37.71
2.35260	37.68
2.36927	37.66
2.38593	37.65
2.40260	37.65
2.41927	37.65
2.43593	37.65
2.45260	37.65
2.46927	37.65
2.48593	37.65
2.50260	37.64
2.51927	37.66
2.53593	37.64
2.55260	37.64
2.56927	37.64
2.58593	37.64
2.60260	37.64
2.61927	37.64
2.63593	37.64
2.65260	37.64
2.66927	37.64
2.68593	37.64
2.70260	37.64
2.71927	37.64
2.73593	37.64
2.75260	37.64
2.76927	37.64
2.78593	37.64
2.80260	37.64
2.81927	37.64
2.83593	37.63
2.85260	37.63
2.86927	37.63
2.88593	37.63
2.90260	37.63
2.91927	37.63
2.93593	37.63
2.95260	37.63
2.96927	37.62
2.98593	37.62
3.00260	37.62
3.01927	37.62
3.03593	37.63
3.05260	37.62
3.06927	37.62
3.08593	37.62
3.10260	37.62
3.11927	37.62
3.13593	37.62
3.15260	37.62
3.16927	37.62
3.18593	37.62
3.20260	37.62
3.21927	37.62
3.23593	37.62
3.25260	37.62
3.26927	37.62
3.28593	37.62
3.30260	37.62
3.31927	37.62
3.33593	37.62
3.35260	37.62
3.36927	37.62
3.38593	37.62
3.40260	37.62
3.41927	37.62
3.43593	37.62
3.45260	37.62
3.46927	37.62
3.48593	37.62
3.50260	37.62
3.51927	37.62
3.53593	37.62
3.55260	37.62
3.56927	37.62
3.58593	37.62
3.60260	37.62
3.61927	37.62
3.63593	37.62
3.65260	37.62
3.66927	37.62
3.68593	37.62
3.70260	37.62
3.71927	37.62
3.73593	37.62
3.75260	37.62
3.76927	37.62
3.78593	37.62
3.80260	37.62
3.81927	37.62
3.83593	37.62
3.85260	37.62
3.86927	37.62
3.88593	37.62
3.90260	37.62
3.91927	37.62
3.93593	37.62
3.95260	37.62
3.96927	37.62
3.98593	37.62

