[Header]
Application Name	LabSolutions
Version	5.110
Data File Name	C:\Users\User\Desktop\GC Analyses\Jack\UIC Prairie Sampling\7.9.22\220909_026.gcd
Output Date	9/28/2022
Output Time	11:29:50 AM

[File Information]
Type	Data File
Generated	9/13/2022 10:12:26 AM
Generated by	System Administrator
Modified	9/13/2022 10:16:50 AM
Modified by	System Administrator

[Sample Information]
Operator Name	System Administrator
Acquired	9/13/2022 10:12:49 AM
Sample Type	1:Standard
Level	1
Sample Name	220909_Run
Sample ID	220909_Run
ISTD Amount1	1
ISTD Amount2	1
ISTD Amount3	1
ISTD Amount4	1
ISTD Amount5	1
ISTD Amount6	1
ISTD Amount7	1
ISTD Amount8	1
ISTD Amount9	1
ISTD Amount10	1
ISTD Amount11	1
ISTD Amount12	1
ISTD Amount13	1
ISTD Amount14	1
ISTD Amount15	1
ISTD Amount16	1
ISTD Amount17	1
ISTD Amount18	1
ISTD Amount19	1
ISTD Amount20	1
ISTD Amount21	1
ISTD Amount22	1
ISTD Amount23	1
ISTD Amount24	1
ISTD Amount25	1
ISTD Amount26	1
ISTD Amount27	1
ISTD Amount28	1
ISTD Amount29	1
ISTD Amount30	1
ISTD Amount31	1
ISTD Amount32	1
Sample Amount	1
Dilution Factor	1
Vial#	1
Injection Volume	1
Injection Count	1
Bar Code	

[Original Files]
Data File	C:\Users\User\Desktop\GC Analyses\Jack\220909\220909_026.gcd
Method File	C:\LabSolutions\Data\GHG_4min_2022\ghg3_togas_w_acet_4 min_new_int.gcm
Batch File	
Report Format File	c:\LabSolutions\System\DEFAULT.lsr

[File Description]


[Configuration]
Instrument Name	C0B7VH3-Instrument1
Instrument #	1
Line #	1
# of Detectors	3
Detector ID	DET#1	DET#2	DET#3
Detector Name	FID	PTCD	ECD
# of Channels	1	1	1

[Peak Table(Ch1)]
# of Peaks	3
Peak#	R.Time	I.Time	F.Time	Area	Height	A/H	Conc.	Mark	ID#	Name	k'	Plate #	Plate Ht.	Tailing	Resolution	Sep.Factor	Area Ratio	Height Ratio	Conc. %	Norm Conc.
1	1.472	1.435	1.534	8930	3748	2.382	100.000	   	1	CO	0.000	7299	20.550	1.410	0.000	0.000	0	0	16.667	16.667
2	1.571	1.534	1.648	20427	10417	1.961	100.000	 V 	2	CH4	0.067	11605	12.926	1.199	1.556	0.000	0	0	16.667	16.667
3	2.000	1.952	2.315	2116577	1038365	2.038	400.000	   	3	CO2	0.359	17807	8.423	1.197	7.254	5.333	0	0	66.667	66.667

[Peak Table(Ch2)]
# of Peaks	0

[Peak Table(Ch3)]
# of Peaks	2
Peak#	R.Time	I.Time	F.Time	Area	Height	A/H	Conc.	Mark	ID#	Name	k'	Plate #	Plate Ht.	Tailing	Resolution	Sep.Factor	Area Ratio	Height Ratio	Conc. %	Norm Conc.
1	2.594	1.626	2.656	13856	946	14.650	0.000	   			0.000	1406	106.659	0.000	0.000	0.000	0	0	0.000	0.000
2	2.884	2.656	3.874	88219	15978	5.521	1.000	 V 	1	N2O	0.112	11510	13.033	0.975	1.508	0.000	0	0	100.000	100.000

[Compound Results(Ch1)]
# of IDs	6
ID#	Name	R.Time	Area	Height	Conc.	Curve	3rd	2nd	1st	Constant	Area Ratio	Height Ratio	Conc. %	Norm Conc.
1	CO	1.472	8930	3748	100.000	Linear	0.000000e+00	0.000000e+00	8.930061e+001	0.000000e+00	0	0	16.667	16.667
2	CH4	1.571	20427	10417	100.000	Linear	0.000000e+00	0.000000e+00	2.042717e+002	0.000000e+00	0	0	16.667	16.667
3	CO2	2.000	2116577	1038365	400.000	Linear	0.000000e+00	0.000000e+00	5.291443e+003	0.000000e+00	0	0	66.667	66.667
4	Ethylene	0.000	0	0	0.000	Linear	0.000000e+00	0.000000e+00	0.000000e+00	0.000000e+00	0	0	0.000	0.000
5	Acetylene	0.000	0	0	0.000	Linear	0.000000e+00	0.000000e+00	0.000000e+00	0.000000e+00	0	0	0.000	0.000
6	Ethane	0.000	0	0	0.000	Linear	0.000000e+00	0.000000e+00	0.000000e+00	0.000000e+00	0	0	0.000	0.000

[Compound Results(Ch2)]
# of IDs	5
ID#	Name	R.Time	Area	Height	Conc.	Curve	3rd	2nd	1st	Constant	Area Ratio	Height Ratio	Conc. %	Norm Conc.
1	Hydrogen	0.000	0	0	0.000	Linear	0.000000e+00	0.000000e+00	0.000000e+00	0.000000e+00	0	0	0.000	0.000
2	Oxygen	0.000	0	0	0.000	Linear	0.000000e+00	0.000000e+00	0.000000e+00	0.000000e+00	0	0	0.000	0.000
3	Nitrogen	0.000	0	0	0.000	Linear	0.000000e+00	0.000000e+00	0.000000e+00	0.000000e+00	0	0	0.000	0.000
4	Methane	0.000	0	0	0.000	Linear	0.000000e+00	0.000000e+00	0.000000e+00	0.000000e+00	0	0	0.000	0.000
5	Carbon Monoxide	0.000	0	0	0.000	Linear	0.000000e+00	0.000000e+00	0.000000e+00	0.000000e+00	0	0	0.000	0.000

[Compound Results(Ch3)]
# of IDs	2
ID#	Name	R.Time	Area	Height	Conc.	Curve	3rd	2nd	1st	Constant	Area Ratio	Height Ratio	Conc. %	Norm Conc.
1	N2O	2.884	88219	15978	1.000	Linear	0.000000e+00	0.000000e+00	8.821868e+004	0.000000e+00	0	0	100.000	100.000
2	SF6	0.000	0	0	0.000	Linear	0.000000e+00	0.000000e+00	0.000000e+00	0.000000e+00	0	0	0.000	0.000

[Group Results(Ch1)]
# of Groups	0

[Group Results(Ch2)]
# of Groups	0

[Group Results(Ch3)]
# of Groups	0

[Chromatogram (Ch1)]
Interval(msec)	220
# of Points	1091
Start Time(min)	0.002
End Time(min)	3.998
R.Time (min)	Intensity
0.00167	20
0.00533	19
0.00900	30
0.01267	44
0.01633	53
0.02000	57
0.02367	56
0.02733	53
0.03100	44
0.03467	32
0.03833	21
0.04200	13
0.04567	9
0.04933	9
0.05300	7
0.05667	4
0.06033	1
0.06400	0
0.06767	2
0.07133	7
0.07500	17
0.07867	26
0.08233	31
0.08600	30
0.08967	25
0.09333	20
0.09700	17
0.10067	15
0.10433	12
0.10800	13
0.11167	17
0.11533	24
0.11900	31
0.12267	39
0.12633	37
0.13000	29
0.13367	19
0.13733	10
0.14100	7
0.14467	12
0.14833	22
0.15200	33
0.15567	46
0.15933	52
0.16300	46
0.16667	38
0.17033	27
0.17400	20
0.17767	16
0.18133	16
0.18500	18
0.18867	20
0.19233	19
0.19600	16
0.19967	15
0.20333	19
0.20700	26
0.21067	30
0.21433	31
0.21800	31
0.22167	28
0.22533	23
0.22900	21
0.23267	25
0.23633	32
0.24000	39
0.24367	41
0.24733	40
0.25100	33
0.25467	25
0.25833	23
0.26200	23
0.26567	25
0.26933	30
0.27300	32
0.27667	22
0.28033	19
0.28400	11
0.28767	3
0.29133	-2
0.29500	-6
0.29867	-5
0.30233	-1
0.30600	7
0.30967	16
0.31333	23
0.31700	28
0.32067	31
0.32433	33
0.32800	35
0.33167	36
0.33533	35
0.33900	32
0.34267	28
0.34633	25
0.35000	24
0.35367	21
0.35733	15
0.36100	12
0.36467	15
0.36833	21
0.37200	29
0.37567	37
0.37933	46
0.38300	61
0.38667	65
0.39033	63
0.39400	59
0.39767	54
0.40133	46
0.40500	33
0.40867	24
0.41233	17
0.41600	13
0.41967	11
0.42333	7
0.42700	3
0.43067	-2
0.43433	-3
0.43800	1
0.44167	10
0.44533	22
0.44900	33
0.45267	38
0.45633	38
0.46000	36
0.46367	34
0.46733	32
0.47100	30
0.47467	27
0.47833	22
0.48200	18
0.48567	14
0.48933	12
0.49300	14
0.49667	17
0.50033	21
0.50400	27
0.50767	33
0.51133	36
0.51500	34
0.51867	34
0.52233	35
0.52600	33
0.52967	29
0.53333	24
0.53700	22
0.54067	19
0.54433	14
0.54800	11
0.55167	9
0.55533	8
0.55900	7
0.56267	5
0.56633	5
0.57000	5
0.57367	7
0.57733	11
0.58100	18
0.58467	23
0.58833	27
0.59200	30
0.59567	33
0.59933	31
0.60300	28
0.60667	25
0.61033	22
0.61400	20
0.61767	23
0.62133	29
0.62500	31
0.62867	24
0.63233	16
0.63600	8
0.63967	6
0.64333	11
0.64700	19
0.65067	24
0.65433	24
0.65800	24
0.66167	23
0.66533	19
0.66900	16
0.67267	17
0.67633	16
0.68000	15
0.68367	16
0.68733	18
0.69100	21
0.69467	24
0.69833	24
0.70200	23
0.70567	22
0.70933	20
0.71300	19
0.71667	17
0.72033	17
0.72400	21
0.72767	27
0.73133	30
0.73500	29
0.73867	24
0.74233	23
0.74600	24
0.74967	23
0.75333	22
0.75700	22
0.76067	27
0.76433	32
0.76800	34
0.77167	32
0.77533	27
0.77900	19
0.78267	14
0.78633	14
0.79000	16
0.79367	18
0.79733	20
0.80100	21
0.80467	19
0.80833	17
0.81200	13
0.81567	8
0.81933	6
0.82300	9
0.82667	16
0.83033	24
0.83400	29
0.83767	29
0.84133	28
0.84500	23
0.84867	18
0.85233	14
0.85600	13
0.85967	14
0.86333	16
0.86700	18
0.87067	19
0.87433	21
0.87800	28
0.88167	33
0.88533	32
0.88900	30
0.89267	31
0.89633	31
0.90000	28
0.90367	21
0.90733	14
0.91100	8
0.91467	3
0.91833	1
0.92200	3
0.92567	7
0.92933	11
0.93300	14
0.93667	18
0.94033	22
0.94400	23
0.94767	23
0.95133	22
0.95500	24
0.95867	28
0.96233	32
0.96600	37
0.96967	38
0.97333	36
0.97700	34
0.98067	31
0.98433	27
0.98800	26
0.99167	25
0.99533	26
0.99900	30
1.00267	34
1.00633	32
1.01000	29
1.01367	26
1.01733	24
1.02100	22
1.02467	20
1.02833	18
1.03200	19
1.03567	25
1.03933	31
1.04300	34
1.04667	35
1.05033	34
1.05400	32
1.05767	32
1.06133	33
1.06500	31
1.06867	28
1.07233	28
1.07600	29
1.07967	28
1.08333	27
1.08700	28
1.09067	28
1.09433	27
1.09800	27
1.10167	27
1.10533	25
1.10900	23
1.11267	24
1.11633	26
1.12000	28
1.12367	30
1.12733	33
1.13100	32
1.13467	29
1.13833	26
1.14200	27
1.14567	28
1.14933	28
1.15300	29
1.15667	31
1.16033	33
1.16400	32
1.16767	32
1.17133	32
1.17500	31
1.17867	32
1.18233	33
1.18600	34
1.18967	36
1.19333	40
1.19700	38
1.20067	30
1.20433	22
1.20800	17
1.21167	13
1.21533	11
1.21900	13
1.22267	17
1.22633	16
1.23000	11
1.23367	5
1.23733	0
1.24100	-3
1.24467	-4
1.24833	1
1.25200	8
1.25567	16
1.25933	22
1.26300	27
1.26667	33
1.27033	35
1.27400	33
1.27767	30
1.28133	28
1.28500	25
1.28867	18
1.29233	10
1.29600	2
1.29967	-5
1.30333	-8
1.30700	-7
1.31067	-4
1.31433	-3
1.31800	-1
1.32167	2
1.32533	6
1.32900	11
1.33267	16
1.33633	23
1.34000	28
1.34367	31
1.34733	31
1.35100	28
1.35467	25
1.35833	22
1.36200	16
1.36567	8
1.36933	7
1.37300	9
1.37667	12
1.38033	14
1.38400	15
1.38767	19
1.39133	27
1.39500	37
1.39867	43
1.40233	39
1.40600	34
1.40967	32
1.41333	30
1.41700	25
1.42067	18
1.42433	11
1.42800	12
1.43167	17
1.43533	19
1.43900	26
1.44267	87
1.44633	336
1.45000	871
1.45367	1595
1.45733	2335
1.46100	2959
1.46467	3410
1.46833	3680
1.47200	3755
1.47567	3638
1.47933	3361
1.48300	2982
1.48667	2556
1.49033	2128
1.49400	1728
1.49767	1373
1.50133	1068
1.50500	817
1.50867	616
1.51233	457
1.51600	330
1.51967	232
1.52333	155
1.52700	95
1.53067	50
1.53433	17
1.53800	17
1.54167	140
1.54533	619
1.54900	1723
1.55267	3461
1.55633	5497
1.56000	7420
1.56367	8964
1.56733	9998
1.57100	10390
1.57467	10010
1.57833	8887
1.58200	7290
1.58567	5585
1.58933	4050
1.59300	2816
1.59667	1894
1.60033	1242
1.60400	798
1.60767	505
1.61133	312
1.61500	186
1.61867	104
1.62233	50
1.62600	16
1.62967	-7
1.63333	-22
1.63700	-33
1.64067	-42
1.64433	-49
1.64800	-53
1.65167	-54
1.65533	-50
1.65900	-44
1.66267	-40
1.66633	-41
1.67000	-44
1.67367	-43
1.67733	-40
1.68100	-37
1.68467	-33
1.68833	-29
1.69200	-23
1.69567	-14
1.69933	-9
1.70300	-8
1.70667	-10
1.71033	-16
1.71400	-22
1.71767	-28
1.72133	-31
1.72500	-31
1.72867	-32
1.73233	-35
1.73600	-36
1.73967	-35
1.74333	-30
1.74700	-25
1.75067	-19
1.75433	-16
1.75800	-15
1.76167	-19
1.76533	-21
1.76900	-22
1.77267	-21
1.77633	-19
1.78000	-14
1.78367	-8
1.78733	-4
1.79100	-1
1.79467	-1
1.79833	-5
1.80200	-9
1.80567	-12
1.80933	-14
1.81300	-14
1.81667	-12
1.82033	-9
1.82400	-7
1.82767	-5
1.83133	-4
1.83500	-5
1.83867	-2
1.84233	1
1.84600	4
1.84967	7
1.85333	11
1.85700	11
1.86067	7
1.86433	5
1.86800	6
1.87167	10
1.87533	12
1.87900	9
1.88267	4
1.88633	4
1.89000	7
1.89367	7
1.89733	6
1.90100	4
1.90467	0
1.90833	-2
1.91200	-1
1.91567	2
1.91933	9
1.92300	17
1.92667	19
1.93033	14
1.93400	7
1.93767	1
1.94133	-2
1.94500	-3
1.94867	0
1.95233	9
1.95600	60
1.95967	378
1.96333	2110
1.96700	9387
1.97067	32727
1.97433	90344
1.97800	200191
1.98167	364380
1.98533	561804
1.98900	756722
1.99267	915014
1.99633	1013099
2.00000	1038404
2.00367	990341
2.00733	881521
2.01100	735188
2.01467	578041
2.01833	432141
2.02200	310327
2.02567	216301
2.02933	147758
2.03300	99777
2.03667	67121
2.04033	45300
2.04400	30873
2.04767	21372
2.05133	15099
2.05500	10926
2.05867	8114
2.06233	6187
2.06600	4840
2.06967	3881
2.07333	3187
2.07700	2678
2.08067	2298
2.08433	2003
2.08800	1768
2.09167	1580
2.09533	1425
2.09900	1298
2.10267	1195
2.10633	1107
2.11000	1031
2.11367	964
2.11733	906
2.12100	855
2.12467	812
2.12833	775
2.13200	742
2.13567	710
2.13933	672
2.14300	631
2.14667	591
2.15033	557
2.15400	534
2.15767	521
2.16133	515
2.16500	510
2.16867	499
2.17233	483
2.17600	464
2.17967	449
2.18333	435
2.18700	429
2.19067	424
2.19433	416
2.19800	406
2.20167	396
2.20533	384
2.20900	372
2.21267	364
2.21633	359
2.22000	353
2.22367	346
2.22733	337
2.23100	326
2.23467	314
2.23833	301
2.24200	294
2.24567	290
2.24933	290
2.25300	293
2.25667	299
2.26033	303
2.26400	304
2.26767	299
2.27133	289
2.27500	280
2.27867	272
2.28233	267
2.28600	264
2.28967	263
2.29333	261
2.29700	259
2.30067	255
2.30433	250
2.30800	246
2.31167	242
2.31533	239
2.31900	237
2.32267	236
2.32633	235
2.33000	235
2.33367	235
2.33733	234
2.34100	231
2.34467	230
2.34833	233
2.35200	235
2.35567	238
2.35933	239
2.36300	236
2.36667	227
2.37033	216
2.37400	208
2.37767	204
2.38133	199
2.38500	196
2.38867	194
2.39233	196
2.39600	198
2.39967	202
2.40333	206
2.40700	210
2.41067	213
2.41433	211
2.41800	208
2.42167	206
2.42533	206
2.42900	207
2.43267	206
2.43633	206
2.44000	207
2.44367	209
2.44733	211
2.45100	212
2.45467	209
2.45833	203
2.46200	197
2.46567	194
2.46933	193
2.47300	192
2.47667	190
2.48033	187
2.48400	183
2.48767	183
2.49133	188
2.49500	193
2.49867	198
2.50233	198
2.50600	189
2.50967	178
2.51333	169
2.51700	164
2.52067	159
2.52433	158
2.52800	156
2.53167	152
2.53533	150
2.53900	151
2.54267	156
2.54633	163
2.55000	171
2.55367	174
2.55733	171
2.56100	166
2.56467	162
2.56833	162
2.57200	164
2.57567	162
2.57933	160
2.58300	155
2.58667	151
2.59033	151
2.59400	156
2.59767	160
2.60133	161
2.60500	159
2.60867	154
2.61233	147
2.61600	139
2.61967	131
2.62333	126
2.62700	125
2.63067	128
2.63433	134
2.63800	140
2.64167	144
2.64533	149
2.64900	148
2.65267	144
2.65633	142
2.66000	144
2.66367	148
2.66733	153
2.67100	156
2.67467	156
2.67833	156
2.68200	156
2.68567	156
2.68933	156
2.69300	157
2.69667	159
2.70033	161
2.70400	162
2.70767	159
2.71133	157
2.71500	155
2.71867	156
2.72233	155
2.72600	150
2.72967	143
2.73333	139
2.73700	139
2.74067	140
2.74433	142
2.74800	144
2.75167	145
2.75533	142
2.75900	137
2.76267	134
2.76633	133
2.77000	136
2.77367	142
2.77733	148
2.78100	152
2.78467	151
2.78833	148
2.79200	143
2.79567	141
2.79933	142
2.80300	146
2.80667	149
2.81033	151
2.81400	157
2.81767	160
2.82133	162
2.82500	160
2.82867	150
2.83233	137
2.83600	136
2.83967	137
2.84333	138
2.84700	142
2.85067	144
2.85433	147
2.85800	153
2.86167	156
2.86533	154
2.86900	147
2.87267	136
2.87633	127
2.88000	125
2.88367	128
2.88733	128
2.89100	129
2.89467	131
2.89833	135
2.90200	140
2.90567	145
2.90933	146
2.91300	145
2.91667	142
2.92033	140
2.92400	138
2.92767	138
2.93133	137
2.93500	136
2.93867	132
2.94233	130
2.94600	130
2.94967	129
2.95333	128
2.95700	129
2.96067	135
2.96433	140
2.96800	144
2.97167	143
2.97533	142
2.97900	141
2.98267	149
2.98633	156
2.99000	159
2.99367	157
2.99733	154
3.00100	150
3.00467	147
3.00833	147
3.01200	144
3.01567	137
3.01933	135
3.02300	133
3.02667	132
3.03033	130
3.03400	131
3.03767	135
3.04133	139
3.04500	139
3.04867	137
3.05233	140
3.05600	139
3.05967	134
3.06333	130
3.06700	132
3.07067	134
3.07433	137
3.07800	138
3.08167	136
3.08533	132
3.08900	134
3.09267	136
3.09633	141
3.10000	145
3.10367	147
3.10733	147
3.11100	151
3.11467	155
3.11833	165
3.12200	171
3.12567	171
3.12933	166
3.13300	163
3.13667	161
3.14033	159
3.14400	159
3.14767	161
3.15133	159
3.15500	159
3.15867	160
3.16233	164
3.16600	166
3.16967	167
3.17333	165
3.17700	159
3.18067	153
3.18433	153
3.18800	155
3.19167	154
3.19533	157
3.19900	159
3.20267	161
3.20633	159
3.21000	157
3.21367	156
3.21733	154
3.22100	152
3.22467	150
3.22833	150
3.23200	150
3.23567	152
3.23933	153
3.24300	154
3.24667	155
3.25033	156
3.25400	156
3.25767	156
3.26133	156
3.26500	157
3.26867	156
3.27233	159
3.27600	160
3.27967	163
3.28333	163
3.28700	163
3.29067	161
3.29433	164
3.29800	166
3.30167	166
3.30533	171
3.30900	175
3.31267	173
3.31633	166
3.32000	155
3.32367	140
3.32733	131
3.33100	127
3.33467	122
3.33833	120
3.34200	121
3.34567	126
3.34933	129
3.35300	128
3.35667	125
3.36033	130
3.36400	134
3.36767	142
3.37133	150
3.37500	156
3.37867	162
3.38233	167
3.38600	168
3.38967	163
3.39333	157
3.39700	148
3.40067	141
3.40433	135
3.40800	132
3.41167	138
3.41533	148
3.41900	155
3.42267	159
3.42633	158
3.43000	159
3.43367	162
3.43733	160
3.44100	158
3.44467	157
3.44833	154
3.45200	150
3.45567	148
3.45933	153
3.46300	156
3.46667	159
3.47033	162
3.47400	163
3.47767	167
3.48133	169
3.48500	165
3.48867	165
3.49233	164
3.49600	162
3.49967	157
3.50333	151
3.50700	150
3.51067	154
3.51433	156
3.51800	157
3.52167	160
3.52533	163
3.52900	164
3.53267	162
3.53633	158
3.54000	162
3.54367	161
3.54733	158
3.55100	156
3.55467	160
3.55833	167
3.56200	170
3.56567	170
3.56933	167
3.57300	167
3.57667	165
3.58033	164
3.58400	165
3.58767	162
3.59133	162
3.59500	161
3.59867	161
3.60233	158
3.60600	156
3.60967	155
3.61333	151
3.61700	148
3.62067	145
3.62433	144
3.62800	145
3.63167	149
3.63533	156
3.63900	163
3.64267	169
3.64633	167
3.65000	162
3.65367	158
3.65733	158
3.66100	164
3.66467	171
3.66833	175
3.67200	184
3.67567	189
3.67933	186
3.68300	181
3.68667	178
3.69033	181
3.69400	177
3.69767	172
3.70133	171
3.70500	166
3.70867	163
3.71233	161
3.71600	158
3.71967	163
3.72333	170
3.72700	175
3.73067	177
3.73433	173
3.73800	166
3.74167	168
3.74533	168
3.74900	165
3.75267	165
3.75633	164
3.76000	175
3.76367	182
3.76733	187
3.77100	185
3.77467	179
3.77833	175
3.78200	167
3.78567	164
3.78933	168
3.79300	166
3.79667	165
3.80033	166
3.80400	169
3.80767	168
3.81133	166
3.81500	166
3.81867	166
3.82233	159
3.82600	152
3.82967	148
3.83333	154
3.83700	160
3.84067	161
3.84433	162
3.84800	167
3.85167	169
3.85533	168
3.85900	167
3.86267	167
3.86633	169
3.87000	171
3.87367	171
3.87733	168
3.88100	169
3.88467	168
3.88833	169
3.89200	172
3.89567	174
3.89933	175
3.90300	175
3.90667	170
3.91033	166
3.91400	167
3.91767	174
3.92133	181
3.92500	184
3.92867	185
3.93233	183
3.93600	183
3.93967	183
3.94333	184
3.94700	183
3.95067	183
3.95433	179
3.95800	175
3.96167	173
3.96533	171
3.96900	167
3.97267	165
3.97633	170
3.98000	176
3.98367	181
3.98733	186
3.99100	190
3.99467	194
3.99833	196

[Chromatogram (Ch2)]
Interval(msec)	220
# of Points	1091
Start Time(min)	0.002
End Time(min)	3.998
R.Time (min)	Intensity
0.00167	-1
0.00533	-1
0.00900	-1
0.01267	-1
0.01633	-1
0.02000	-1
0.02367	-1
0.02733	-1
0.03100	-1
0.03467	-1
0.03833	-1
0.04200	-2
0.04567	-2
0.04933	-2
0.05300	-2
0.05667	-2
0.06033	-2
0.06400	-2
0.06767	-2
0.07133	-2
0.07500	-3
0.07867	-3
0.08233	-3
0.08600	-3
0.08967	-3
0.09333	-3
0.09700	-3
0.10067	-3
0.10433	-3
0.10800	-3
0.11167	-3
0.11533	-3
0.11900	-3
0.12267	-3
0.12633	-3
0.13000	-3
0.13367	-3
0.13733	-3
0.14100	-3
0.14467	-3
0.14833	-3
0.15200	-4
0.15567	-4
0.15933	-4
0.16300	-4
0.16667	-4
0.17033	-4
0.17400	-4
0.17767	-4
0.18133	-4
0.18500	-4
0.18867	-4
0.19233	-4
0.19600	-4
0.19967	-4
0.20333	-4
0.20700	-4
0.21067	-4
0.21433	-4
0.21800	-4
0.22167	-4
0.22533	-4
0.22900	-4
0.23267	-4
0.23633	-4
0.24000	-4
0.24367	-4
0.24733	-5
0.25100	-5
0.25467	-5
0.25833	-6
0.26200	-6
0.26567	-6
0.26933	-6
0.27300	-6
0.27667	-6
0.28033	-5
0.28400	-5
0.28767	-5
0.29133	-5
0.29500	-5
0.29867	-5
0.30233	-5
0.30600	-5
0.30967	-4
0.31333	-5
0.31700	-5
0.32067	-5
0.32433	-5
0.32800	-6
0.33167	-6
0.33533	-6
0.33900	-6
0.34267	-6
0.34633	-7
0.35000	-7
0.35367	-7
0.35733	-7
0.36100	-8
0.36467	-8
0.36833	-8
0.37200	-8
0.37567	-8
0.37933	-8
0.38300	-8
0.38667	-8
0.39033	-8
0.39400	-8
0.39767	-8
0.40133	-8
0.40500	-8
0.40867	-8
0.41233	-9
0.41600	-9
0.41967	-9
0.42333	-9
0.42700	-10
0.43067	-10
0.43433	-10
0.43800	-10
0.44167	-11
0.44533	-11
0.44900	-11
0.45267	-11
0.45633	-11
0.46000	-11
0.46367	-11
0.46733	-11
0.47100	-11
0.47467	-11
0.47833	-11
0.48200	-11
0.48567	-12
0.48933	-12
0.49300	-12
0.49667	-12
0.50033	-12
0.50400	-13
0.50767	-13
0.51133	-13
0.51500	-13
0.51867	-13
0.52233	-13
0.52600	-13
0.52967	-13
0.53333	-13
0.53700	-13
0.54067	-14
0.54433	-14
0.54800	-14
0.55167	-15
0.55533	-15
0.55900	-15
0.56267	-15
0.56633	-15
0.57000	-15
0.57367	-15
0.57733	-16
0.58100	-16
0.58467	-16
0.58833	-16
0.59200	-16
0.59567	-16
0.59933	-17
0.60300	-17
0.60667	-18
0.61033	-18
0.61400	-19
0.61767	-19
0.62133	-19
0.62500	-19
0.62867	-20
0.63233	-20
0.63600	-20
0.63967	-20
0.64333	-20
0.64700	-20
0.65067	-20
0.65433	-20
0.65800	-20
0.66167	-20
0.66533	-20
0.66900	-21
0.67267	-21
0.67633	-22
0.68000	-22
0.68367	-22
0.68733	-23
0.69100	-22
0.69467	-22
0.69833	-22
0.70200	-21
0.70567	-21
0.70933	-20
0.71300	-20
0.71667	-20
0.72033	-19
0.72400	-19
0.72767	-19
0.73133	-19
0.73500	-20
0.73867	-20
0.74233	-21
0.74600	-21
0.74967	-22
0.75333	-22
0.75700	-22
0.76067	-23
0.76433	-23
0.76800	-23
0.77167	-23
0.77533	-23
0.77900	-23
0.78267	-23
0.78633	-23
0.79000	-23
0.79367	-23
0.79733	-22
0.80100	-22
0.80467	-22
0.80833	-22
0.81200	-22
0.81567	-22
0.81933	-21
0.82300	-21
0.82667	-21
0.83033	-21
0.83400	-21
0.83767	-20
0.84133	-20
0.84500	-21
0.84867	-21
0.85233	-21
0.85600	-21
0.85967	-21
0.86333	-21
0.86700	-21
0.87067	-21
0.87433	-22
0.87800	-22
0.88167	-23
0.88533	-23
0.88900	-23
0.89267	-23
0.89633	-23
0.90000	-23
0.90367	-23
0.90733	-23
0.91100	-23
0.91467	-23
0.91833	-23
0.92200	-23
0.92567	-24
0.92933	-24
0.93300	-24
0.93667	-24
0.94033	-24
0.94400	-24
0.94767	-25
0.95133	-25
0.95500	-25
0.95867	-25
0.96233	-26
0.96600	-26
0.96967	-26
0.97333	-26
0.97700	-26
0.98067	-27
0.98433	-27
0.98800	-27
0.99167	-27
0.99533	-28
0.99900	-28
1.00267	-28
1.00633	-29
1.01000	-29
1.01367	-30
1.01733	-31
1.02100	-31
1.02467	-31
1.02833	-32
1.03200	-32
1.03567	-33
1.03933	-33
1.04300	-34
1.04667	-34
1.05033	-34
1.05400	-34
1.05767	-34
1.06133	-34
1.06500	-35
1.06867	-34
1.07233	-34
1.07600	-34
1.07967	-33
1.08333	-33
1.08700	-33
1.09067	-32
1.09433	-32
1.09800	-31
1.10167	-31
1.10533	-30
1.10900	-30
1.11267	-30
1.11633	-30
1.12000	-30
1.12367	-30
1.12733	-30
1.13100	-30
1.13467	-30
1.13833	-30
1.14200	-30
1.14567	-30
1.14933	-30
1.15300	-30
1.15667	-30
1.16033	-30
1.16400	-30
1.16767	-30
1.17133	-30
1.17500	-30
1.17867	-31
1.18233	-31
1.18600	-32
1.18967	-32
1.19333	-32
1.19700	-32
1.20067	-31
1.20433	-31
1.20800	-31
1.21167	-31
1.21533	-31
1.21900	-31
1.22267	-31
1.22633	-31
1.23000	-31
1.23367	-31
1.23733	-31
1.24100	-32
1.24467	-32
1.24833	-32
1.25200	-33
1.25567	-33
1.25933	-34
1.26300	-34
1.26667	-34
1.27033	-34
1.27400	-34
1.27767	-35
1.28133	-35
1.28500	-35
1.28867	-35
1.29233	-36
1.29600	-36
1.29967	-36
1.30333	-36
1.30700	-36
1.31067	-36
1.31433	-36
1.31800	-36
1.32167	-36
1.32533	-36
1.32900	-36
1.33267	-36
1.33633	-36
1.34000	-37
1.34367	-37
1.34733	-37
1.35100	-37
1.35467	-37
1.35833	-37
1.36200	-37
1.36567	-38
1.36933	-38
1.37300	-38
1.37667	-38
1.38033	-38
1.38400	-38
1.38767	-38
1.39133	-38
1.39500	-38
1.39867	-38
1.40233	-38
1.40600	-38
1.40967	-39
1.41333	-39
1.41700	-39
1.42067	-39
1.42433	-39
1.42800	-39
1.43167	-39
1.43533	-39
1.43900	-39
1.44267	-39
1.44633	-38
1.45000	-38
1.45367	-38
1.45733	-38
1.46100	-38
1.46467	-38
1.46833	-38
1.47200	-38
1.47567	-38
1.47933	-38
1.48300	-38
1.48667	-39
1.49033	-39
1.49400	-39
1.49767	-39
1.50133	-39
1.50500	-39
1.50867	-40
1.51233	-40
1.51600	-41
1.51967	-41
1.52333	-41
1.52700	-41
1.53067	-42
1.53433	-42
1.53800	-42
1.54167	-42
1.54533	-43
1.54900	-43
1.55267	-43
1.55633	-43
1.56000	-43
1.56367	-43
1.56733	-42
1.57100	-42
1.57467	-42
1.57833	-42
1.58200	-42
1.58567	-42
1.58933	-43
1.59300	-44
1.59667	-45
1.60033	-46
1.60400	-47
1.60767	-49
1.61133	-50
1.61500	-52
1.61867	-55
1.62233	-57
1.62600	-60
1.62967	-62
1.63333	-65
1.63700	-69
1.64067	-72
1.64433	-75
1.64800	-79
1.65167	-82
1.65533	-86
1.65900	-90
1.66267	-94
1.66633	-98
1.67000	-103
1.67367	-108
1.67733	-114
1.68100	-119
1.68467	-124
1.68833	-129
1.69200	-134
1.69567	-138
1.69933	-141
1.70300	-144
1.70667	-146
1.71033	-149
1.71400	-150
1.71767	-151
1.72133	-152
1.72500	-153
1.72867	-153
1.73233	-153
1.73600	-153
1.73967	-153
1.74333	-154
1.74700	-154
1.75067	-155
1.75433	-156
1.75800	-157
1.76167	-158
1.76533	-159
1.76900	-160
1.77267	-161
1.77633	-161
1.78000	-161
1.78367	-161
1.78733	-160
1.79100	-160
1.79467	-161
1.79833	-161
1.80200	-162
1.80567	-162
1.80933	-162
1.81300	-162
1.81667	-163
1.82033	-163
1.82400	-163
1.82767	-163
1.83133	-164
1.83500	-164
1.83867	-165
1.84233	-165
1.84600	-166
1.84967	-167
1.85333	-168
1.85700	-168
1.86067	-168
1.86433	-168
1.86800	-168
1.87167	-168
1.87533	-168
1.87900	-168
1.88267	-168
1.88633	-167
1.89000	-167
1.89367	-167
1.89733	-167
1.90100	-167
1.90467	-166
1.90833	-166
1.91200	-166
1.91567	-166
1.91933	-166
1.92300	-166
1.92667	-166
1.93033	-166
1.93400	-166
1.93767	-166
1.94133	-166
1.94500	-165
1.94867	-165
1.95233	-165
1.95600	-164
1.95967	-164
1.96333	-164
1.96700	-164
1.97067	-164
1.97433	-164
1.97800	-164
1.98167	-164
1.98533	-164
1.98900	-163
1.99267	-163
1.99633	-162
2.00000	-162
2.00367	-162
2.00733	-162
2.01100	-162
2.01467	-162
2.01833	-162
2.02200	-162
2.02567	-162
2.02933	-161
2.03300	-161
2.03667	-161
2.04033	-161
2.04400	-160
2.04767	-160
2.05133	-160
2.05500	-160
2.05867	-160
2.06233	-160
2.06600	-161
2.06967	-161
2.07333	-162
2.07700	-162
2.08067	-162
2.08433	-161
2.08800	-161
2.09167	-161
2.09533	-160
2.09900	-160
2.10267	-159
2.10633	-159
2.11000	-159
2.11367	-158
2.11733	-158
2.12100	-157
2.12467	-157
2.12833	-157
2.13200	-156
2.13567	-156
2.13933	-156
2.14300	-156
2.14667	-156
2.15033	-156
2.15400	-156
2.15767	-156
2.16133	-155
2.16500	-155
2.16867	-154
2.17233	-152
2.17600	-151
2.17967	-151
2.18333	-150
2.18700	-150
2.19067	-150
2.19433	-149
2.19800	-149
2.20167	-148
2.20533	-148
2.20900	-148
2.21267	-148
2.21633	-148
2.22000	-148
2.22367	-149
2.22733	-149
2.23100	-149
2.23467	-149
2.23833	-148
2.24200	-148
2.24567	-148
2.24933	-148
2.25300	-149
2.25667	-149
2.26033	-150
2.26400	-151
2.26767	-151
2.27133	-151
2.27500	-151
2.27867	-150
2.28233	-149
2.28600	-148
2.28967	-147
2.29333	-146
2.29700	-146
2.30067	-146
2.30433	-146
2.30800	-146
2.31167	-145
2.31533	-145
2.31900	-144
2.32267	-143
2.32633	-142
2.33000	-142
2.33367	-142
2.33733	-142
2.34100	-143
2.34467	-143
2.34833	-142
2.35200	-142
2.35567	-141
2.35933	-140
2.36300	-139
2.36667	-138
2.37033	-137
2.37400	-135
2.37767	-133
2.38133	-130
2.38500	-127
2.38867	-124
2.39233	-120
2.39600	-116
2.39967	-112
2.40333	-107
2.40700	-102
2.41067	-98
2.41433	-94
2.41800	-90
2.42167	-87
2.42533	-84
2.42900	-82
2.43267	-80
2.43633	-77
2.44000	-75
2.44367	-73
2.44733	-71
2.45100	-70
2.45467	-68
2.45833	-66
2.46200	-65
2.46567	-63
2.46933	-62
2.47300	-61
2.47667	-60
2.48033	-59
2.48400	-59
2.48767	-58
2.49133	-57
2.49500	-56
2.49867	-55
2.50233	-55
2.50600	-54
2.50967	-54
2.51333	-54
2.51700	-53
2.52067	-53
2.52433	-52
2.52800	-52
2.53167	-51
2.53533	-50
2.53900	-49
2.54267	-48
2.54633	-47
2.55000	-46
2.55367	-46
2.55733	-46
2.56100	-47
2.56467	-47
2.56833	-47
2.57200	-47
2.57567	-47
2.57933	-47
2.58300	-47
2.58667	-46
2.59033	-46
2.59400	-45
2.59767	-45
2.60133	-44
2.60500	-44
2.60867	-43
2.61233	-43
2.61600	-42
2.61967	-42
2.62333	-43
2.62700	-43
2.63067	-43
2.63433	-43
2.63800	-43
2.64167	-43
2.64533	-43
2.64900	-43
2.65267	-43
2.65633	-43
2.66000	-42
2.66367	-42
2.66733	-42
2.67100	-42
2.67467	-42
2.67833	-41
2.68200	-41
2.68567	-41
2.68933	-41
2.69300	-41
2.69667	-41
2.70033	-42
2.70400	-42
2.70767	-42
2.71133	-42
2.71500	-42
2.71867	-42
2.72233	-43
2.72600	-43
2.72967	-43
2.73333	-42
2.73700	-42
2.74067	-42
2.74433	-42
2.74800	-42
2.75167	-41
2.75533	-41
2.75900	-41
2.76267	-41
2.76633	-41
2.77000	-41
2.77367	-40
2.77733	-40
2.78100	-40
2.78467	-40
2.78833	-40
2.79200	-40
2.79567	-40
2.79933	-40
2.80300	-41
2.80667	-41
2.81033	-41
2.81400	-41
2.81767	-41
2.82133	-41
2.82500	-41
2.82867	-42
2.83233	-42
2.83600	-42
2.83967	-42
2.84333	-44
2.84700	-46
2.85067	-50
2.85433	-56
2.85800	-66
2.86167	-79
2.86533	-98
2.86900	-121
2.87267	-149
2.87633	-183
2.88000	-222
2.88367	-266
2.88733	-315
2.89100	-370
2.89467	-428
2.89833	-491
2.90200	-557
2.90567	-627
2.90933	-700
2.91300	-775
2.91667	-853
2.92033	-933
2.92400	-1015
2.92767	-1100
2.93133	-1185
2.93500	-1273
2.93867	-1361
2.94233	-1450
2.94600	-1528
2.94967	-1584
2.95333	-1608
2.95700	-1596
2.96067	-1550
2.96433	-1476
2.96800	-1383
2.97167	-1278
2.97533	-1167
2.97900	-1056
2.98267	-948
2.98633	-845
2.99000	-750
2.99367	-664
2.99733	-586
3.00100	-516
3.00467	-455
3.00833	-401
3.01200	-354
3.01567	-313
3.01933	-278
3.02300	-247
3.02667	-220
3.03033	-197
3.03400	-178
3.03767	-161
3.04133	-147
3.04500	-134
3.04867	-124
3.05233	-115
3.05600	-108
3.05967	-101
3.06333	-96
3.06700	-91
3.07067	-87
3.07433	-83
3.07800	-80
3.08167	-77
3.08533	-75
3.08900	-73
3.09267	-71
3.09633	-70
3.10000	-68
3.10367	-67
3.10733	-67
3.11100	-66
3.11467	-65
3.11833	-65
3.12200	-64
3.12567	-64
3.12933	-63
3.13300	-62
3.13667	-61
3.14033	-60
3.14400	-59
3.14767	-59
3.15133	-58
3.15500	-57
3.15867	-56
3.16233	-55
3.16600	-55
3.16967	-54
3.17333	-54
3.17700	-53
3.18067	-53
3.18433	-52
3.18800	-52
3.19167	-52
3.19533	-52
3.19900	-51
3.20267	-51
3.20633	-51
3.21000	-50
3.21367	-50
3.21733	-50
3.22100	-51
3.22467	-51
3.22833	-51
3.23200	-51
3.23567	-51
3.23933	-51
3.24300	-51
3.24667	-51
3.25033	-51
3.25400	-51
3.25767	-50
3.26133	-50
3.26500	-50
3.26867	-50
3.27233	-50
3.27600	-50
3.27967	-50
3.28333	-50
3.28700	-50
3.29067	-50
3.29433	-50
3.29800	-50
3.30167	-50
3.30533	-50
3.30900	-50
3.31267	-50
3.31633	-50
3.32000	-50
3.32367	-51
3.32733	-51
3.33100	-51
3.33467	-51
3.33833	-51
3.34200	-51
3.34567	-51
3.34933	-51
3.35300	-51
3.35667	-52
3.36033	-52
3.36400	-52
3.36767	-52
3.37133	-52
3.37500	-52
3.37867	-52
3.38233	-53
3.38600	-53
3.38967	-53
3.39333	-53
3.39700	-53
3.40067	-53
3.40433	-54
3.40800	-54
3.41167	-54
3.41533	-54
3.41900	-54
3.42267	-53
3.42633	-53
3.43000	-53
3.43367	-53
3.43733	-53
3.44100	-53
3.44467	-52
3.44833	-52
3.45200	-52
3.45567	-52
3.45933	-52
3.46300	-52
3.46667	-52
3.47033	-52
3.47400	-52
3.47767	-52
3.48133	-53
3.48500	-53
3.48867	-52
3.49233	-52
3.49600	-53
3.49967	-53
3.50333	-53
3.50700	-53
3.51067	-53
3.51433	-52
3.51800	-52
3.52167	-52
3.52533	-53
3.52900	-53
3.53267	-53
3.53633	-53
3.54000	-53
3.54367	-54
3.54733	-54
3.55100	-54
3.55467	-53
3.55833	-53
3.56200	-53
3.56567	-53
3.56933	-53
3.57300	-53
3.57667	-52
3.58033	-52
3.58400	-51
3.58767	-51
3.59133	-51
3.59500	-51
3.59867	-51
3.60233	-50
3.60600	-50
3.60967	-50
3.61333	-50
3.61700	-50
3.62067	-50
3.62433	-50
3.62800	-51
3.63167	-51
3.63533	-51
3.63900	-51
3.64267	-51
3.64633	-51
3.65000	-52
3.65367	-52
3.65733	-52
3.66100	-53
3.66467	-53
3.66833	-53
3.67200	-53
3.67567	-53
3.67933	-53
3.68300	-53
3.68667	-53
3.69033	-52
3.69400	-52
3.69767	-53
3.70133	-53
3.70500	-53
3.70867	-53
3.71233	-53
3.71600	-53
3.71967	-53
3.72333	-53
3.72700	-53
3.73067	-53
3.73433	-54
3.73800	-54
3.74167	-54
3.74533	-54
3.74900	-54
3.75267	-54
3.75633	-54
3.76000	-54
3.76367	-54
3.76733	-54
3.77100	-54
3.77467	-54
3.77833	-54
3.78200	-54
3.78567	-54
3.78933	-54
3.79300	-54
3.79667	-54
3.80033	-54
3.80400	-54
3.80767	-54
3.81133	-55
3.81500	-55
3.81867	-56
3.82233	-56
3.82600	-56
3.82967	-56
3.83333	-57
3.83700	-57
3.84067	-57
3.84433	-57
3.84800	-57
3.85167	-57
3.85533	-57
3.85900	-57
3.86267	-57
3.86633	-57
3.87000	-57
3.87367	-57
3.87733	-57
3.88100	-57
3.88467	-57
3.88833	-57
3.89200	-57
3.89567	-57
3.89933	-58
3.90300	-58
3.90667	-58
3.91033	-58
3.91400	-58
3.91767	-59
3.92133	-59
3.92500	-59
3.92867	-58
3.93233	-58
3.93600	-58
3.93967	-58
3.94333	-59
3.94700	-59
3.95067	-59
3.95433	-59
3.95800	-59
3.96167	-59
3.96533	-58
3.96900	-58
3.97267	-58
3.97633	-58
3.98000	-58
3.98367	-58
3.98733	-58
3.99100	-58
3.99467	-58
3.99833	-59

[Chromatogram (Ch3)]
Interval(msec)	220
# of Points	1091
Start Time(min)	0.002
End Time(min)	3.998
R.Time (min)	Intensity
0.00167	-0
0.00533	-1
0.00900	-2
0.01267	-2
0.01633	0
0.02000	0
0.02367	1
0.02733	3
0.03100	2
0.03467	2
0.03833	1
0.04200	2
0.04567	1
0.04933	2
0.05300	4
0.05667	4
0.06033	3
0.06400	1
0.06767	-0
0.07133	-0
0.07500	1
0.07867	2
0.08233	4
0.08600	4
0.08967	3
0.09333	3
0.09700	3
0.10067	2
0.10433	1
0.10800	2
0.11167	2
0.11533	2
0.11900	1
0.12267	1
0.12633	2
0.13000	3
0.13367	5
0.13733	6
0.14100	6
0.14467	7
0.14833	7
0.15200	6
0.15567	5
0.15933	5
0.16300	6
0.16667	6
0.17033	6
0.17400	5
0.17767	6
0.18133	9
0.18500	9
0.18867	9
0.19233	9
0.19600	10
0.19967	12
0.20333	13
0.20700	12
0.21067	11
0.21433	8
0.21800	6
0.22167	5
0.22533	7
0.22900	9
0.23267	9
0.23633	9
0.24000	7
0.24367	6
0.24733	7
0.25100	9
0.25467	7
0.25833	7
0.26200	6
0.26567	4
0.26933	5
0.27300	5
0.27667	7
0.28033	8
0.28400	9
0.28767	9
0.29133	7
0.29500	6
0.29867	8
0.30233	8
0.30600	6
0.30967	5
0.31333	5
0.31700	6
0.32067	7
0.32433	8
0.32800	10
0.33167	9
0.33533	9
0.33900	11
0.34267	12
0.34633	13
0.35000	12
0.35367	11
0.35733	13
0.36100	14
0.36467	14
0.36833	13
0.37200	12
0.37567	10
0.37933	8
0.38300	6
0.38667	5
0.39033	5
0.39400	5
0.39767	4
0.40133	5
0.40500	4
0.40867	6
0.41233	9
0.41600	11
0.41967	11
0.42333	10
0.42700	9
0.43067	10
0.43433	9
0.43800	8
0.44167	8
0.44533	8
0.44900	10
0.45267	10
0.45633	12
0.46000	15
0.46367	15
0.46733	13
0.47100	12
0.47467	12
0.47833	10
0.48200	9
0.48567	10
0.48933	11
0.49300	10
0.49667	10
0.50033	10
0.50400	9
0.50767	8
0.51133	8
0.51500	8
0.51867	10
0.52233	11
0.52600	10
0.52967	7
0.53333	4
0.53700	4
0.54067	7
0.54433	11
0.54800	11
0.55167	11
0.55533	12
0.55900	14
0.56267	14
0.56633	15
0.57000	16
0.57367	16
0.57733	17
0.58100	17
0.58467	16
0.58833	14
0.59200	15
0.59567	15
0.59933	12
0.60300	12
0.60667	11
0.61033	11
0.61400	12
0.61767	13
0.62133	15
0.62500	14
0.62867	13
0.63233	15
0.63600	17
0.63967	17
0.64333	17
0.64700	19
0.65067	21
0.65433	20
0.65800	19
0.66167	18
0.66533	16
0.66900	14
0.67267	15
0.67633	17
0.68000	18
0.68367	19
0.68733	19
0.69100	16
0.69467	15
0.69833	17
0.70200	18
0.70567	18
0.70933	16
0.71300	13
0.71667	14
0.72033	14
0.72400	15
0.72767	16
0.73133	18
0.73500	18
0.73867	15
0.74233	14
0.74600	14
0.74967	16
0.75333	19
0.75700	21
0.76067	20
0.76433	19
0.76800	18
0.77167	18
0.77533	18
0.77900	19
0.78267	19
0.78633	20
0.79000	21
0.79367	23
0.79733	25
0.80100	23
0.80467	23
0.80833	24
0.81200	24
0.81567	22
0.81933	20
0.82300	19
0.82667	20
0.83033	21
0.83400	21
0.83767	22
0.84133	22
0.84500	24
0.84867	24
0.85233	23
0.85600	22
0.85967	19
0.86333	19
0.86700	20
0.87067	21
0.87433	22
0.87800	22
0.88167	22
0.88533	21
0.88900	19
0.89267	20
0.89633	21
0.90000	22
0.90367	22
0.90733	22
0.91100	20
0.91467	18
0.91833	18
0.92200	17
0.92567	15
0.92933	16
0.93300	17
0.93667	17
0.94033	16
0.94400	17
0.94767	19
0.95133	20
0.95500	21
0.95867	20
0.96233	20
0.96600	22
0.96967	23
0.97333	22
0.97700	23
0.98067	23
0.98433	21
0.98800	20
0.99167	19
0.99533	19
0.99900	19
1.00267	20
1.00633	21
1.01000	22
1.01367	22
1.01733	22
1.02100	21
1.02467	22
1.02833	23
1.03200	22
1.03567	22
1.03933	22
1.04300	22
1.04667	23
1.05033	23
1.05400	23
1.05767	22
1.06133	20
1.06500	20
1.06867	21
1.07233	23
1.07600	25
1.07967	25
1.08333	26
1.08700	26
1.09067	24
1.09433	22
1.09800	22
1.10167	23
1.10533	22
1.10900	23
1.11267	24
1.11633	23
1.12000	22
1.12367	22
1.12733	24
1.13100	26
1.13467	25
1.13833	24
1.14200	23
1.14567	23
1.14933	25
1.15300	27
1.15667	27
1.16033	28
1.16400	28
1.16767	28
1.17133	29
1.17500	29
1.17867	29
1.18233	30
1.18600	31
1.18967	31
1.19333	31
1.19700	30
1.20067	29
1.20433	26
1.20800	27
1.21167	30
1.21533	31
1.21900	29
1.22267	28
1.22633	29
1.23000	29
1.23367	31
1.23733	32
1.24100	32
1.24467	32
1.24833	30
1.25200	29
1.25567	29
1.25933	29
1.26300	27
1.26667	28
1.27033	29
1.27400	29
1.27767	30
1.28133	31
1.28500	29
1.28867	29
1.29233	29
1.29600	30
1.29967	30
1.30333	32
1.30700	32
1.31067	32
1.31433	33
1.31800	32
1.32167	32
1.32533	29
1.32900	26
1.33267	26
1.33633	26
1.34000	28
1.34367	27
1.34733	25
1.35100	25
1.35467	26
1.35833	26
1.36200	27
1.36567	29
1.36933	28
1.37300	27
1.37667	27
1.38033	27
1.38400	28
1.38767	28
1.39133	28
1.39500	27
1.39867	26
1.40233	26
1.40600	26
1.40967	26
1.41333	26
1.41700	27
1.42067	29
1.42433	31
1.42800	32
1.43167	33
1.43533	34
1.43900	34
1.44267	35
1.44633	35
1.45000	35
1.45367	34
1.45733	35
1.46100	35
1.46467	34
1.46833	33
1.47200	33
1.47567	33
1.47933	34
1.48300	35
1.48667	35
1.49033	35
1.49400	36
1.49767	34
1.50133	34
1.50500	34
1.50867	34
1.51233	34
1.51600	36
1.51967	36
1.52333	36
1.52700	36
1.53067	36
1.53433	36
1.53800	37
1.54167	37
1.54533	37
1.54900	36
1.55267	34
1.55633	34
1.56000	35
1.56367	36
1.56733	37
1.57100	38
1.57467	39
1.57833	40
1.58200	41
1.58567	41
1.58933	39
1.59300	37
1.59667	35
1.60033	34
1.60400	35
1.60767	35
1.61133	36
1.61500	36
1.61867	35
1.62233	36
1.62600	38
1.62967	39
1.63333	40
1.63700	41
1.64067	41
1.64433	40
1.64800	40
1.65167	41
1.65533	42
1.65900	44
1.66267	44
1.66633	43
1.67000	43
1.67367	45
1.67733	49
1.68100	52
1.68467	53
1.68833	54
1.69200	54
1.69567	54
1.69933	52
1.70300	52
1.70667	55
1.71033	56
1.71400	55
1.71767	55
1.72133	57
1.72500	61
1.72867	62
1.73233	63
1.73600	65
1.73967	65
1.74333	64
1.74700	65
1.75067	65
1.75433	65
1.75800	63
1.76167	65
1.76533	66
1.76900	66
1.77267	66
1.77633	68
1.78000	69
1.78367	70
1.78733	72
1.79100	75
1.79467	78
1.79833	81
1.80200	83
1.80567	84
1.80933	84
1.81300	82
1.81667	82
1.82033	83
1.82400	84
1.82767	86
1.83133	90
1.83500	91
1.83867	91
1.84233	90
1.84600	90
1.84967	90
1.85333	89
1.85700	89
1.86067	91
1.86433	93
1.86800	92
1.87167	91
1.87533	92
1.87900	93
1.88267	94
1.88633	97
1.89000	98
1.89367	99
1.89733	100
1.90100	102
1.90467	102
1.90833	101
1.91200	101
1.91567	102
1.91933	105
1.92300	107
1.92667	107
1.93033	107
1.93400	108
1.93767	111
1.94133	113
1.94500	114
1.94867	115
1.95233	114
1.95600	115
1.95967	118
1.96333	121
1.96700	118
1.97067	117
1.97433	118
1.97800	120
1.98167	123
1.98533	125
1.98900	126
1.99267	128
1.99633	129
2.00000	130
2.00367	132
2.00733	135
2.01100	137
2.01467	139
2.01833	140
2.02200	140
2.02567	142
2.02933	143
2.03300	144
2.03667	144
2.04033	144
2.04400	144
2.04767	145
2.05133	147
2.05500	150
2.05867	153
2.06233	156
2.06600	160
2.06967	163
2.07333	166
2.07700	168
2.08067	170
2.08433	170
2.08800	172
2.09167	173
2.09533	175
2.09900	176
2.10267	178
2.10633	179
2.11000	178
2.11367	181
2.11733	186
2.12100	188
2.12467	191
2.12833	194
2.13200	197
2.13567	198
2.13933	198
2.14300	199
2.14667	201
2.15033	205
2.15400	207
2.15767	208
2.16133	208
2.16500	209
2.16867	209
2.17233	210
2.17600	213
2.17967	214
2.18333	214
2.18700	213
2.19067	215
2.19433	216
2.19800	217
2.20167	218
2.20533	218
2.20900	219
2.21267	219
2.21633	220
2.22000	223
2.22367	224
2.22733	225
2.23100	226
2.23467	226
2.23833	229
2.24200	231
2.24567	233
2.24933	237
2.25300	241
2.25667	243
2.26033	245
2.26400	248
2.26767	250
2.27133	251
2.27500	252
2.27867	254
2.28233	256
2.28600	258
2.28967	260
2.29333	262
2.29700	264
2.30067	264
2.30433	266
2.30800	267
2.31167	270
2.31533	274
2.31900	276
2.32267	276
2.32633	277
2.33000	278
2.33367	281
2.33733	283
2.34100	286
2.34467	290
2.34833	293
2.35200	294
2.35567	296
2.35933	298
2.36300	299
2.36667	297
2.37033	297
2.37400	300
2.37767	299
2.38133	299
2.38500	299
2.38867	300
2.39233	302
2.39600	303
2.39967	305
2.40333	309
2.40700	313
2.41067	318
2.41433	322
2.41800	327
2.42167	331
2.42533	333
2.42900	335
2.43267	336
2.43633	340
2.44000	343
2.44367	344
2.44733	345
2.45100	346
2.45467	347
2.45833	357
2.46200	378
2.46567	409
2.46933	444
2.47300	482
2.47667	520
2.48033	560
2.48400	597
2.48767	632
2.49133	666
2.49500	697
2.49867	725
2.50233	749
2.50600	767
2.50967	785
2.51333	803
2.51700	821
2.52067	836
2.52433	849
2.52800	860
2.53167	871
2.53533	883
2.53900	898
2.54267	910
2.54633	919
2.55000	930
2.55367	941
2.55733	952
2.56100	963
2.56467	971
2.56833	980
2.57200	989
2.57567	998
2.57933	1007
2.58300	1017
2.58667	1026
2.59033	1034
2.59400	1038
2.59767	1038
2.60133	1033
2.60500	1022
2.60867	1003
2.61233	979
2.61600	946
2.61967	910
2.62333	872
2.62700	835
2.63067	802
2.63433	775
2.63800	755
2.64167	738
2.64533	726
2.64900	719
2.65267	715
2.65633	713
2.66000	717
2.66367	726
2.66733	736
2.67100	745
2.67467	753
2.67833	762
2.68200	770
2.68567	779
2.68933	788
2.69300	796
2.69667	805
2.70033	817
2.70400	828
2.70767	836
2.71133	844
2.71500	850
2.71867	856
2.72233	862
2.72600	867
2.72967	871
2.73333	876
2.73700	882
2.74067	887
2.74433	893
2.74800	898
2.75167	903
2.75533	908
2.75900	911
2.76267	913
2.76633	918
2.77000	921
2.77367	924
2.77733	927
2.78100	928
2.78467	928
2.78833	927
2.79200	928
2.79567	928
2.79933	928
2.80300	928
2.80667	929
2.81033	930
2.81400	927
2.81767	924
2.82133	926
2.82500	943
2.82867	992
2.83233	1104
2.83600	1332
2.83967	1741
2.84333	2394
2.84700	3337
2.85067	4582
2.85433	6104
2.85800	7832
2.86167	9656
2.86533	11453
2.86900	13087
2.87267	14435
2.87633	15405
2.88000	15956
2.88367	16086
2.88733	15833
2.89100	15268
2.89467	14469
2.89833	13516
2.90200	12479
2.90567	11416
2.90933	10366
2.91300	9359
2.91667	8415
2.92033	7541
2.92400	6743
2.92767	6022
2.93133	5377
2.93500	4801
2.93867	4288
2.94233	3833
2.94600	3431
2.94967	3080
2.95333	2771
2.95700	2498
2.96067	2259
2.96433	2053
2.96800	1873
2.97167	1717
2.97533	1583
2.97900	1469
2.98267	1368
2.98633	1281
2.99000	1204
2.99367	1133
2.99733	1072
3.00100	1021
3.00467	977
3.00833	940
3.01200	908
3.01567	881
3.01933	858
3.02300	839
3.02667	821
3.03033	804
3.03400	789
3.03767	772
3.04133	759
3.04500	747
3.04867	737
3.05233	731
3.05600	727
3.05967	722
3.06333	715
3.06700	709
3.07067	703
3.07433	697
3.07800	692
3.08167	687
3.08533	683
3.08900	681
3.09267	679
3.09633	675
3.10000	671
3.10367	669
3.10733	667
3.11100	662
3.11467	658
3.11833	655
3.12200	651
3.12567	646
3.12933	640
3.13300	638
3.13667	636
3.14033	633
3.14400	630
3.14767	626
3.15133	622
3.15500	618
3.15867	613
3.16233	609
3.16600	607
3.16967	607
3.17333	604
3.17700	599
3.18067	593
3.18433	588
3.18800	585
3.19167	584
3.19533	583
3.19900	580
3.20267	576
3.20633	574
3.21000	572
3.21367	569
3.21733	569
3.22100	567
3.22467	563
3.22833	558
3.23200	554
3.23567	554
3.23933	552
3.24300	548
3.24667	544
3.25033	539
3.25400	534
3.25767	530
3.26133	530
3.26500	530
3.26867	529
3.27233	526
3.27600	524
3.27967	522
3.28333	518
3.28700	514
3.29067	509
3.29433	503
3.29800	495
3.30167	490
3.30533	485
3.30900	483
3.31267	480
3.31633	479
3.32000	476
3.32367	473
3.32733	472
3.33100	473
3.33467	472
3.33833	466
3.34200	462
3.34567	458
3.34933	454
3.35300	452
3.35667	450
3.36033	448
3.36400	447
3.36767	444
3.37133	440
3.37500	438
3.37867	435
3.38233	430
3.38600	426
3.38967	423
3.39333	420
3.39700	418
3.40067	414
3.40433	412
3.40800	413
3.41167	411
3.41533	408
3.41900	405
3.42267	400
3.42633	395
3.43000	392
3.43367	389
3.43733	388
3.44100	386
3.44467	384
3.44833	381
3.45200	376
3.45567	373
3.45933	371
3.46300	367
3.46667	362
3.47033	357
3.47400	353
3.47767	350
3.48133	349
3.48500	349
3.48867	345
3.49233	341
3.49600	339
3.49967	339
3.50333	338
3.50700	335
3.51067	332
3.51433	328
3.51800	326
3.52167	325
3.52533	323
3.52900	321
3.53267	319
3.53633	318
3.54000	315
3.54367	312
3.54733	307
3.55100	303
3.55467	301
3.55833	298
3.56200	297
3.56567	296
3.56933	295
3.57300	294
3.57667	291
3.58033	287
3.58400	285
3.58767	281
3.59133	279
3.59500	276
3.59867	274
3.60233	271
3.60600	268
3.60967	265
3.61333	264
3.61700	264
3.62067	263
3.62433	260
3.62800	256
3.63167	254
3.63533	250
3.63900	248
3.64267	246
3.64633	245
3.65000	245
3.65367	244
3.65733	243
3.66100	242
3.66467	241
3.66833	240
3.67200	238
3.67567	236
3.67933	235
3.68300	233
3.68667	232
3.69033	232
3.69400	233
3.69767	232
3.70133	232
3.70500	230
3.70867	227
3.71233	223
3.71600	220
3.71967	217
3.72333	213
3.72700	211
3.73067	209
3.73433	207
3.73800	206
3.74167	205
3.74533	204
3.74900	201
3.75267	199
3.75633	198
3.76000	198
3.76367	198
3.76733	198
3.77100	196
3.77467	195
3.77833	192
3.78200	191
3.78567	191
3.78933	190
3.79300	186
3.79667	184
3.80033	181
3.80400	178
3.80767	178
3.81133	182
3.81500	182
3.81867	181
3.82233	180
3.82600	177
3.82967	175
3.83333	174
3.83700	174
3.84067	171
3.84433	170
3.84800	170
3.85167	170
3.85533	168
3.85900	165
3.86267	164
3.86633	164
3.87000	164
3.87367	164
3.87733	165
3.88100	164
3.88467	163
3.88833	160
3.89200	158
3.89567	156
3.89933	156
3.90300	157
3.90667	158
3.91033	157
3.91400	155
3.91767	153
3.92133	151
3.92500	150
3.92867	147
3.93233	144
3.93600	144
3.93967	145
3.94333	145
3.94700	145
3.95067	145
3.95433	144
3.95800	145
3.96167	147
3.96533	146
3.96900	143
3.97267	141
3.97633	139
3.98000	136
3.98367	135
3.98733	133
3.99100	132
3.99467	131
3.99833	130

[Status Trace (Column Oven Temperature)]
Interval(msec)	1000
# of Points	240
Start Time(min)	0.002
End Time(min)	3.985
Intensity Units	
Intensity Multiplier	1
R.Time (min)	Intensity
0.00205	35.01
0.01872	35.01
0.03538	35.01
0.05205	35.01
0.06872	35.01
0.08538	35.02
0.10205	35.03
0.11872	35.04
0.13538	35.04
0.15205	35.05
0.16872	35.04
0.18538	35.04
0.20205	35.04
0.21872	35.03
0.23538	35.02
0.25205	35.02
0.26872	35.01
0.28538	34.99
0.30205	34.99
0.31872	34.98
0.33538	34.98
0.35205	34.98
0.36872	34.97
0.38538	34.97
0.40205	34.98
0.41872	34.97
0.43538	34.97
0.45205	34.97
0.46872	34.96
0.48538	34.97
0.50205	34.96
0.51872	34.95
0.53538	34.95
0.55205	34.95
0.56872	34.95
0.58538	34.96
0.60205	34.97
0.61872	34.99
0.63538	34.99
0.65205	34.99
0.66872	35.01
0.68538	35.01
0.70205	35.01
0.71872	35.01
0.73538	35.02
0.75205	35.02
0.76872	35.04
0.78538	35.03
0.80205	35.01
0.81872	34.99
0.83538	34.98
0.85205	34.98
0.86872	34.98
0.88538	34.97
0.90205	34.96
0.91872	34.96
0.93538	34.95
0.95205	34.95
0.96872	34.96
0.98538	34.96
1.00205	34.97
1.01872	34.99
1.03538	35.00
1.05205	35.02
1.06872	35.03
1.08538	35.03
1.10205	35.02
1.11872	35.01
1.13538	35.01
1.15205	35.00
1.16872	34.99
1.18538	34.99
1.20205	34.97
1.21872	34.97
1.23538	34.97
1.25205	34.97
1.26872	34.97
1.28538	34.97
1.30205	34.98
1.31872	34.98
1.33538	34.98
1.35205	34.97
1.36872	34.97
1.38538	34.97
1.40205	34.98
1.41872	34.99
1.43538	34.99
1.45205	34.98
1.46872	34.98
1.48538	34.98
1.50205	34.98
1.51872	34.98
1.53538	34.98
1.55205	34.98
1.56872	34.97
1.58538	34.98
1.60205	35.03
1.61872	35.13
1.63538	35.30
1.65205	35.52
1.66872	35.84
1.68538	36.21
1.70205	36.58
1.71872	36.91
1.73538	37.22
1.75205	37.57
1.76872	37.90
1.78538	38.20
1.80205	38.53
1.81872	38.86
1.83538	39.19
1.85205	39.53
1.86872	39.85
1.88538	40.18
1.90205	40.51
1.91872	40.83
1.93538	41.15
1.95205	41.49
1.96872	41.82
1.98538	42.12
2.00205	42.44
2.01872	42.76
2.03538	43.10
2.05205	43.42
2.06872	43.77
2.08538	44.11
2.10205	44.43
2.11872	44.75
2.13538	45.10
2.15205	45.44
2.16872	45.73
2.18538	46.06
2.20205	46.38
2.21872	46.72
2.23538	47.02
2.25205	47.39
2.26872	47.73
2.28538	48.04
2.30205	48.39
2.31872	48.70
2.33538	49.05
2.35205	49.34
2.36872	49.57
2.38538	49.66
2.40205	49.67
2.41872	49.68
2.43538	49.71
2.45205	49.71
2.46872	49.72
2.48538	49.74
2.50205	49.75
2.51872	49.78
2.53538	49.78
2.55205	49.81
2.56872	49.82
2.58538	49.83
2.60205	49.83
2.61872	49.84
2.63538	49.85
2.65205	49.86
2.66872	49.85
2.68538	49.84
2.70205	49.86
2.71872	49.87
2.73538	49.88
2.75205	49.88
2.76872	49.88
2.78538	49.88
2.80205	49.88
2.81872	49.89
2.83538	49.91
2.85205	49.92
2.86872	49.95
2.88538	49.97
2.90205	49.98
2.91872	50.00
2.93538	50.01
2.95205	50.02
2.96872	50.03
2.98538	50.03
3.00205	50.04
3.01872	50.05
3.03538	50.06
3.05205	50.07
3.06872	50.08
3.08538	50.09
3.10205	50.10
3.11872	50.11
3.13538	50.11
3.15205	50.09
3.16872	50.08
3.18538	50.06
3.20205	50.05
3.21872	50.04
3.23538	50.03
3.25205	50.03
3.26872	50.03
3.28538	50.02
3.30205	50.02
3.31872	50.02
3.33538	50.02
3.35205	50.03
3.36872	50.04
3.38538	50.06
3.40205	50.07
3.41872	50.08
3.43538	50.08
3.45205	50.08
3.46872	50.08
3.48538	50.08
3.50205	50.09
3.51872	50.10
3.53538	50.11
3.55205	50.11
3.56872	50.10
3.58538	50.08
3.60205	50.06
3.61872	50.05
3.63538	50.04
3.65205	50.04
3.66872	50.03
3.68538	50.02
3.70205	50.02
3.71872	50.01
3.73538	50.01
3.75205	50.00
3.76872	50.00
3.78538	50.00
3.80205	50.00
3.81872	50.01
3.83538	50.01
3.85205	50.01
3.86872	50.01
3.88538	50.02
3.90205	50.02
3.91872	50.04
3.93538	50.03
3.95205	50.03
3.96872	50.02
3.98538	50.01

[Status Trace (Injection Unit Temperature)]
Interval(msec)	1000
# of Points	240
Start Time(min)	0.002
End Time(min)	3.985
Intensity Units	
Intensity Multiplier	1
R.Time (min)	Intensity
0.00205	99.98
0.01872	99.98
0.03538	99.98
0.05205	99.98
0.06872	99.99
0.08538	99.99
0.10205	99.98
0.11872	99.98
0.13538	99.98
0.15205	99.98
0.16872	99.98
0.18538	99.98
0.20205	99.99
0.21872	99.98
0.23538	99.99
0.25205	99.99
0.26872	99.99
0.28538	99.99
0.30205	99.99
0.31872	99.99
0.33538	99.99
0.35205	99.99
0.36872	99.99
0.38538	99.99
0.40205	99.99
0.41872	99.99
0.43538	99.99
0.45205	99.99
0.46872	99.99
0.48538	99.99
0.50205	99.99
0.51872	99.99
0.53538	99.99
0.55205	99.99
0.56872	99.99
0.58538	99.99
0.60205	99.99
0.61872	99.99
0.63538	99.99
0.65205	99.98
0.66872	99.99
0.68538	99.99
0.70205	99.99
0.71872	99.99
0.73538	99.99
0.75205	99.98
0.76872	99.99
0.78538	99.99
0.80205	99.99
0.81872	99.99
0.83538	99.98
0.85205	99.98
0.86872	99.99
0.88538	99.98
0.90205	99.98
0.91872	99.98
0.93538	99.99
0.95205	99.99
0.96872	99.99
0.98538	99.98
1.00205	99.98
1.01872	99.99
1.03538	99.99
1.05205	99.98
1.06872	99.98
1.08538	99.98
1.10205	99.98
1.11872	99.99
1.13538	99.99
1.15205	99.99
1.16872	99.99
1.18538	99.99
1.20205	99.99
1.21872	99.99
1.23538	99.99
1.25205	99.98
1.26872	99.99
1.28538	99.99
1.30205	99.99
1.31872	99.99
1.33538	99.99
1.35205	99.99
1.36872	99.99
1.38538	99.99
1.40205	99.99
1.41872	99.99
1.43538	99.99
1.45205	99.99
1.46872	99.99
1.48538	99.99
1.50205	99.99
1.51872	99.99
1.53538	99.99
1.55205	99.99
1.56872	99.99
1.58538	99.99
1.60205	99.98
1.61872	99.99
1.63538	99.99
1.65205	99.99
1.66872	99.99
1.68538	99.99
1.70205	99.99
1.71872	99.99
1.73538	99.98
1.75205	99.98
1.76872	99.99
1.78538	99.99
1.80205	99.98
1.81872	99.98
1.83538	99.98
1.85205	99.98
1.86872	99.99
1.88538	99.98
1.90205	99.98
1.91872	99.98
1.93538	99.98
1.95205	99.98
1.96872	99.98
1.98538	99.98
2.00205	99.98
2.01872	99.98
2.03538	99.97
2.05205	99.97
2.06872	99.98
2.08538	99.98
2.10205	99.97
2.11872	99.97
2.13538	99.97
2.15205	99.97
2.16872	99.97
2.18538	99.97
2.20205	99.97
2.21872	99.96
2.23538	99.97
2.25205	99.97
2.26872	99.97
2.28538	99.97
2.30205	99.96
2.31872	99.97
2.33538	99.96
2.35205	99.97
2.36872	99.97
2.38538	99.96
2.40205	99.96
2.41872	99.96
2.43538	99.97
2.45205	99.97
2.46872	99.97
2.48538	99.97
2.50205	99.97
2.51872	99.97
2.53538	99.97
2.55205	99.97
2.56872	99.97
2.58538	99.97
2.60205	99.98
2.61872	99.97
2.63538	99.97
2.65205	99.98
2.66872	99.98
2.68538	99.98
2.70205	99.99
2.71872	99.98
2.73538	99.99
2.75205	99.99
2.76872	99.99
2.78538	99.99
2.80205	100.00
2.81872	100.00
2.83538	100.00
2.85205	100.00
2.86872	100.00
2.88538	100.00
2.90205	100.01
2.91872	100.01
2.93538	100.01
2.95205	100.01
2.96872	100.01
2.98538	100.01
3.00205	100.01
3.01872	100.01
3.03538	100.02
3.05205	100.02
3.06872	100.02
3.08538	100.02
3.10205	100.02
3.11872	100.02
3.13538	100.02
3.15205	100.03
3.16872	100.03
3.18538	100.03
3.20205	100.02
3.21872	100.03
3.23538	100.03
3.25205	100.03
3.26872	100.03
3.28538	100.04
3.30205	100.04
3.31872	100.04
3.33538	100.04
3.35205	100.04
3.36872	100.04
3.38538	100.04
3.40205	100.04
3.41872	100.04
3.43538	100.04
3.45205	100.04
3.46872	100.04
3.48538	100.05
3.50205	100.05
3.51872	100.04
3.53538	100.05
3.55205	100.05
3.56872	100.05
3.58538	100.05
3.60205	100.05
3.61872	100.05
3.63538	100.05
3.65205	100.05
3.66872	100.05
3.68538	100.05
3.70205	100.05
3.71872	100.05
3.73538	100.05
3.75205	100.05
3.76872	100.06
3.78538	100.04
3.80205	100.05
3.81872	100.05
3.83538	100.05
3.85205	100.05
3.86872	100.05
3.88538	100.05
3.90205	100.05
3.91872	100.05
3.93538	100.05
3.95205	100.05
3.96872	100.05
3.98538	100.05

[Status Trace (Carrier Gas Pressure)]
Interval(msec)	1000
# of Points	240
Start Time(min)	0.002
End Time(min)	3.985
Intensity Units	
Intensity Multiplier	1
R.Time (min)	Intensity
0.00205	58.00
0.01872	56.45
0.03538	56.20
0.05205	58.48
0.06872	59.92
0.08538	58.38
0.10205	57.97
0.11872	58.00
0.13538	58.01
0.15205	58.01
0.16872	58.00
0.18538	58.00
0.20205	58.00
0.21872	58.00
0.23538	58.00
0.25205	58.00
0.26872	58.00
0.28538	58.00
0.30205	58.00
0.31872	58.00
0.33538	58.00
0.35205	58.00
0.36872	58.00
0.38538	58.00
0.40205	58.00
0.41872	58.00
0.43538	58.00
0.45205	58.00
0.46872	58.00
0.48538	58.00
0.50205	58.00
0.51872	58.00
0.53538	58.00
0.55205	58.00
0.56872	58.00
0.58538	58.00
0.60205	58.00
0.61872	58.00
0.63538	58.00
0.65205	58.00
0.66872	58.00
0.68538	58.00
0.70205	58.00
0.71872	58.00
0.73538	58.00
0.75205	58.00
0.76872	58.00
0.78538	58.00
0.80205	58.00
0.81872	58.00
0.83538	58.00
0.85205	58.00
0.86872	58.00
0.88538	58.00
0.90205	58.00
0.91872	58.00
0.93538	58.00
0.95205	58.00
0.96872	58.00
0.98538	58.00
1.00205	58.00
1.01872	58.00
1.03538	58.00
1.05205	58.00
1.06872	58.00
1.08538	58.00
1.10205	58.00
1.11872	58.00
1.13538	58.00
1.15205	58.00
1.16872	58.00
1.18538	58.00
1.20205	58.00
1.21872	58.00
1.23538	58.00
1.25205	58.00
1.26872	58.00
1.28538	58.00
1.30205	58.00
1.31872	58.00
1.33538	58.00
1.35205	58.00
1.36872	58.00
1.38538	58.00
1.40205	58.00
1.41872	58.00
1.43538	58.00
1.45205	58.00
1.46872	58.00
1.48538	58.00
1.50205	58.00
1.51872	58.00
1.53538	58.00
1.55205	58.00
1.56872	58.00
1.58538	58.00
1.60205	58.00
1.61872	58.00
1.63538	58.00
1.65205	58.00
1.66872	58.01
1.68538	58.01
1.70205	58.00
1.71872	58.00
1.73538	58.00
1.75205	58.00
1.76872	58.00
1.78538	58.00
1.80205	58.00
1.81872	58.00
1.83538	58.00
1.85205	58.00
1.86872	58.00
1.88538	58.00
1.90205	58.00
1.91872	58.00
1.93538	58.00
1.95205	58.00
1.96872	58.00
1.98538	58.00
2.00205	58.00
2.01872	58.00
2.03538	58.00
2.05205	58.00
2.06872	58.00
2.08538	58.00
2.10205	58.00
2.11872	58.00
2.13538	58.00
2.15205	58.00
2.16872	58.00
2.18538	58.00
2.20205	58.00
2.21872	58.00
2.23538	58.00
2.25205	58.00
2.26872	58.00
2.28538	58.00
2.30205	58.00
2.31872	58.00
2.33538	58.00
2.35205	58.00
2.36872	58.00
2.38538	57.99
2.40205	57.99
2.41872	58.00
2.43538	58.00
2.45205	58.00
2.46872	58.00
2.48538	58.00
2.50205	57.99
2.51872	57.99
2.53538	57.99
2.55205	58.00
2.56872	58.00
2.58538	58.00
2.60205	58.00
2.61872	58.00
2.63538	58.00
2.65205	58.00
2.66872	58.00
2.68538	58.00
2.70205	58.00
2.71872	58.00
2.73538	58.00
2.75205	58.00
2.76872	58.00
2.78538	58.00
2.80205	58.00
2.81872	58.00
2.83538	58.00
2.85205	58.00
2.86872	58.00
2.88538	58.00
2.90205	58.00
2.91872	58.00
2.93538	58.00
2.95205	58.00
2.96872	58.00
2.98538	58.00
3.00205	58.00
3.01872	58.00
3.03538	58.00
3.05205	58.00
3.06872	58.00
3.08538	58.00
3.10205	58.00
3.11872	58.00
3.13538	58.00
3.15205	58.00
3.16872	58.00
3.18538	58.00
3.20205	58.00
3.21872	58.00
3.23538	58.00
3.25205	58.00
3.26872	58.00
3.28538	58.00
3.30205	58.00
3.31872	58.00
3.33538	58.00
3.35205	58.00
3.36872	58.00
3.38538	58.00
3.40205	58.00
3.41872	58.00
3.43538	58.00
3.45205	58.00
3.46872	58.00
3.48538	58.00
3.50205	58.00
3.51872	58.00
3.53538	58.00
3.55205	58.00
3.56872	58.00
3.58538	58.00
3.60205	58.00
3.61872	58.00
3.63538	58.00
3.65205	58.00
3.66872	58.00
3.68538	58.00
3.70205	58.00
3.71872	58.00
3.73538	58.00
3.75205	58.00
3.76872	58.00
3.78538	58.00
3.80205	58.00
3.81872	58.00
3.83538	58.00
3.85205	58.00
3.86872	58.00
3.88538	58.00
3.90205	58.00
3.91872	58.00
3.93538	58.00
3.95205	58.00
3.96872	58.00
3.98538	58.00

[Status Trace (Carrier Gas Flow)]
Interval(msec)	1000
# of Points	240
Start Time(min)	0.002
End Time(min)	3.985
Intensity Units	
Intensity Multiplier	1
R.Time (min)	Intensity
0.00205	34.52
0.01872	34.37
0.03538	34.54
0.05205	34.56
0.06872	34.50
0.08538	34.52
0.10205	34.52
0.11872	34.52
0.13538	34.51
0.15205	34.51
0.16872	34.51
0.18538	34.52
0.20205	34.52
0.21872	34.53
0.23538	34.52
0.25205	34.52
0.26872	34.52
0.28538	34.52
0.30205	34.52
0.31872	34.52
0.33538	34.52
0.35205	34.51
0.36872	34.52
0.38538	34.51
0.40205	34.53
0.41872	34.53
0.43538	34.51
0.45205	34.53
0.46872	34.51
0.48538	34.52
0.50205	34.52
0.51872	34.52
0.53538	34.51
0.55205	34.52
0.56872	34.52
0.58538	34.52
0.60205	34.52
0.61872	34.52
0.63538	34.52
0.65205	34.52
0.66872	34.52
0.68538	34.52
0.70205	34.52
0.71872	34.52
0.73538	34.52
0.75205	34.52
0.76872	34.52
0.78538	34.52
0.80205	34.52
0.81872	34.52
0.83538	34.52
0.85205	34.52
0.86872	34.52
0.88538	34.52
0.90205	34.52
0.91872	34.52
0.93538	34.52
0.95205	34.52
0.96872	34.52
0.98538	34.52
1.00205	34.52
1.01872	34.52
1.03538	34.52
1.05205	34.52
1.06872	34.52
1.08538	34.52
1.10205	34.52
1.11872	34.52
1.13538	34.52
1.15205	34.52
1.16872	34.52
1.18538	34.52
1.20205	34.52
1.21872	34.52
1.23538	34.52
1.25205	34.52
1.26872	34.52
1.28538	34.52
1.30205	34.52
1.31872	34.52
1.33538	34.52
1.35205	34.52
1.36872	34.52
1.38538	34.52
1.40205	34.52
1.41872	34.52
1.43538	34.52
1.45205	34.52
1.46872	34.52
1.48538	34.52
1.50205	34.52
1.51872	34.52
1.53538	34.52
1.55205	34.52
1.56872	34.52
1.58538	34.52
1.60205	34.52
1.61872	34.52
1.63538	34.52
1.65205	34.52
1.66872	34.52
1.68538	34.52
1.70205	34.52
1.71872	34.52
1.73538	34.52
1.75205	34.52
1.76872	34.52
1.78538	34.52
1.80205	34.52
1.81872	34.52
1.83538	34.52
1.85205	34.52
1.86872	34.52
1.88538	34.52
1.90205	34.52
1.91872	34.52
1.93538	34.52
1.95205	34.51
1.96872	34.52
1.98538	34.52
2.00205	34.52
2.01872	34.53
2.03538	34.52
2.05205	34.51
2.06872	34.52
2.08538	34.53
2.10205	34.52
2.11872	34.52
2.13538	34.52
2.15205	34.52
2.16872	34.52
2.18538	34.52
2.20205	34.52
2.21872	34.52
2.23538	34.52
2.25205	34.52
2.26872	34.52
2.28538	34.52
2.30205	34.52
2.31872	34.52
2.33538	34.52
2.35205	34.52
2.36872	34.52
2.38538	34.54
2.40205	34.52
2.41872	34.52
2.43538	34.52
2.45205	34.52
2.46872	34.52
2.48538	34.52
2.50205	34.55
2.51872	34.52
2.53538	34.52
2.55205	34.52
2.56872	34.52
2.58538	34.52
2.60205	34.52
2.61872	34.52
2.63538	34.52
2.65205	34.52
2.66872	34.52
2.68538	34.52
2.70205	34.52
2.71872	34.52
2.73538	34.52
2.75205	34.52
2.76872	34.52
2.78538	34.52
2.80205	34.52
2.81872	34.52
2.83538	34.52
2.85205	34.52
2.86872	34.52
2.88538	34.52
2.90205	34.52
2.91872	34.52
2.93538	34.52
2.95205	34.52
2.96872	34.52
2.98538	34.52
3.00205	34.52
3.01872	34.52
3.03538	34.52
3.05205	34.52
3.06872	34.52
3.08538	34.52
3.10205	34.52
3.11872	34.52
3.13538	34.51
3.15205	34.52
3.16872	34.52
3.18538	34.52
3.20205	34.52
3.21872	34.52
3.23538	34.52
3.25205	34.52
3.26872	34.52
3.28538	34.52
3.30205	34.52
3.31872	34.52
3.33538	34.52
3.35205	34.52
3.36872	34.52
3.38538	34.52
3.40205	34.52
3.41872	34.52
3.43538	34.52
3.45205	34.52
3.46872	34.52
3.48538	34.52
3.50205	34.52
3.51872	34.52
3.53538	34.52
3.55205	34.52
3.56872	34.52
3.58538	34.52
3.60205	34.52
3.61872	34.52
3.63538	34.52
3.65205	34.52
3.66872	34.52
3.68538	34.52
3.70205	34.52
3.71872	34.52
3.73538	34.52
3.75205	34.52
3.76872	34.52
3.78538	34.52
3.80205	34.52
3.81872	34.52
3.83538	34.52
3.85205	34.52
3.86872	34.52
3.88538	34.52
3.90205	34.52
3.91872	34.52
3.93538	34.52
3.95205	34.52
3.96872	34.51
3.98538	34.51

[Status Trace (Column Flow)]
Interval(msec)	1000
# of Points	240
Start Time(min)	0.002
End Time(min)	3.985
Intensity Units	
Intensity Multiplier	1
R.Time (min)	Intensity
0.00205	5.49
0.01872	5.31
0.03538	5.28
0.05205	5.55
0.06872	5.71
0.08538	5.53
0.10205	5.49
0.11872	5.49
0.13538	5.49
0.15205	5.49
0.16872	5.49
0.18538	5.49
0.20205	5.49
0.21872	5.49
0.23538	5.49
0.25205	5.49
0.26872	5.49
0.28538	5.49
0.30205	5.49
0.31872	5.49
0.33538	5.49
0.35205	5.49
0.36872	5.49
0.38538	5.49
0.40205	5.49
0.41872	5.49
0.43538	5.49
0.45205	5.49
0.46872	5.49
0.48538	5.49
0.50205	5.49
0.51872	5.49
0.53538	5.49
0.55205	5.49
0.56872	5.49
0.58538	5.49
0.60205	5.49
0.61872	5.49
0.63538	5.49
0.65205	5.49
0.66872	5.49
0.68538	5.49
0.70205	5.49
0.71872	5.49
0.73538	5.49
0.75205	5.49
0.76872	5.49
0.78538	5.49
0.80205	5.49
0.81872	5.49
0.83538	5.49
0.85205	5.49
0.86872	5.49
0.88538	5.49
0.90205	5.49
0.91872	5.49
0.93538	5.49
0.95205	5.49
0.96872	5.49
0.98538	5.49
1.00205	5.49
1.01872	5.49
1.03538	5.49
1.05205	5.49
1.06872	5.49
1.08538	5.49
1.10205	5.49
1.11872	5.49
1.13538	5.49
1.15205	5.49
1.16872	5.49
1.18538	5.49
1.20205	5.49
1.21872	5.49
1.23538	5.49
1.25205	5.49
1.26872	5.49
1.28538	5.49
1.30205	5.49
1.31872	5.49
1.33538	5.49
1.35205	5.49
1.36872	5.49
1.38538	5.49
1.40205	5.49
1.41872	5.49
1.43538	5.49
1.45205	5.49
1.46872	5.49
1.48538	5.49
1.50205	5.49
1.51872	5.49
1.53538	5.49
1.55205	5.49
1.56872	5.49
1.58538	5.49
1.60205	5.49
1.61872	5.49
1.63538	5.48
1.65205	5.47
1.66872	5.47
1.68538	5.45
1.70205	5.44
1.71872	5.43
1.73538	5.42
1.75205	5.41
1.76872	5.40
1.78538	5.39
1.80205	5.38
1.81872	5.37
1.83538	5.36
1.85205	5.35
1.86872	5.34
1.88538	5.33
1.90205	5.32
1.91872	5.31
1.93538	5.30
1.95205	5.29
1.96872	5.28
1.98538	5.27
2.00205	5.26
2.01872	5.26
2.03538	5.25
2.05205	5.24
2.06872	5.23
2.08538	5.22
2.10205	5.21
2.11872	5.20
2.13538	5.19
2.15205	5.18
2.16872	5.17
2.18538	5.16
2.20205	5.15
2.21872	5.14
2.23538	5.13
2.25205	5.12
2.26872	5.11
2.28538	5.10
2.30205	5.09
2.31872	5.09
2.33538	5.08
2.35205	5.07
2.36872	5.06
2.38538	5.06
2.40205	5.06
2.41872	5.06
2.43538	5.06
2.45205	5.06
2.46872	5.06
2.48538	5.06
2.50205	5.05
2.51872	5.05
2.53538	5.05
2.55205	5.05
2.56872	5.05
2.58538	5.05
2.60205	5.05
2.61872	5.05
2.63538	5.05
2.65205	5.05
2.66872	5.05
2.68538	5.05
2.70205	5.05
2.71872	5.05
2.73538	5.05
2.75205	5.05
2.76872	5.05
2.78538	5.05
2.80205	5.05
2.81872	5.05
2.83538	5.05
2.85205	5.05
2.86872	5.05
2.88538	5.05
2.90205	5.05
2.91872	5.05
2.93538	5.05
2.95205	5.05
2.96872	5.05
2.98538	5.05
3.00205	5.05
3.01872	5.05
3.03538	5.05
3.05205	5.05
3.06872	5.05
3.08538	5.05
3.10205	5.05
3.11872	5.05
3.13538	5.05
3.15205	5.05
3.16872	5.05
3.18538	5.05
3.20205	5.05
3.21872	5.05
3.23538	5.05
3.25205	5.05
3.26872	5.05
3.28538	5.05
3.30205	5.05
3.31872	5.05
3.33538	5.05
3.35205	5.05
3.36872	5.05
3.38538	5.05
3.40205	5.05
3.41872	5.05
3.43538	5.05
3.45205	5.05
3.46872	5.05
3.48538	5.05
3.50205	5.05
3.51872	5.05
3.53538	5.05
3.55205	5.05
3.56872	5.05
3.58538	5.05
3.60205	5.05
3.61872	5.05
3.63538	5.05
3.65205	5.05
3.66872	5.05
3.68538	5.05
3.70205	5.05
3.71872	5.05
3.73538	5.05
3.75205	5.05
3.76872	5.05
3.78538	5.05
3.80205	5.05
3.81872	5.05
3.83538	5.05
3.85205	5.05
3.86872	5.05
3.88538	5.05
3.90205	5.05
3.91872	5.05
3.93538	5.05
3.95205	5.05
3.96872	5.05
3.98538	5.05

[Status Trace (Linear Velocity)]
Interval(msec)	1000
# of Points	240
Start Time(min)	0.002
End Time(min)	3.985
Intensity Units	
Intensity Multiplier	1
R.Time (min)	Intensity
0.00205	39.01
0.01872	37.99
0.03538	37.82
0.05205	39.32
0.06872	40.26
0.08538	39.26
0.10205	38.99
0.11872	39.01
0.13538	39.01
0.15205	39.01
0.16872	39.01
0.18538	39.01
0.20205	39.01
0.21872	39.01
0.23538	39.01
0.25205	39.01
0.26872	39.01
0.28538	39.01
0.30205	39.01
0.31872	39.01
0.33538	39.01
0.35205	39.01
0.36872	39.01
0.38538	39.01
0.40205	39.01
0.41872	39.01
0.43538	39.01
0.45205	39.01
0.46872	39.01
0.48538	39.01
0.50205	39.01
0.51872	39.01
0.53538	39.01
0.55205	39.02
0.56872	39.01
0.58538	39.01
0.60205	39.01
0.61872	39.01
0.63538	39.01
0.65205	39.01
0.66872	39.01
0.68538	39.01
0.70205	39.01
0.71872	39.01
0.73538	39.01
0.75205	39.01
0.76872	39.01
0.78538	39.01
0.80205	39.01
0.81872	39.01
0.83538	39.01
0.85205	39.01
0.86872	39.01
0.88538	39.01
0.90205	39.01
0.91872	39.01
0.93538	39.01
0.95205	39.01
0.96872	39.01
0.98538	39.01
1.00205	39.01
1.01872	39.01
1.03538	39.01
1.05205	39.01
1.06872	39.01
1.08538	39.01
1.10205	39.01
1.11872	39.01
1.13538	39.01
1.15205	39.01
1.16872	39.01
1.18538	39.01
1.20205	39.01
1.21872	39.01
1.23538	39.01
1.25205	39.01
1.26872	39.01
1.28538	39.01
1.30205	39.01
1.31872	39.01
1.33538	39.01
1.35205	39.01
1.36872	39.01
1.38538	39.01
1.40205	39.01
1.41872	39.01
1.43538	39.01
1.45205	39.01
1.46872	39.01
1.48538	39.01
1.50205	39.01
1.51872	39.01
1.53538	39.01
1.55205	39.01
1.56872	39.01
1.58538	39.01
1.60205	39.01
1.61872	39.00
1.63538	38.98
1.65205	38.96
1.66872	38.94
1.68538	38.90
1.70205	38.86
1.71872	38.83
1.73538	38.80
1.75205	38.77
1.76872	38.74
1.78538	38.71
1.80205	38.67
1.81872	38.64
1.83538	38.61
1.85205	38.58
1.86872	38.55
1.88538	38.52
1.90205	38.49
1.91872	38.46
1.93538	38.43
1.95205	38.40
1.96872	38.37
1.98538	38.34
2.00205	38.31
2.01872	38.28
2.03538	38.25
2.05205	38.22
2.06872	38.19
2.08538	38.16
2.10205	38.12
2.11872	38.10
2.13538	38.07
2.15205	38.03
2.16872	38.01
2.18538	37.98
2.20205	37.95
2.21872	37.92
2.23538	37.89
2.25205	37.86
2.26872	37.83
2.28538	37.80
2.30205	37.77
2.31872	37.74
2.33538	37.71
2.35205	37.68
2.36872	37.66
2.38538	37.65
2.40205	37.65
2.41872	37.65
2.43538	37.65
2.45205	37.65
2.46872	37.65
2.48538	37.65
2.50205	37.64
2.51872	37.64
2.53538	37.64
2.55205	37.64
2.56872	37.64
2.58538	37.64
2.60205	37.64
2.61872	37.64
2.63538	37.64
2.65205	37.64
2.66872	37.64
2.68538	37.64
2.70205	37.64
2.71872	37.64
2.73538	37.64
2.75205	37.64
2.76872	37.64
2.78538	37.64
2.80205	37.64
2.81872	37.64
2.83538	37.63
2.85205	37.63
2.86872	37.63
2.88538	37.63
2.90205	37.63
2.91872	37.63
2.93538	37.62
2.95205	37.62
2.96872	37.62
2.98538	37.62
3.00205	37.62
3.01872	37.62
3.03538	37.62
3.05205	37.62
3.06872	37.62
3.08538	37.62
3.10205	37.62
3.11872	37.62
3.13538	37.62
3.15205	37.62
3.16872	37.62
3.18538	37.62
3.20205	37.62
3.21872	37.62
3.23538	37.62
3.25205	37.62
3.26872	37.62
3.28538	37.62
3.30205	37.62
3.31872	37.62
3.33538	37.62
3.35205	37.62
3.36872	37.62
3.38538	37.62
3.40205	37.62
3.41872	37.62
3.43538	37.62
3.45205	37.62
3.46872	37.62
3.48538	37.62
3.50205	37.62
3.51872	37.62
3.53538	37.62
3.55205	37.62
3.56872	37.62
3.58538	37.62
3.60205	37.62
3.61872	37.62
3.63538	37.62
3.65205	37.62
3.66872	37.62
3.68538	37.62
3.70205	37.62
3.71872	37.62
3.73538	37.62
3.75205	37.63
3.76872	37.63
3.78538	37.63
3.80205	37.63
3.81872	37.63
3.83538	37.62
3.85205	37.62
3.86872	37.62
3.88538	37.62
3.90205	37.62
3.91872	37.62
3.93538	37.62
3.95205	37.62
3.96872	37.62
3.98538	37.62

