[Header]
Application Name	LabSolutions
Version	5.110
Data File Name	C:\Users\User\Desktop\GC Analyses\Jack\UIC Prairie Sampling\7.9.22\220909_112.gcd
Output Date	9/28/2022
Output Time	11:29:56 AM

[File Information]
Type	Data File
Generated	9/20/2022 2:05:14 PM
Generated by	System Administrator
Modified	9/20/2022 2:09:41 PM
Modified by	System Administrator

[Sample Information]
Operator Name	System Administrator
Acquired	9/20/2022 2:05:40 PM
Sample Type	1:Standard
Level	1
Sample Name	220909_Run
Sample ID	220909_Run
ISTD Amount1	1
ISTD Amount2	1
ISTD Amount3	1
ISTD Amount4	1
ISTD Amount5	1
ISTD Amount6	1
ISTD Amount7	1
ISTD Amount8	1
ISTD Amount9	1
ISTD Amount10	1
ISTD Amount11	1
ISTD Amount12	1
ISTD Amount13	1
ISTD Amount14	1
ISTD Amount15	1
ISTD Amount16	1
ISTD Amount17	1
ISTD Amount18	1
ISTD Amount19	1
ISTD Amount20	1
ISTD Amount21	1
ISTD Amount22	1
ISTD Amount23	1
ISTD Amount24	1
ISTD Amount25	1
ISTD Amount26	1
ISTD Amount27	1
ISTD Amount28	1
ISTD Amount29	1
ISTD Amount30	1
ISTD Amount31	1
ISTD Amount32	1
Sample Amount	1
Dilution Factor	1
Vial#	1
Injection Volume	1
Injection Count	1
Bar Code	

[Original Files]
Data File	C:\Users\User\Desktop\GC Analyses\Jack\220909\220909_112.gcd
Method File	C:\LabSolutions\Data\GHG_4min_2022\ghg3_togas_w_acet_4 min_new_int.gcm
Batch File	
Report Format File	c:\LabSolutions\System\DEFAULT.lsr

[File Description]


[Configuration]
Instrument Name	C0B7VH3-Instrument1
Instrument #	1
Line #	1
# of Detectors	3
Detector ID	DET#1	DET#2	DET#3
Detector Name	FID	PTCD	ECD
# of Channels	1	1	1

[Peak Table(Ch1)]
# of Peaks	3
Peak#	R.Time	I.Time	F.Time	Area	Height	A/H	Conc.	Mark	ID#	Name	k'	Plate #	Plate Ht.	Tailing	Resolution	Sep.Factor	Area Ratio	Height Ratio	Conc. %	Norm Conc.
1	1.476	1.439	1.542	21263	9782	2.174	100.000	   	1	CO	0.000	8677	17.287	1.277	0.000	0.000	0	0	16.667	16.667
2	1.571	1.542	1.626	4469	2299	1.944	100.000	 V 	2	CH4	0.065	11198	13.395	1.150	1.553	0.000	0	0	16.667	16.667
3	2.000	1.952	2.253	1259044	620321	2.030	400.000	   	3	CO2	0.355	17699	8.475	1.222	7.179	5.500	0	0	66.667	66.667

[Peak Table(Ch2)]
# of Peaks	0

[Peak Table(Ch3)]
# of Peaks	3
Peak#	R.Time	I.Time	F.Time	Area	Height	A/H	Conc.	Mark	ID#	Name	k'	Plate #	Plate Ht.	Tailing	Resolution	Sep.Factor	Area Ratio	Height Ratio	Conc. %	Norm Conc.
1	2.451	0.992	2.649	18119	454	39.947	0.000	   			0.000	154	975.928	0.574	0.000	0.000	0	0	0.000	0.000
2	2.884	2.664	3.093	21230	4949	4.289	1.000	   	1	N2O	0.177	12713	11.799	1.650	0.969	0.000	0	0	100.000	100.000
3	3.236	3.096	3.929	18185	723	25.163	0.000	   			0.320	289	518.668	2.879	0.815	1.814	0	0	0.000	0.000

[Compound Results(Ch1)]
# of IDs	6
ID#	Name	R.Time	Area	Height	Conc.	Curve	3rd	2nd	1st	Constant	Area Ratio	Height Ratio	Conc. %	Norm Conc.
1	CO	1.476	21263	9782	100.000	Linear	0.000000e+00	0.000000e+00	2.126342e+002	0.000000e+00	0	0	16.667	16.667
2	CH4	1.571	4469	2299	100.000	Linear	0.000000e+00	0.000000e+00	4.469492e+001	0.000000e+00	0	0	16.667	16.667
3	CO2	2.000	1259044	620321	400.000	Linear	0.000000e+00	0.000000e+00	3.147610e+003	0.000000e+00	0	0	66.667	66.667
4	Ethylene	0.000	0	0	0.000	Linear	0.000000e+00	0.000000e+00	0.000000e+00	0.000000e+00	0	0	0.000	0.000
5	Acetylene	0.000	0	0	0.000	Linear	0.000000e+00	0.000000e+00	0.000000e+00	0.000000e+00	0	0	0.000	0.000
6	Ethane	0.000	0	0	0.000	Linear	0.000000e+00	0.000000e+00	0.000000e+00	0.000000e+00	0	0	0.000	0.000

[Compound Results(Ch2)]
# of IDs	5
ID#	Name	R.Time	Area	Height	Conc.	Curve	3rd	2nd	1st	Constant	Area Ratio	Height Ratio	Conc. %	Norm Conc.
1	Hydrogen	0.000	0	0	0.000	Linear	0.000000e+00	0.000000e+00	0.000000e+00	0.000000e+00	0	0	0.000	0.000
2	Oxygen	0.000	0	0	0.000	Linear	0.000000e+00	0.000000e+00	0.000000e+00	0.000000e+00	0	0	0.000	0.000
3	Nitrogen	0.000	0	0	0.000	Linear	0.000000e+00	0.000000e+00	0.000000e+00	0.000000e+00	0	0	0.000	0.000
4	Methane	0.000	0	0	0.000	Linear	0.000000e+00	0.000000e+00	0.000000e+00	0.000000e+00	0	0	0.000	0.000
5	Carbon Monoxide	0.000	0	0	0.000	Linear	0.000000e+00	0.000000e+00	0.000000e+00	0.000000e+00	0	0	0.000	0.000

[Compound Results(Ch3)]
# of IDs	2
ID#	Name	R.Time	Area	Height	Conc.	Curve	3rd	2nd	1st	Constant	Area Ratio	Height Ratio	Conc. %	Norm Conc.
1	N2O	2.884	21230	4949	1.000	Linear	0.000000e+00	0.000000e+00	2.123014e+004	0.000000e+00	0	0	100.000	100.000
2	SF6	0.000	0	0	0.000	Linear	0.000000e+00	0.000000e+00	0.000000e+00	0.000000e+00	0	0	0.000	0.000

[Group Results(Ch1)]
# of Groups	0

[Group Results(Ch2)]
# of Groups	0

[Group Results(Ch3)]
# of Groups	0

[Chromatogram (Ch1)]
Interval(msec)	220
# of Points	1091
Start Time(min)	0.002
End Time(min)	3.998
R.Time (min)	Intensity
0.00167	-30
0.00533	-25
0.00900	-20
0.01267	-15
0.01633	-11
0.02000	-10
0.02367	-13
0.02733	-17
0.03100	-21
0.03467	-21
0.03833	-17
0.04200	-14
0.04567	-14
0.04933	-15
0.05300	-16
0.05667	-15
0.06033	-14
0.06400	-13
0.06767	-14
0.07133	-15
0.07500	-17
0.07867	-20
0.08233	-21
0.08600	-21
0.08967	-19
0.09333	-20
0.09700	-19
0.10067	-18
0.10433	-16
0.10800	-15
0.11167	-15
0.11533	-17
0.11900	-19
0.12267	-25
0.12633	-34
0.13000	-40
0.13367	-40
0.13733	-35
0.14100	-31
0.14467	-25
0.14833	-11
0.15200	4
0.15567	15
0.15933	17
0.16300	17
0.16667	15
0.17033	12
0.17400	12
0.17767	11
0.18133	8
0.18500	5
0.18867	2
0.19233	2
0.19600	5
0.19967	9
0.20333	14
0.20700	19
0.21067	23
0.21433	26
0.21800	27
0.22167	26
0.22533	23
0.22900	20
0.23267	18
0.23633	17
0.24000	15
0.24367	14
0.24733	12
0.25100	10
0.25467	7
0.25833	5
0.26200	5
0.26567	4
0.26933	5
0.27300	9
0.27667	14
0.28033	22
0.28400	30
0.28767	34
0.29133	32
0.29500	28
0.29867	26
0.30233	23
0.30600	20
0.30967	18
0.31333	17
0.31700	16
0.32067	16
0.32433	16
0.32800	16
0.33167	15
0.33533	13
0.33900	9
0.34267	10
0.34633	14
0.35000	17
0.35367	18
0.35733	20
0.36100	23
0.36467	24
0.36833	24
0.37200	25
0.37567	24
0.37933	20
0.38300	15
0.38667	10
0.39033	2
0.39400	-5
0.39767	-8
0.40133	-7
0.40500	-6
0.40867	-5
0.41233	-6
0.41600	-3
0.41967	1
0.42333	5
0.42700	5
0.43067	3
0.43433	2
0.43800	1
0.44167	-2
0.44533	-3
0.44900	-6
0.45267	-8
0.45633	-8
0.46000	-7
0.46367	-6
0.46733	-4
0.47100	3
0.47467	11
0.47833	16
0.48200	17
0.48567	14
0.48933	7
0.49300	-0
0.49667	-6
0.50033	-5
0.50400	1
0.50767	7
0.51133	13
0.51500	15
0.51867	14
0.52233	10
0.52600	4
0.52967	-6
0.53333	-13
0.53700	-14
0.54067	-14
0.54433	-12
0.54800	-9
0.55167	-8
0.55533	-13
0.55900	-16
0.56267	-18
0.56633	-20
0.57000	-22
0.57367	-22
0.57733	-24
0.58100	-26
0.58467	-26
0.58833	-24
0.59200	-25
0.59567	-27
0.59933	-26
0.60300	-28
0.60667	-31
0.61033	-33
0.61400	-32
0.61767	-29
0.62133	-26
0.62500	-21
0.62867	-17
0.63233	-16
0.63600	-15
0.63967	-15
0.64333	-16
0.64700	-17
0.65067	-18
0.65433	-20
0.65800	-22
0.66167	-25
0.66533	-26
0.66900	-26
0.67267	-25
0.67633	-24
0.68000	-25
0.68367	-26
0.68733	-24
0.69100	-23
0.69467	-23
0.69833	-26
0.70200	-30
0.70567	-30
0.70933	-27
0.71300	-23
0.71667	-20
0.72033	-19
0.72400	-18
0.72767	-18
0.73133	-19
0.73500	-22
0.73867	-27
0.74233	-32
0.74600	-35
0.74967	-38
0.75333	-41
0.75700	-42
0.76067	-39
0.76433	-34
0.76800	-29
0.77167	-27
0.77533	-29
0.77900	-30
0.78267	-30
0.78633	-31
0.79000	-35
0.79367	-37
0.79733	-36
0.80100	-37
0.80467	-39
0.80833	-37
0.81200	-32
0.81567	-30
0.81933	-30
0.82300	-31
0.82667	-31
0.83033	-32
0.83400	-35
0.83767	-42
0.84133	-48
0.84500	-55
0.84867	-59
0.85233	-60
0.85600	-60
0.85967	-62
0.86333	-64
0.86700	-68
0.87067	-72
0.87433	-70
0.87800	-62
0.88167	-54
0.88533	-51
0.88900	-53
0.89267	-55
0.89633	-57
0.90000	-59
0.90367	-60
0.90733	-57
0.91100	-54
0.91467	-53
0.91833	-56
0.92200	-58
0.92567	-57
0.92933	-56
0.93300	-56
0.93667	-54
0.94033	-50
0.94400	-48
0.94767	-47
0.95133	-47
0.95500	-48
0.95867	-51
0.96233	-55
0.96600	-57
0.96967	-56
0.97333	-55
0.97700	-52
0.98067	-47
0.98433	-49
0.98800	-54
0.99167	-57
0.99533	-59
0.99900	-63
1.00267	-69
1.00633	-74
1.01000	-76
1.01367	-76
1.01733	-74
1.02100	-69
1.02467	-63
1.02833	-59
1.03200	-54
1.03567	-50
1.03933	-50
1.04300	-55
1.04667	-63
1.05033	-71
1.05400	-77
1.05767	-77
1.06133	-75
1.06500	-75
1.06867	-75
1.07233	-78
1.07600	-78
1.07967	-75
1.08333	-68
1.08700	-62
1.09067	-63
1.09433	-68
1.09800	-74
1.10167	-80
1.10533	-84
1.10900	-88
1.11267	-91
1.11633	-93
1.12000	-91
1.12367	-91
1.12733	-92
1.13100	-89
1.13467	-82
1.13833	-77
1.14200	-75
1.14567	-73
1.14933	-73
1.15300	-71
1.15667	-68
1.16033	-70
1.16400	-73
1.16767	-75
1.17133	-74
1.17500	-74
1.17867	-76
1.18233	-81
1.18600	-86
1.18967	-91
1.19333	-93
1.19700	-91
1.20067	-91
1.20433	-90
1.20800	-86
1.21167	-82
1.21533	-79
1.21900	-77
1.22267	-75
1.22633	-74
1.23000	-76
1.23367	-80
1.23733	-83
1.24100	-86
1.24467	-86
1.24833	-85
1.25200	-85
1.25567	-85
1.25933	-84
1.26300	-82
1.26667	-77
1.27033	-71
1.27400	-71
1.27767	-75
1.28133	-79
1.28500	-81
1.28867	-84
1.29233	-86
1.29600	-90
1.29967	-96
1.30333	-102
1.30700	-107
1.31067	-111
1.31433	-115
1.31800	-118
1.32167	-119
1.32533	-121
1.32900	-117
1.33267	-113
1.33633	-114
1.34000	-113
1.34367	-110
1.34733	-105
1.35100	-97
1.35467	-93
1.35833	-93
1.36200	-96
1.36567	-100
1.36933	-105
1.37300	-109
1.37667	-112
1.38033	-113
1.38400	-112
1.38767	-109
1.39133	-107
1.39500	-107
1.39867	-108
1.40233	-105
1.40600	-99
1.40967	-94
1.41333	-94
1.41700	-99
1.42067	-104
1.42433	-108
1.42800	-111
1.43167	-115
1.43533	-116
1.43900	-106
1.44267	-37
1.44633	200
1.45000	717
1.45367	1642
1.45733	3084
1.46100	4883
1.46467	6672
1.46833	8151
1.47200	9172
1.47567	9668
1.47933	9594
1.48300	8945
1.48667	7817
1.49033	6416
1.49400	4983
1.49767	3704
1.50133	2662
1.50500	1863
1.50867	1273
1.51233	848
1.51600	548
1.51967	341
1.52333	202
1.52700	107
1.53067	39
1.53433	-12
1.53800	-46
1.54167	-48
1.54533	31
1.54900	247
1.55267	610
1.55633	1050
1.56000	1477
1.56367	1822
1.56733	2063
1.57100	2164
1.57467	2092
1.57833	1855
1.58200	1505
1.58567	1122
1.58933	774
1.59300	493
1.59667	283
1.60033	134
1.60400	31
1.60767	-39
1.61133	-85
1.61500	-114
1.61867	-132
1.62233	-142
1.62600	-147
1.62967	-151
1.63333	-155
1.63700	-156
1.64067	-150
1.64433	-143
1.64800	-139
1.65167	-139
1.65533	-140
1.65900	-142
1.66267	-146
1.66633	-153
1.67000	-158
1.67367	-161
1.67733	-163
1.68100	-164
1.68467	-165
1.68833	-167
1.69200	-168
1.69567	-164
1.69933	-161
1.70300	-156
1.70667	-152
1.71033	-152
1.71400	-152
1.71767	-150
1.72133	-147
1.72500	-140
1.72867	-134
1.73233	-132
1.73600	-133
1.73967	-135
1.74333	-139
1.74700	-141
1.75067	-140
1.75433	-140
1.75800	-140
1.76167	-139
1.76533	-141
1.76900	-145
1.77267	-147
1.77633	-147
1.78000	-148
1.78367	-149
1.78733	-149
1.79100	-149
1.79467	-146
1.79833	-132
1.80200	-122
1.80567	-117
1.80933	-120
1.81300	-126
1.81667	-127
1.82033	-128
1.82400	-129
1.82767	-132
1.83133	-136
1.83500	-138
1.83867	-137
1.84233	-137
1.84600	-140
1.84967	-144
1.85333	-148
1.85700	-152
1.86067	-151
1.86433	-143
1.86800	-136
1.87167	-131
1.87533	-130
1.87900	-131
1.88267	-131
1.88633	-134
1.89000	-139
1.89367	-143
1.89733	-149
1.90100	-153
1.90467	-155
1.90833	-152
1.91200	-148
1.91567	-141
1.91933	-133
1.92300	-128
1.92667	-124
1.93033	-120
1.93400	-116
1.93767	-120
1.94133	-129
1.94500	-136
1.94867	-139
1.95233	-138
1.95600	-114
1.95967	43
1.96333	902
1.96700	4561
1.97067	16479
1.97433	46407
1.97800	105073
1.98167	195989
1.98533	309605
1.98900	426747
1.99267	527061
1.99633	594851
2.00000	620216
2.00367	600141
2.00733	540371
2.01100	454653
2.01467	359842
2.01833	270352
2.02200	194897
2.02567	136307
2.02933	93433
2.03300	63339
2.03667	42803
2.04033	29039
2.04400	19906
2.04767	13865
2.05133	9861
2.05500	7184
2.05867	5373
2.06233	4126
2.06600	3248
2.06967	2614
2.07333	2142
2.07700	1782
2.08067	1508
2.08433	1295
2.08800	1128
2.09167	994
2.09533	884
2.09900	794
2.10267	718
2.10633	654
2.11000	598
2.11367	550
2.11733	510
2.12100	474
2.12467	444
2.12833	416
2.13200	387
2.13567	361
2.13933	338
2.14300	319
2.14667	302
2.15033	286
2.15400	269
2.15767	250
2.16133	235
2.16500	222
2.16867	211
2.17233	202
2.17600	198
2.17967	194
2.18333	189
2.18700	182
2.19067	173
2.19433	165
2.19800	159
2.20167	153
2.20533	148
2.20900	142
2.21267	134
2.21633	127
2.22000	123
2.22367	120
2.22733	116
2.23100	113
2.23467	109
2.23833	102
2.24200	92
2.24567	83
2.24933	76
2.25300	74
2.25667	77
2.26033	77
2.26400	74
2.26767	73
2.27133	75
2.27500	76
2.27867	77
2.28233	78
2.28600	79
2.28967	80
2.29333	77
2.29700	76
2.30067	78
2.30433	80
2.30800	77
2.31167	72
2.31533	70
2.31900	70
2.32267	70
2.32633	68
2.33000	61
2.33367	52
2.33733	43
2.34100	33
2.34467	24
2.34833	20
2.35200	27
2.35567	33
2.35933	34
2.36300	31
2.36667	20
2.37033	18
2.37400	17
2.37767	20
2.38133	25
2.38500	26
2.38867	27
2.39233	27
2.39600	28
2.39967	33
2.40333	39
2.40700	43
2.41067	44
2.41433	44
2.41800	45
2.42167	47
2.42533	47
2.42900	41
2.43267	33
2.43633	28
2.44000	25
2.44367	23
2.44733	21
2.45100	19
2.45467	19
2.45833	18
2.46200	13
2.46567	10
2.46933	5
2.47300	-1
2.47667	-4
2.48033	-6
2.48400	-6
2.48767	-3
2.49133	-1
2.49500	2
2.49867	5
2.50233	10
2.50600	18
2.50967	25
2.51333	27
2.51700	27
2.52067	25
2.52433	23
2.52800	19
2.53167	16
2.53533	14
2.53900	17
2.54267	20
2.54633	22
2.55000	18
2.55367	11
2.55733	2
2.56100	-8
2.56467	-12
2.56833	-15
2.57200	-19
2.57567	-17
2.57933	-12
2.58300	-7
2.58667	-5
2.59033	-6
2.59400	-10
2.59767	-13
2.60133	-10
2.60500	-4
2.60867	2
2.61233	2
2.61600	-2
2.61967	-8
2.62333	-17
2.62700	-26
2.63067	-31
2.63433	-32
2.63800	-30
2.64167	-25
2.64533	-18
2.64900	-10
2.65267	-2
2.65633	3
2.66000	1
2.66367	-5
2.66733	-11
2.67100	-15
2.67467	-18
2.67833	-24
2.68200	-28
2.68567	-29
2.68933	-28
2.69300	-28
2.69667	-26
2.70033	-25
2.70400	-25
2.70767	-26
2.71133	-27
2.71500	-31
2.71867	-34
2.72233	-33
2.72600	-29
2.72967	-28
2.73333	-32
2.73700	-35
2.74067	-35
2.74433	-35
2.74800	-36
2.75167	-40
2.75533	-46
2.75900	-50
2.76267	-48
2.76633	-41
2.77000	-35
2.77367	-31
2.77733	-29
2.78100	-31
2.78467	-32
2.78833	-31
2.79200	-30
2.79567	-29
2.79933	-28
2.80300	-27
2.80667	-24
2.81033	-20
2.81400	-18
2.81767	-18
2.82133	-23
2.82500	-32
2.82867	-40
2.83233	-48
2.83600	-51
2.83967	-51
2.84333	-50
2.84700	-49
2.85067	-49
2.85433	-48
2.85800	-45
2.86167	-40
2.86533	-35
2.86900	-35
2.87267	-40
2.87633	-44
2.88000	-46
2.88367	-49
2.88733	-53
2.89100	-57
2.89467	-60
2.89833	-61
2.90200	-60
2.90567	-54
2.90933	-47
2.91300	-44
2.91667	-44
2.92033	-47
2.92400	-48
2.92767	-48
2.93133	-48
2.93500	-48
2.93867	-48
2.94233	-45
2.94600	-42
2.94967	-38
2.95333	-36
2.95700	-37
2.96067	-38
2.96433	-38
2.96800	-39
2.97167	-39
2.97533	-39
2.97900	-40
2.98267	-43
2.98633	-44
2.99000	-42
2.99367	-38
2.99733	-32
3.00100	-26
3.00467	-24
3.00833	-26
3.01200	-30
3.01567	-36
3.01933	-39
3.02300	-39
3.02667	-40
3.03033	-37
3.03400	-37
3.03767	-39
3.04133	-44
3.04500	-47
3.04867	-47
3.05233	-47
3.05600	-47
3.05967	-47
3.06333	-46
3.06700	-43
3.07067	-38
3.07433	-36
3.07800	-37
3.08167	-39
3.08533	-38
3.08900	-37
3.09267	-39
3.09633	-42
3.10000	-44
3.10367	-44
3.10733	-43
3.11100	-39
3.11467	-39
3.11833	-41
3.12200	-46
3.12567	-53
3.12933	-60
3.13300	-59
3.13667	-51
3.14033	-46
3.14400	-45
3.14767	-44
3.15133	-44
3.15500	-49
3.15867	-54
3.16233	-58
3.16600	-58
3.16967	-54
3.17333	-52
3.17700	-57
3.18067	-63
3.18433	-67
3.18800	-67
3.19167	-62
3.19533	-51
3.19900	-42
3.20267	-36
3.20633	-36
3.21000	-37
3.21367	-36
3.21733	-36
3.22100	-39
3.22467	-42
3.22833	-45
3.23200	-47
3.23567	-48
3.23933	-47
3.24300	-44
3.24667	-39
3.25033	-34
3.25400	-35
3.25767	-40
3.26133	-47
3.26500	-52
3.26867	-55
3.27233	-57
3.27600	-57
3.27967	-55
3.28333	-53
3.28700	-51
3.29067	-47
3.29433	-42
3.29800	-39
3.30167	-37
3.30533	-36
3.30900	-34
3.31267	-29
3.31633	-21
3.32000	-15
3.32367	-17
3.32733	-22
3.33100	-33
3.33467	-48
3.33833	-61
3.34200	-69
3.34567	-71
3.34933	-68
3.35300	-61
3.35667	-58
3.36033	-60
3.36400	-61
3.36767	-61
3.37133	-60
3.37500	-60
3.37867	-62
3.38233	-63
3.38600	-66
3.38967	-70
3.39333	-74
3.39700	-79
3.40067	-81
3.40433	-80
3.40800	-76
3.41167	-71
3.41533	-65
3.41900	-64
3.42267	-67
3.42633	-68
3.43000	-63
3.43367	-57
3.43733	-53
3.44100	-50
3.44467	-49
3.44833	-48
3.45200	-47
3.45567	-46
3.45933	-49
3.46300	-55
3.46667	-59
3.47033	-61
3.47400	-59
3.47767	-56
3.48133	-49
3.48500	-43
3.48867	-40
3.49233	-39
3.49600	-36
3.49967	-36
3.50333	-39
3.50700	-44
3.51067	-54
3.51433	-67
3.51800	-80
3.52167	-90
3.52533	-95
3.52900	-95
3.53267	-95
3.53633	-94
3.54000	-88
3.54367	-80
3.54733	-73
3.55100	-72
3.55467	-76
3.55833	-81
3.56200	-83
3.56567	-82
3.56933	-78
3.57300	-74
3.57667	-69
3.58033	-62
3.58400	-53
3.58767	-45
3.59133	-43
3.59500	-45
3.59867	-49
3.60233	-52
3.60600	-51
3.60967	-49
3.61333	-49
3.61700	-55
3.62067	-64
3.62433	-70
3.62800	-73
3.63167	-74
3.63533	-74
3.63900	-68
3.64267	-60
3.64633	-52
3.65000	-49
3.65367	-51
3.65733	-56
3.66100	-58
3.66467	-56
3.66833	-52
3.67200	-53
3.67567	-59
3.67933	-65
3.68300	-68
3.68667	-67
3.69033	-66
3.69400	-68
3.69767	-72
3.70133	-76
3.70500	-79
3.70867	-78
3.71233	-74
3.71600	-71
3.71967	-71
3.72333	-73
3.72700	-76
3.73067	-76
3.73433	-72
3.73800	-63
3.74167	-54
3.74533	-50
3.74900	-51
3.75267	-57
3.75633	-65
3.76000	-74
3.76367	-81
3.76733	-84
3.77100	-83
3.77467	-79
3.77833	-74
3.78200	-69
3.78567	-65
3.78933	-62
3.79300	-60
3.79667	-58
3.80033	-58
3.80400	-58
3.80767	-59
3.81133	-61
3.81500	-62
3.81867	-63
3.82233	-63
3.82600	-62
3.82967	-64
3.83333	-68
3.83700	-72
3.84067	-72
3.84433	-68
3.84800	-65
3.85167	-63
3.85533	-63
3.85900	-62
3.86267	-62
3.86633	-62
3.87000	-61
3.87367	-61
3.87733	-65
3.88100	-72
3.88467	-79
3.88833	-82
3.89200	-82
3.89567	-82
3.89933	-82
3.90300	-80
3.90667	-72
3.91033	-65
3.91400	-61
3.91767	-62
3.92133	-63
3.92500	-63
3.92867	-61
3.93233	-60
3.93600	-62
3.93967	-65
3.94333	-66
3.94700	-64
3.95067	-63
3.95433	-63
3.95800	-65
3.96167	-68
3.96533	-74
3.96900	-80
3.97267	-85
3.97633	-89
3.98000	-90
3.98367	-88
3.98733	-84
3.99100	-81
3.99467	-79
3.99833	-82

[Chromatogram (Ch2)]
Interval(msec)	220
# of Points	1091
Start Time(min)	0.002
End Time(min)	3.998
R.Time (min)	Intensity
0.00167	0
0.00533	1
0.00900	1
0.01267	2
0.01633	2
0.02000	2
0.02367	3
0.02733	3
0.03100	4
0.03467	4
0.03833	4
0.04200	4
0.04567	5
0.04933	5
0.05300	5
0.05667	5
0.06033	5
0.06400	6
0.06767	6
0.07133	6
0.07500	6
0.07867	6
0.08233	6
0.08600	6
0.08967	6
0.09333	6
0.09700	6
0.10067	6
0.10433	6
0.10800	6
0.11167	6
0.11533	6
0.11900	6
0.12267	6
0.12633	5
0.13000	5
0.13367	5
0.13733	5
0.14100	4
0.14467	4
0.14833	4
0.15200	3
0.15567	3
0.15933	3
0.16300	3
0.16667	3
0.17033	3
0.17400	3
0.17767	3
0.18133	3
0.18500	3
0.18867	3
0.19233	3
0.19600	3
0.19967	3
0.20333	3
0.20700	4
0.21067	4
0.21433	4
0.21800	4
0.22167	4
0.22533	4
0.22900	4
0.23267	4
0.23633	4
0.24000	4
0.24367	4
0.24733	4
0.25100	4
0.25467	4
0.25833	4
0.26200	3
0.26567	3
0.26933	3
0.27300	3
0.27667	3
0.28033	2
0.28400	2
0.28767	2
0.29133	1
0.29500	1
0.29867	1
0.30233	1
0.30600	1
0.30967	1
0.31333	1
0.31700	1
0.32067	0
0.32433	-0
0.32800	-0
0.33167	-0
0.33533	-0
0.33900	-0
0.34267	-0
0.34633	-0
0.35000	0
0.35367	0
0.35733	0
0.36100	0
0.36467	0
0.36833	0
0.37200	0
0.37567	0
0.37933	0
0.38300	0
0.38667	0
0.39033	-0
0.39400	-0
0.39767	-0
0.40133	-0
0.40500	-0
0.40867	-0
0.41233	-0
0.41600	-0
0.41967	-0
0.42333	-0
0.42700	-0
0.43067	-0
0.43433	-0
0.43800	-0
0.44167	-0
0.44533	-0
0.44900	-0
0.45267	-1
0.45633	-1
0.46000	-0
0.46367	-0
0.46733	0
0.47100	0
0.47467	1
0.47833	1
0.48200	1
0.48567	0
0.48933	0
0.49300	0
0.49667	1
0.50033	1
0.50400	1
0.50767	1
0.51133	1
0.51500	1
0.51867	1
0.52233	1
0.52600	1
0.52967	0
0.53333	0
0.53700	0
0.54067	0
0.54433	1
0.54800	1
0.55167	1
0.55533	1
0.55900	1
0.56267	1
0.56633	0
0.57000	0
0.57367	-0
0.57733	-0
0.58100	-0
0.58467	-0
0.58833	-1
0.59200	-1
0.59567	-1
0.59933	-1
0.60300	-2
0.60667	-2
0.61033	-2
0.61400	-2
0.61767	-2
0.62133	-2
0.62500	-2
0.62867	-2
0.63233	-2
0.63600	-2
0.63967	-2
0.64333	-2
0.64700	-2
0.65067	-2
0.65433	-2
0.65800	-2
0.66167	-2
0.66533	-2
0.66900	-2
0.67267	-3
0.67633	-3
0.68000	-3
0.68367	-3
0.68733	-3
0.69100	-3
0.69467	-3
0.69833	-3
0.70200	-3
0.70567	-2
0.70933	-2
0.71300	-1
0.71667	-1
0.72033	-0
0.72400	0
0.72767	0
0.73133	1
0.73500	1
0.73867	1
0.74233	1
0.74600	1
0.74967	1
0.75333	1
0.75700	0
0.76067	0
0.76433	0
0.76800	-0
0.77167	-0
0.77533	-0
0.77900	-0
0.78267	-0
0.78633	-1
0.79000	-1
0.79367	-1
0.79733	-1
0.80100	-0
0.80467	-0
0.80833	-1
0.81200	-1
0.81567	-0
0.81933	-0
0.82300	-0
0.82667	-0
0.83033	-0
0.83400	0
0.83767	0
0.84133	0
0.84500	1
0.84867	1
0.85233	1
0.85600	1
0.85967	1
0.86333	1
0.86700	1
0.87067	1
0.87433	1
0.87800	1
0.88167	1
0.88533	1
0.88900	2
0.89267	2
0.89633	2
0.90000	2
0.90367	2
0.90733	2
0.91100	1
0.91467	1
0.91833	1
0.92200	1
0.92567	1
0.92933	1
0.93300	1
0.93667	1
0.94033	0
0.94400	0
0.94767	0
0.95133	-0
0.95500	0
0.95867	0
0.96233	0
0.96600	0
0.96967	0
0.97333	-0
0.97700	-0
0.98067	-1
0.98433	-1
0.98800	-2
0.99167	-2
0.99533	-2
0.99900	-3
1.00267	-3
1.00633	-4
1.01000	-4
1.01367	-4
1.01733	-4
1.02100	-4
1.02467	-4
1.02833	-4
1.03200	-4
1.03567	-4
1.03933	-4
1.04300	-3
1.04667	-3
1.05033	-3
1.05400	-2
1.05767	-2
1.06133	-2
1.06500	-2
1.06867	-1
1.07233	-1
1.07600	-1
1.07967	-0
1.08333	-1
1.08700	-1
1.09067	-1
1.09433	-1
1.09800	-1
1.10167	-1
1.10533	-1
1.10900	-1
1.11267	-1
1.11633	-1
1.12000	-2
1.12367	-2
1.12733	-1
1.13100	-1
1.13467	-1
1.13833	-1
1.14200	-1
1.14567	-1
1.14933	-0
1.15300	-0
1.15667	-0
1.16033	-0
1.16400	-0
1.16767	-0
1.17133	0
1.17500	0
1.17867	0
1.18233	1
1.18600	0
1.18967	0
1.19333	-0
1.19700	-0
1.20067	-0
1.20433	-0
1.20800	-0
1.21167	-0
1.21533	-0
1.21900	-0
1.22267	-0
1.22633	-0
1.23000	-0
1.23367	-0
1.23733	-0
1.24100	-0
1.24467	-0
1.24833	0
1.25200	0
1.25567	0
1.25933	0
1.26300	0
1.26667	0
1.27033	0
1.27400	1
1.27767	1
1.28133	1
1.28500	1
1.28867	1
1.29233	1
1.29600	0
1.29967	0
1.30333	-0
1.30700	-0
1.31067	-1
1.31433	-1
1.31800	-1
1.32167	-1
1.32533	-1
1.32900	-1
1.33267	-1
1.33633	-1
1.34000	-1
1.34367	-1
1.34733	-1
1.35100	-1
1.35467	-1
1.35833	-1
1.36200	-1
1.36567	-1
1.36933	-1
1.37300	-1
1.37667	-0
1.38033	-0
1.38400	-0
1.38767	-0
1.39133	0
1.39500	0
1.39867	0
1.40233	0
1.40600	0
1.40967	0
1.41333	0
1.41700	0
1.42067	0
1.42433	0
1.42800	0
1.43167	-0
1.43533	-0
1.43900	-0
1.44267	-0
1.44633	-0
1.45000	-0
1.45367	-1
1.45733	-1
1.46100	-1
1.46467	-1
1.46833	-1
1.47200	-1
1.47567	-2
1.47933	-2
1.48300	-2
1.48667	-2
1.49033	-2
1.49400	-3
1.49767	-3
1.50133	-3
1.50500	-3
1.50867	-3
1.51233	-3
1.51600	-3
1.51967	-3
1.52333	-3
1.52700	-3
1.53067	-3
1.53433	-3
1.53800	-3
1.54167	-3
1.54533	-3
1.54900	-2
1.55267	-2
1.55633	-2
1.56000	-2
1.56367	-2
1.56733	-2
1.57100	-2
1.57467	-2
1.57833	-2
1.58200	-2
1.58567	-3
1.58933	-3
1.59300	-3
1.59667	-4
1.60033	-4
1.60400	-5
1.60767	-6
1.61133	-8
1.61500	-9
1.61867	-11
1.62233	-14
1.62600	-17
1.62967	-20
1.63333	-23
1.63700	-27
1.64067	-31
1.64433	-34
1.64800	-38
1.65167	-42
1.65533	-45
1.65900	-48
1.66267	-52
1.66633	-56
1.67000	-60
1.67367	-64
1.67733	-69
1.68100	-74
1.68467	-79
1.68833	-83
1.69200	-88
1.69567	-91
1.69933	-95
1.70300	-98
1.70667	-100
1.71033	-103
1.71400	-105
1.71767	-106
1.72133	-108
1.72500	-109
1.72867	-110
1.73233	-111
1.73600	-111
1.73967	-112
1.74333	-112
1.74700	-113
1.75067	-113
1.75433	-113
1.75800	-112
1.76167	-113
1.76533	-113
1.76900	-114
1.77267	-115
1.77633	-116
1.78000	-117
1.78367	-118
1.78733	-119
1.79100	-120
1.79467	-120
1.79833	-120
1.80200	-120
1.80567	-119
1.80933	-119
1.81300	-118
1.81667	-118
1.82033	-118
1.82400	-119
1.82767	-120
1.83133	-121
1.83500	-121
1.83867	-122
1.84233	-122
1.84600	-122
1.84967	-121
1.85333	-121
1.85700	-120
1.86067	-119
1.86433	-118
1.86800	-118
1.87167	-118
1.87533	-118
1.87900	-118
1.88267	-118
1.88633	-118
1.89000	-118
1.89367	-118
1.89733	-118
1.90100	-118
1.90467	-118
1.90833	-118
1.91200	-118
1.91567	-117
1.91933	-117
1.92300	-117
1.92667	-117
1.93033	-116
1.93400	-116
1.93767	-116
1.94133	-116
1.94500	-116
1.94867	-117
1.95233	-117
1.95600	-117
1.95967	-117
1.96333	-117
1.96700	-117
1.97067	-116
1.97433	-116
1.97800	-116
1.98167	-115
1.98533	-115
1.98900	-115
1.99267	-115
1.99633	-115
2.00000	-115
2.00367	-115
2.00733	-114
2.01100	-113
2.01467	-113
2.01833	-112
2.02200	-112
2.02567	-111
2.02933	-111
2.03300	-111
2.03667	-111
2.04033	-111
2.04400	-111
2.04767	-111
2.05133	-111
2.05500	-111
2.05867	-111
2.06233	-111
2.06600	-110
2.06967	-110
2.07333	-109
2.07700	-109
2.08067	-108
2.08433	-108
2.08800	-108
2.09167	-108
2.09533	-108
2.09900	-108
2.10267	-108
2.10633	-108
2.11000	-107
2.11367	-107
2.11733	-106
2.12100	-105
2.12467	-104
2.12833	-103
2.13200	-103
2.13567	-102
2.13933	-102
2.14300	-102
2.14667	-102
2.15033	-102
2.15400	-101
2.15767	-101
2.16133	-100
2.16500	-100
2.16867	-100
2.17233	-100
2.17600	-100
2.17967	-100
2.18333	-99
2.18700	-99
2.19067	-99
2.19433	-98
2.19800	-98
2.20167	-97
2.20533	-97
2.20900	-96
2.21267	-96
2.21633	-95
2.22000	-95
2.22367	-95
2.22733	-94
2.23100	-93
2.23467	-93
2.23833	-92
2.24200	-92
2.24567	-92
2.24933	-92
2.25300	-91
2.25667	-91
2.26033	-91
2.26400	-91
2.26767	-91
2.27133	-92
2.27500	-92
2.27867	-92
2.28233	-92
2.28600	-92
2.28967	-91
2.29333	-91
2.29700	-91
2.30067	-91
2.30433	-91
2.30800	-91
2.31167	-91
2.31533	-90
2.31900	-90
2.32267	-90
2.32633	-90
2.33000	-90
2.33367	-89
2.33733	-88
2.34100	-87
2.34467	-86
2.34833	-86
2.35200	-85
2.35567	-84
2.35933	-83
2.36300	-83
2.36667	-83
2.37033	-83
2.37400	-82
2.37767	-80
2.38133	-78
2.38500	-75
2.38867	-72
2.39233	-68
2.39600	-64
2.39967	-60
2.40333	-56
2.40700	-51
2.41067	-46
2.41433	-41
2.41800	-36
2.42167	-32
2.42533	-28
2.42900	-25
2.43267	-22
2.43633	-20
2.44000	-17
2.44367	-15
2.44733	-13
2.45100	-10
2.45467	-8
2.45833	-6
2.46200	-5
2.46567	-4
2.46933	-3
2.47300	-2
2.47667	-1
2.48033	-0
2.48400	1
2.48767	2
2.49133	4
2.49500	5
2.49867	5
2.50233	6
2.50600	6
2.50967	7
2.51333	8
2.51700	8
2.52067	9
2.52433	10
2.52800	10
2.53167	11
2.53533	11
2.53900	11
2.54267	12
2.54633	12
2.55000	11
2.55367	12
2.55733	12
2.56100	12
2.56467	12
2.56833	13
2.57200	13
2.57567	13
2.57933	13
2.58300	14
2.58667	14
2.59033	14
2.59400	15
2.59767	15
2.60133	15
2.60500	16
2.60867	16
2.61233	16
2.61600	16
2.61967	17
2.62333	17
2.62700	17
2.63067	17
2.63433	17
2.63800	18
2.64167	18
2.64533	18
2.64900	18
2.65267	18
2.65633	18
2.66000	18
2.66367	18
2.66733	19
2.67100	19
2.67467	19
2.67833	19
2.68200	20
2.68567	20
2.68933	20
2.69300	21
2.69667	21
2.70033	21
2.70400	22
2.70767	22
2.71133	23
2.71500	23
2.71867	23
2.72233	23
2.72600	23
2.72967	22
2.73333	22
2.73700	22
2.74067	22
2.74433	22
2.74800	22
2.75167	22
2.75533	22
2.75900	22
2.76267	22
2.76633	23
2.77000	23
2.77367	23
2.77733	24
2.78100	24
2.78467	24
2.78833	23
2.79200	23
2.79567	23
2.79933	23
2.80300	23
2.80667	23
2.81033	23
2.81400	23
2.81767	23
2.82133	23
2.82500	23
2.82867	23
2.83233	23
2.83600	23
2.83967	23
2.84333	23
2.84700	22
2.85067	20
2.85433	16
2.85800	10
2.86167	1
2.86533	-11
2.86900	-27
2.87267	-47
2.87633	-72
2.88000	-100
2.88367	-132
2.88733	-169
2.89100	-208
2.89467	-250
2.89833	-295
2.90200	-342
2.90567	-391
2.90933	-440
2.91300	-491
2.91667	-541
2.92033	-591
2.92400	-641
2.92767	-689
2.93133	-737
2.93500	-785
2.93867	-834
2.94233	-888
2.94600	-949
2.94967	-1011
2.95333	-1062
2.95700	-1093
2.96067	-1098
2.96433	-1076
2.96800	-1032
2.97167	-970
2.97533	-898
2.97900	-819
2.98267	-739
2.98633	-659
2.99000	-583
2.99367	-512
2.99733	-447
3.00100	-388
3.00467	-335
3.00833	-288
3.01200	-247
3.01567	-211
3.01933	-180
3.02300	-153
3.02667	-129
3.03033	-109
3.03400	-91
3.03767	-76
3.04133	-63
3.04500	-52
3.04867	-42
3.05233	-34
3.05600	-27
3.05967	-21
3.06333	-16
3.06700	-11
3.07067	-8
3.07433	-5
3.07800	-2
3.08167	-0
3.08533	2
3.08900	3
3.09267	5
3.09633	6
3.10000	7
3.10367	8
3.10733	9
3.11100	10
3.11467	11
3.11833	12
3.12200	12
3.12567	13
3.12933	13
3.13300	13
3.13667	14
3.14033	14
3.14400	14
3.14767	14
3.15133	14
3.15500	15
3.15867	15
3.16233	15
3.16600	15
3.16967	16
3.17333	16
3.17700	16
3.18067	17
3.18433	17
3.18800	17
3.19167	17
3.19533	17
3.19900	18
3.20267	18
3.20633	18
3.21000	18
3.21367	18
3.21733	18
3.22100	19
3.22467	19
3.22833	20
3.23200	20
3.23567	21
3.23933	21
3.24300	22
3.24667	22
3.25033	23
3.25400	23
3.25767	23
3.26133	23
3.26500	23
3.26867	23
3.27233	23
3.27600	24
3.27967	24
3.28333	24
3.28700	24
3.29067	24
3.29433	24
3.29800	24
3.30167	24
3.30533	25
3.30900	25
3.31267	25
3.31633	25
3.32000	25
3.32367	25
3.32733	24
3.33100	24
3.33467	24
3.33833	24
3.34200	24
3.34567	24
3.34933	24
3.35300	24
3.35667	24
3.36033	24
3.36400	24
3.36767	25
3.37133	25
3.37500	25
3.37867	25
3.38233	25
3.38600	25
3.38967	25
3.39333	25
3.39700	25
3.40067	25
3.40433	25
3.40800	25
3.41167	25
3.41533	24
3.41900	24
3.42267	24
3.42633	24
3.43000	24
3.43367	24
3.43733	24
3.44100	24
3.44467	24
3.44833	24
3.45200	24
3.45567	24
3.45933	24
3.46300	24
3.46667	24
3.47033	24
3.47400	24
3.47767	24
3.48133	24
3.48500	24
3.48867	25
3.49233	25
3.49600	25
3.49967	25
3.50333	25
3.50700	25
3.51067	25
3.51433	25
3.51800	25
3.52167	25
3.52533	25
3.52900	24
3.53267	24
3.53633	24
3.54000	24
3.54367	24
3.54733	24
3.55100	24
3.55467	24
3.55833	24
3.56200	24
3.56567	25
3.56933	25
3.57300	25
3.57667	25
3.58033	25
3.58400	25
3.58767	25
3.59133	25
3.59500	25
3.59867	25
3.60233	25
3.60600	24
3.60967	24
3.61333	25
3.61700	25
3.62067	25
3.62433	25
3.62800	25
3.63167	25
3.63533	25
3.63900	26
3.64267	26
3.64633	26
3.65000	26
3.65367	27
3.65733	27
3.66100	27
3.66467	27
3.66833	27
3.67200	27
3.67567	27
3.67933	27
3.68300	27
3.68667	27
3.69033	27
3.69400	27
3.69767	27
3.70133	27
3.70500	27
3.70867	27
3.71233	27
3.71600	26
3.71967	26
3.72333	26
3.72700	26
3.73067	26
3.73433	26
3.73800	26
3.74167	26
3.74533	26
3.74900	26
3.75267	26
3.75633	26
3.76000	26
3.76367	26
3.76733	26
3.77100	26
3.77467	26
3.77833	26
3.78200	26
3.78567	26
3.78933	26
3.79300	26
3.79667	26
3.80033	26
3.80400	26
3.80767	26
3.81133	26
3.81500	26
3.81867	26
3.82233	26
3.82600	26
3.82967	25
3.83333	25
3.83700	26
3.84067	26
3.84433	26
3.84800	26
3.85167	26
3.85533	26
3.85900	26
3.86267	26
3.86633	26
3.87000	26
3.87367	26
3.87733	26
3.88100	26
3.88467	27
3.88833	27
3.89200	27
3.89567	27
3.89933	27
3.90300	27
3.90667	27
3.91033	27
3.91400	27
3.91767	27
3.92133	26
3.92500	26
3.92867	26
3.93233	26
3.93600	26
3.93967	26
3.94333	26
3.94700	26
3.95067	26
3.95433	25
3.95800	25
3.96167	25
3.96533	25
3.96900	25
3.97267	25
3.97633	25
3.98000	25
3.98367	25
3.98733	25
3.99100	25
3.99467	25
3.99833	25

[Chromatogram (Ch3)]
Interval(msec)	220
# of Points	1091
Start Time(min)	0.002
End Time(min)	3.998
R.Time (min)	Intensity
0.00167	0
0.00533	1
0.00900	4
0.01267	7
0.01633	8
0.02000	8
0.02367	6
0.02733	5
0.03100	3
0.03467	2
0.03833	2
0.04200	1
0.04567	-0
0.04933	-0
0.05300	-0
0.05667	-1
0.06033	1
0.06400	5
0.06767	6
0.07133	7
0.07500	8
0.07867	7
0.08233	2
0.08600	-2
0.08967	-1
0.09333	1
0.09700	4
0.10067	7
0.10433	6
0.10800	7
0.11167	7
0.11533	6
0.11900	6
0.12267	8
0.12633	10
0.13000	9
0.13367	8
0.13733	8
0.14100	9
0.14467	8
0.14833	7
0.15200	6
0.15567	6
0.15933	7
0.16300	7
0.16667	7
0.17033	8
0.17400	8
0.17767	9
0.18133	11
0.18500	13
0.18867	13
0.19233	10
0.19600	8
0.19967	9
0.20333	9
0.20700	7
0.21067	5
0.21433	6
0.21800	7
0.22167	7
0.22533	7
0.22900	9
0.23267	13
0.23633	15
0.24000	14
0.24367	11
0.24733	9
0.25100	9
0.25467	8
0.25833	7
0.26200	7
0.26567	8
0.26933	8
0.27300	8
0.27667	8
0.28033	7
0.28400	6
0.28767	7
0.29133	7
0.29500	6
0.29867	5
0.30233	7
0.30600	8
0.30967	9
0.31333	11
0.31700	12
0.32067	13
0.32433	13
0.32800	13
0.33167	13
0.33533	12
0.33900	13
0.34267	13
0.34633	14
0.35000	15
0.35367	15
0.35733	14
0.36100	12
0.36467	10
0.36833	9
0.37200	9
0.37567	9
0.37933	8
0.38300	9
0.38667	12
0.39033	13
0.39400	16
0.39767	17
0.40133	16
0.40500	14
0.40867	14
0.41233	14
0.41600	14
0.41967	15
0.42333	16
0.42700	17
0.43067	17
0.43433	19
0.43800	21
0.44167	21
0.44533	21
0.44900	20
0.45267	18
0.45633	16
0.46000	13
0.46367	14
0.46733	16
0.47100	15
0.47467	14
0.47833	14
0.48200	14
0.48567	15
0.48933	16
0.49300	17
0.49667	18
0.50033	18
0.50400	18
0.50767	20
0.51133	22
0.51500	23
0.51867	23
0.52233	23
0.52600	23
0.52967	23
0.53333	23
0.53700	22
0.54067	21
0.54433	21
0.54800	21
0.55167	21
0.55533	20
0.55900	20
0.56267	21
0.56633	19
0.57000	20
0.57367	21
0.57733	21
0.58100	21
0.58467	19
0.58833	19
0.59200	20
0.59567	24
0.59933	27
0.60300	28
0.60667	26
0.61033	25
0.61400	23
0.61767	23
0.62133	22
0.62500	21
0.62867	22
0.63233	22
0.63600	22
0.63967	22
0.64333	22
0.64700	21
0.65067	19
0.65433	20
0.65800	22
0.66167	24
0.66533	26
0.66900	25
0.67267	25
0.67633	26
0.68000	25
0.68367	27
0.68733	29
0.69100	30
0.69467	29
0.69833	28
0.70200	25
0.70567	22
0.70933	22
0.71300	23
0.71667	25
0.72033	28
0.72400	29
0.72767	30
0.73133	29
0.73500	28
0.73867	28
0.74233	29
0.74600	31
0.74967	32
0.75333	33
0.75700	33
0.76067	32
0.76433	32
0.76800	32
0.77167	34
0.77533	35
0.77900	33
0.78267	33
0.78633	32
0.79000	32
0.79367	31
0.79733	32
0.80100	31
0.80467	32
0.80833	35
0.81200	38
0.81567	38
0.81933	36
0.82300	35
0.82667	34
0.83033	35
0.83400	34
0.83767	34
0.84133	35
0.84500	35
0.84867	35
0.85233	35
0.85600	36
0.85967	34
0.86333	34
0.86700	33
0.87067	33
0.87433	33
0.87800	34
0.88167	35
0.88533	37
0.88900	37
0.89267	36
0.89633	36
0.90000	34
0.90367	33
0.90733	36
0.91100	36
0.91467	37
0.91833	37
0.92200	37
0.92567	37
0.92933	39
0.93300	41
0.93667	42
0.94033	42
0.94400	42
0.94767	40
0.95133	38
0.95500	39
0.95867	41
0.96233	42
0.96600	41
0.96967	41
0.97333	43
0.97700	44
0.98067	44
0.98433	43
0.98800	43
0.99167	44
0.99533	46
0.99900	46
1.00267	46
1.00633	45
1.01000	44
1.01367	43
1.01733	43
1.02100	42
1.02467	42
1.02833	44
1.03200	44
1.03567	43
1.03933	43
1.04300	44
1.04667	45
1.05033	44
1.05400	42
1.05767	42
1.06133	44
1.06500	45
1.06867	46
1.07233	46
1.07600	46
1.07967	45
1.08333	43
1.08700	43
1.09067	44
1.09433	46
1.09800	47
1.10167	49
1.10533	49
1.10900	49
1.11267	50
1.11633	51
1.12000	51
1.12367	51
1.12733	52
1.13100	54
1.13467	56
1.13833	56
1.14200	56
1.14567	54
1.14933	53
1.15300	52
1.15667	52
1.16033	51
1.16400	49
1.16767	49
1.17133	49
1.17500	50
1.17867	52
1.18233	52
1.18600	51
1.18967	49
1.19333	48
1.19700	47
1.20067	48
1.20433	48
1.20800	47
1.21167	49
1.21533	52
1.21900	55
1.22267	59
1.22633	60
1.23000	58
1.23367	54
1.23733	52
1.24100	54
1.24467	57
1.24833	60
1.25200	59
1.25567	57
1.25933	57
1.26300	56
1.26667	55
1.27033	57
1.27400	58
1.27767	56
1.28133	56
1.28500	57
1.28867	56
1.29233	56
1.29600	57
1.29967	59
1.30333	59
1.30700	58
1.31067	55
1.31433	54
1.31800	54
1.32167	55
1.32533	58
1.32900	60
1.33267	61
1.33633	61
1.34000	61
1.34367	60
1.34733	59
1.35100	60
1.35467	61
1.35833	63
1.36200	67
1.36567	69
1.36933	68
1.37300	65
1.37667	64
1.38033	66
1.38400	67
1.38767	69
1.39133	70
1.39500	70
1.39867	70
1.40233	70
1.40600	71
1.40967	72
1.41333	73
1.41700	72
1.42067	71
1.42433	71
1.42800	71
1.43167	70
1.43533	70
1.43900	71
1.44267	70
1.44633	69
1.45000	71
1.45367	71
1.45733	70
1.46100	71
1.46467	73
1.46833	74
1.47200	74
1.47567	74
1.47933	75
1.48300	75
1.48667	74
1.49033	74
1.49400	75
1.49767	74
1.50133	73
1.50500	74
1.50867	74
1.51233	73
1.51600	72
1.51967	72
1.52333	72
1.52700	74
1.53067	75
1.53433	74
1.53800	73
1.54167	73
1.54533	72
1.54900	71
1.55267	72
1.55633	74
1.56000	73
1.56367	71
1.56733	73
1.57100	76
1.57467	77
1.57833	77
1.58200	77
1.58567	78
1.58933	77
1.59300	76
1.59667	76
1.60033	76
1.60400	75
1.60767	77
1.61133	76
1.61500	75
1.61867	73
1.62233	75
1.62600	76
1.62967	76
1.63333	78
1.63700	79
1.64067	82
1.64433	81
1.64800	79
1.65167	78
1.65533	80
1.65900	82
1.66267	82
1.66633	81
1.67000	82
1.67367	84
1.67733	86
1.68100	89
1.68467	92
1.68833	92
1.69200	91
1.69567	91
1.69933	91
1.70300	92
1.70667	94
1.71033	95
1.71400	96
1.71767	96
1.72133	100
1.72500	102
1.72867	104
1.73233	103
1.73600	103
1.73967	103
1.74333	102
1.74700	101
1.75067	99
1.75433	100
1.75800	104
1.76167	107
1.76533	108
1.76900	110
1.77267	111
1.77633	112
1.78000	113
1.78367	115
1.78733	117
1.79100	119
1.79467	120
1.79833	119
1.80200	119
1.80567	119
1.80933	120
1.81300	122
1.81667	123
1.82033	126
1.82400	127
1.82767	130
1.83133	132
1.83500	132
1.83867	131
1.84233	131
1.84600	129
1.84967	130
1.85333	133
1.85700	135
1.86067	135
1.86433	135
1.86800	137
1.87167	136
1.87533	133
1.87900	132
1.88267	134
1.88633	137
1.89000	140
1.89367	141
1.89733	141
1.90100	144
1.90467	145
1.90833	144
1.91200	143
1.91567	142
1.91933	141
1.92300	142
1.92667	143
1.93033	143
1.93400	144
1.93767	147
1.94133	149
1.94500	151
1.94867	151
1.95233	151
1.95600	150
1.95967	151
1.96333	154
1.96700	154
1.97067	153
1.97433	156
1.97800	159
1.98167	162
1.98533	164
1.98900	166
1.99267	167
1.99633	168
2.00000	168
2.00367	169
2.00733	168
2.01100	167
2.01467	167
2.01833	170
2.02200	175
2.02567	179
2.02933	177
2.03300	177
2.03667	179
2.04033	180
2.04400	180
2.04767	181
2.05133	184
2.05500	185
2.05867	187
2.06233	187
2.06600	187
2.06967	189
2.07333	192
2.07700	195
2.08067	198
2.08433	200
2.08800	200
2.09167	202
2.09533	204
2.09900	206
2.10267	207
2.10633	208
2.11000	207
2.11367	206
2.11733	206
2.12100	208
2.12467	211
2.12833	213
2.13200	217
2.13567	221
2.13933	225
2.14300	229
2.14667	231
2.15033	234
2.15400	236
2.15767	238
2.16133	239
2.16500	238
2.16867	239
2.17233	241
2.17600	244
2.17967	247
2.18333	249
2.18700	251
2.19067	256
2.19433	258
2.19800	257
2.20167	258
2.20533	257
2.20900	257
2.21267	258
2.21633	261
2.22000	267
2.22367	270
2.22733	270
2.23100	270
2.23467	273
2.23833	275
2.24200	274
2.24567	274
2.24933	274
2.25300	273
2.25667	274
2.26033	276
2.26400	278
2.26767	281
2.27133	283
2.27500	284
2.27867	285
2.28233	287
2.28600	287
2.28967	287
2.29333	287
2.29700	287
2.30067	290
2.30433	294
2.30800	297
2.31167	298
2.31533	299
2.31900	300
2.32267	303
2.32633	304
2.33000	305
2.33367	306
2.33733	309
2.34100	312
2.34467	313
2.34833	314
2.35200	314
2.35567	315
2.35933	317
2.36300	317
2.36667	317
2.37033	320
2.37400	322
2.37767	323
2.38133	324
2.38500	324
2.38867	325
2.39233	328
2.39600	330
2.39967	329
2.40333	329
2.40700	330
2.41067	331
2.41433	332
2.41800	334
2.42167	336
2.42533	338
2.42900	341
2.43267	342
2.43633	345
2.44000	348
2.44367	348
2.44733	352
2.45100	353
2.45467	352
2.45833	347
2.46200	342
2.46567	337
2.46933	331
2.47300	325
2.47667	321
2.48033	316
2.48400	312
2.48767	306
2.49133	299
2.49500	293
2.49867	285
2.50233	279
2.50600	275
2.50967	271
2.51333	265
2.51700	258
2.52067	252
2.52433	246
2.52800	239
2.53167	234
2.53533	228
2.53900	221
2.54267	215
2.54633	211
2.55000	209
2.55367	209
2.55733	207
2.56100	205
2.56467	201
2.56833	197
2.57200	194
2.57567	190
2.57933	185
2.58300	183
2.58667	183
2.59033	180
2.59400	178
2.59767	175
2.60133	167
2.60500	153
2.60867	135
2.61233	113
2.61600	85
2.61967	55
2.62333	22
2.62700	-10
2.63067	-39
2.63433	-64
2.63800	-84
2.64167	-100
2.64533	-112
2.64900	-120
2.65267	-123
2.65633	-124
2.66000	-123
2.66367	-120
2.66733	-114
2.67100	-106
2.67467	-98
2.67833	-92
2.68200	-87
2.68567	-80
2.68933	-74
2.69300	-68
2.69667	-61
2.70033	-56
2.70400	-51
2.70767	-45
2.71133	-39
2.71500	-31
2.71867	-23
2.72233	-15
2.72600	-7
2.72967	-2
2.73333	2
2.73700	7
2.74067	11
2.74433	15
2.74800	17
2.75167	21
2.75533	24
2.75900	29
2.76267	34
2.76633	39
2.77000	43
2.77367	46
2.77733	50
2.78100	54
2.78467	57
2.78833	60
2.79200	63
2.79567	65
2.79933	65
2.80300	65
2.80667	67
2.81033	70
2.81400	74
2.81767	74
2.82133	76
2.82500	81
2.82867	92
2.83233	116
2.83600	170
2.83967	269
2.84333	434
2.84700	687
2.85067	1040
2.85433	1494
2.85800	2031
2.86167	2617
2.86533	3211
2.86900	3765
2.87267	4235
2.87633	4583
2.88000	4791
2.88367	4857
2.88733	4793
2.89100	4618
2.89467	4362
2.89833	4053
2.90200	3712
2.90567	3361
2.90933	3015
2.91300	2686
2.91667	2378
2.92033	2095
2.92400	1837
2.92767	1607
2.93133	1404
2.93500	1223
2.93867	1068
2.94233	932
2.94600	812
2.94967	710
2.95333	622
2.95700	545
2.96067	479
2.96433	422
2.96800	372
2.97167	330
2.97533	293
2.97900	265
2.98267	241
2.98633	219
2.99000	199
2.99367	183
2.99733	166
3.00100	152
3.00467	141
3.00833	133
3.01200	125
3.01567	117
3.01933	111
3.02300	105
3.02667	100
3.03033	93
3.03400	89
3.03767	86
3.04133	86
3.04500	83
3.04867	80
3.05233	77
3.05600	75
3.05967	75
3.06333	74
3.06700	74
3.07067	74
3.07433	75
3.07800	75
3.08167	71
3.08533	31
3.08900	-29
3.09267	-66
3.09633	-67
3.10000	-39
3.10367	5
3.10733	53
3.11100	99
3.11467	142
3.11833	185
3.12200	225
3.12567	263
3.12933	300
3.13300	334
3.13667	367
3.14033	397
3.14400	424
3.14767	452
3.15133	478
3.15500	498
3.15867	518
3.16233	538
3.16600	553
3.16967	569
3.17333	585
3.17700	599
3.18067	611
3.18433	623
3.18800	634
3.19167	643
3.19533	653
3.19900	665
3.20267	673
3.20633	677
3.21000	682
3.21367	688
3.21733	691
3.22100	696
3.22467	700
3.22833	703
3.23200	707
3.23567	710
3.23933	710
3.24300	709
3.24667	708
3.25033	708
3.25400	707
3.25767	703
3.26133	700
3.26500	698
3.26867	694
3.27233	691
3.27600	688
3.27967	688
3.28333	686
3.28700	684
3.29067	682
3.29433	680
3.29800	676
3.30167	673
3.30533	673
3.30900	671
3.31267	668
3.31633	663
3.32000	658
3.32367	653
3.32733	649
3.33100	645
3.33467	642
3.33833	640
3.34200	638
3.34567	637
3.34933	636
3.35300	636
3.35667	634
3.36033	632
3.36400	631
3.36767	628
3.37133	625
3.37500	623
3.37867	621
3.38233	618
3.38600	615
3.38967	612
3.39333	609
3.39700	607
3.40067	605
3.40433	602
3.40800	599
3.41167	596
3.41533	592
3.41900	587
3.42267	582
3.42633	577
3.43000	574
3.43367	570
3.43733	567
3.44100	565
3.44467	565
3.44833	560
3.45200	554
3.45567	551
3.45933	548
3.46300	544
3.46667	540
3.47033	538
3.47400	536
3.47767	534
3.48133	531
3.48500	527
3.48867	524
3.49233	520
3.49600	518
3.49967	517
3.50333	513
3.50700	507
3.51067	502
3.51433	500
3.51800	498
3.52167	496
3.52533	492
3.52900	487
3.53267	483
3.53633	478
3.54000	474
3.54367	472
3.54733	470
3.55100	467
3.55467	465
3.55833	464
3.56200	461
3.56567	456
3.56933	451
3.57300	448
3.57667	445
3.58033	441
3.58400	438
3.58767	435
3.59133	432
3.59500	430
3.59867	425
3.60233	421
3.60600	417
3.60967	413
3.61333	409
3.61700	406
3.62067	405
3.62433	405
3.62800	404
3.63167	400
3.63533	395
3.63900	392
3.64267	390
3.64633	386
3.65000	382
3.65367	378
3.65733	376
3.66100	374
3.66467	371
3.66833	369
3.67200	366
3.67567	365
3.67933	361
3.68300	358
3.68667	355
3.69033	352
3.69400	349
3.69767	347
3.70133	345
3.70500	343
3.70867	340
3.71233	339
3.71600	337
3.71967	336
3.72333	334
3.72700	332
3.73067	331
3.73433	329
3.73800	327
3.74167	325
3.74533	323
3.74900	322
3.75267	318
3.75633	314
3.76000	309
3.76367	308
3.76733	309
3.77100	308
3.77467	308
3.77833	305
3.78200	303
3.78567	300
3.78933	300
3.79300	299
3.79667	297
3.80033	296
3.80400	295
3.80767	293
3.81133	292
3.81500	289
3.81867	288
3.82233	287
3.82600	285
3.82967	284
3.83333	285
3.83700	286
3.84067	286
3.84433	282
3.84800	279
3.85167	277
3.85533	275
3.85900	273
3.86267	273
3.86633	276
3.87000	276
3.87367	276
3.87733	274
3.88100	270
3.88467	268
3.88833	267
3.89200	264
3.89567	262
3.89933	262
3.90300	262
3.90667	260
3.91033	261
3.91400	262
3.91767	263
3.92133	262
3.92500	261
3.92867	258
3.93233	256
3.93600	255
3.93967	255
3.94333	256
3.94700	255
3.95067	255
3.95433	255
3.95800	256
3.96167	258
3.96533	257
3.96900	256
3.97267	253
3.97633	253
3.98000	251
3.98367	249
3.98733	247
3.99100	246
3.99467	243
3.99833	242

[Status Trace (Column Oven Temperature)]
Interval(msec)	1000
# of Points	240
Start Time(min)	0.001
End Time(min)	3.985
Intensity Units	
Intensity Multiplier	1
R.Time (min)	Intensity
0.00122	35.04
0.01788	35.03
0.03455	35.03
0.05122	35.02
0.06788	35.01
0.08455	35.01
0.10122	34.99
0.11788	34.99
0.13455	34.98
0.15122	34.99
0.16788	34.99
0.18455	34.98
0.20122	34.96
0.21788	34.96
0.23455	34.96
0.25122	34.96
0.26788	34.96
0.28455	34.96
0.30122	34.97
0.31788	34.98
0.33455	34.98
0.35122	34.98
0.36788	34.98
0.38455	34.98
0.40122	34.99
0.41788	34.98
0.43455	34.99
0.45122	34.99
0.46788	34.99
0.48455	34.99
0.50122	34.99
0.51788	34.99
0.53455	34.99
0.55122	34.99
0.56788	34.99
0.58455	34.99
0.60122	35.00
0.61788	35.00
0.63455	35.00
0.65122	35.00
0.66788	35.03
0.68455	35.02
0.70122	35.01
0.71788	34.99
0.73455	34.99
0.75122	34.99
0.76788	34.99
0.78455	34.99
0.80122	34.99
0.81788	35.00
0.83455	35.00
0.85122	34.99
0.86788	34.98
0.88455	34.97
0.90122	34.96
0.91788	34.96
0.93455	34.96
0.95122	34.95
0.96788	34.95
0.98455	34.97
1.00122	34.98
1.01788	34.99
1.03455	35.00
1.05122	35.00
1.06788	35.00
1.08455	35.00
1.10122	35.00
1.11788	35.00
1.13455	35.00
1.15122	35.00
1.16788	34.99
1.18455	34.98
1.20122	34.99
1.21788	34.99
1.23455	34.99
1.25122	34.99
1.26788	34.98
1.28455	34.98
1.30122	34.98
1.31788	34.98
1.33455	34.98
1.35122	34.98
1.36788	34.97
1.38455	34.97
1.40122	34.97
1.41788	34.97
1.43455	34.97
1.45122	34.96
1.46788	34.97
1.48455	34.97
1.50122	34.99
1.51788	34.99
1.53455	34.99
1.55122	35.00
1.56788	35.01
1.58455	35.01
1.60122	35.05
1.61788	35.14
1.63455	35.31
1.65122	35.52
1.66788	35.80
1.68455	36.16
1.70122	36.52
1.71788	36.86
1.73455	37.21
1.75122	37.52
1.76788	37.85
1.78455	38.21
1.80122	38.51
1.81788	38.85
1.83455	39.20
1.85122	39.51
1.86788	39.83
1.88455	40.15
1.90122	40.49
1.91788	40.82
1.93455	41.14
1.95122	41.48
1.96788	41.81
1.98455	42.12
2.00122	42.45
2.01788	42.77
2.03455	43.11
2.05122	43.45
2.06788	43.77
2.08455	44.10
2.10122	44.43
2.11788	44.75
2.13455	45.07
2.15122	45.39
2.16788	45.73
2.18455	46.06
2.20122	46.40
2.21788	46.73
2.23455	47.03
2.25122	47.34
2.26788	47.69
2.28455	48.01
2.30122	48.36
2.31788	48.70
2.33455	49.02
2.35122	49.31
2.36788	49.57
2.38455	49.70
2.40122	49.74
2.41788	49.73
2.43455	49.74
2.45122	49.73
2.46788	49.77
2.48455	49.76
2.50122	49.80
2.51788	49.79
2.53455	49.78
2.55122	49.80
2.56788	49.81
2.58455	49.81
2.60122	49.81
2.61788	49.82
2.63455	49.82
2.65122	49.84
2.66788	49.85
2.68455	49.86
2.70122	49.85
2.71788	49.85
2.73455	49.87
2.75122	49.88
2.76788	49.88
2.78455	49.89
2.80122	49.89
2.81788	49.90
2.83455	49.91
2.85122	49.91
2.86788	49.91
2.88455	49.93
2.90122	49.95
2.91788	49.95
2.93455	49.97
2.95122	49.98
2.96788	50.00
2.98455	50.01
3.00122	50.02
3.01788	50.03
3.03455	50.03
3.05122	50.03
3.06788	50.04
3.08455	50.05
3.10122	50.05
3.11788	50.05
3.13455	50.06
3.15122	50.07
3.16788	50.08
3.18455	50.09
3.20122	50.10
3.21788	50.10
3.23455	50.09
3.25122	50.09
3.26788	50.09
3.28455	50.08
3.30122	50.08
3.31788	50.08
3.33455	50.08
3.35122	50.07
3.36788	50.07
3.38455	50.06
3.40122	50.07
3.41788	50.08
3.43455	50.09
3.45122	50.09
3.46788	50.09
3.48455	50.09
3.50122	50.08
3.51788	50.08
3.53455	50.08
3.55122	50.09
3.56788	50.08
3.58455	50.09
3.60122	50.09
3.61788	50.09
3.63455	50.08
3.65122	50.07
3.66788	50.07
3.68455	50.07
3.70122	50.06
3.71788	50.06
3.73455	50.07
3.75122	50.07
3.76788	50.07
3.78455	50.08
3.80122	50.08
3.81788	50.07
3.83455	50.08
3.85122	50.07
3.86788	50.06
3.88455	50.06
3.90122	50.06
3.91788	50.06
3.93455	50.07
3.95122	50.07
3.96788	50.06
3.98455	50.06

[Status Trace (Injection Unit Temperature)]
Interval(msec)	1000
# of Points	240
Start Time(min)	0.001
End Time(min)	3.985
Intensity Units	
Intensity Multiplier	1
R.Time (min)	Intensity
0.00122	99.98
0.01788	99.99
0.03455	99.99
0.05122	99.98
0.06788	99.98
0.08455	99.98
0.10122	99.99
0.11788	99.98
0.13455	99.98
0.15122	99.98
0.16788	99.98
0.18455	99.98
0.20122	99.99
0.21788	99.98
0.23455	99.98
0.25122	99.98
0.26788	99.98
0.28455	99.98
0.30122	99.98
0.31788	99.98
0.33455	99.99
0.35122	99.98
0.36788	99.98
0.38455	99.98
0.40122	99.98
0.41788	99.98
0.43455	99.98
0.45122	99.98
0.46788	99.98
0.48455	99.98
0.50122	99.98
0.51788	99.98
0.53455	99.98
0.55122	99.98
0.56788	99.98
0.58455	99.98
0.60122	99.98
0.61788	99.98
0.63455	99.98
0.65122	99.98
0.66788	99.98
0.68455	99.98
0.70122	99.98
0.71788	99.98
0.73455	99.98
0.75122	99.98
0.76788	99.98
0.78455	99.98
0.80122	99.98
0.81788	99.98
0.83455	99.98
0.85122	99.98
0.86788	99.98
0.88455	99.98
0.90122	99.99
0.91788	99.98
0.93455	99.98
0.95122	99.98
0.96788	99.98
0.98455	99.98
1.00122	99.98
1.01788	99.98
1.03455	99.98
1.05122	99.98
1.06788	99.98
1.08455	99.98
1.10122	99.98
1.11788	99.99
1.13455	99.98
1.15122	99.98
1.16788	99.98
1.18455	99.98
1.20122	99.98
1.21788	99.98
1.23455	99.98
1.25122	99.99
1.26788	99.98
1.28455	99.98
1.30122	99.98
1.31788	99.98
1.33455	99.98
1.35122	99.98
1.36788	99.99
1.38455	99.99
1.40122	99.98
1.41788	99.99
1.43455	99.98
1.45122	99.99
1.46788	99.99
1.48455	99.99
1.50122	99.99
1.51788	99.98
1.53455	99.98
1.55122	99.99
1.56788	99.98
1.58455	99.98
1.60122	99.99
1.61788	99.98
1.63455	99.99
1.65122	99.98
1.66788	99.98
1.68455	99.99
1.70122	99.98
1.71788	99.99
1.73455	99.99
1.75122	99.99
1.76788	99.99
1.78455	99.98
1.80122	99.98
1.81788	99.98
1.83455	99.98
1.85122	99.98
1.86788	99.98
1.88455	99.98
1.90122	99.98
1.91788	99.98
1.93455	99.98
1.95122	99.98
1.96788	99.98
1.98455	99.98
2.00122	99.98
2.01788	99.98
2.03455	99.98
2.05122	99.98
2.06788	99.98
2.08455	99.98
2.10122	99.98
2.11788	99.98
2.13455	99.98
2.15122	99.98
2.16788	99.97
2.18455	99.98
2.20122	99.98
2.21788	99.97
2.23455	99.97
2.25122	99.98
2.26788	99.97
2.28455	99.98
2.30122	99.97
2.31788	99.97
2.33455	99.97
2.35122	99.97
2.36788	99.97
2.38455	99.98
2.40122	99.97
2.41788	99.97
2.43455	99.98
2.45122	99.97
2.46788	99.97
2.48455	99.98
2.50122	99.97
2.51788	99.98
2.53455	99.97
2.55122	99.97
2.56788	99.98
2.58455	99.98
2.60122	99.98
2.61788	99.98
2.63455	99.98
2.65122	99.98
2.66788	99.98
2.68455	99.98
2.70122	99.98
2.71788	99.98
2.73455	99.99
2.75122	99.99
2.76788	99.99
2.78455	99.99
2.80122	99.99
2.81788	99.99
2.83455	99.99
2.85122	99.99
2.86788	100.00
2.88455	99.99
2.90122	100.00
2.91788	100.00
2.93455	100.00
2.95122	100.00
2.96788	100.00
2.98455	100.00
3.00122	100.01
3.01788	100.01
3.03455	100.01
3.05122	100.00
3.06788	100.01
3.08455	100.01
3.10122	100.01
3.11788	100.01
3.13455	100.01
3.15122	100.01
3.16788	100.02
3.18455	100.01
3.20122	100.01
3.21788	100.02
3.23455	100.02
3.25122	100.02
3.26788	100.02
3.28455	100.02
3.30122	100.02
3.31788	100.02
3.33455	100.02
3.35122	100.02
3.36788	100.02
3.38455	100.02
3.40122	100.03
3.41788	100.03
3.43455	100.03
3.45122	100.03
3.46788	100.03
3.48455	100.03
3.50122	100.03
3.51788	100.03
3.53455	100.03
3.55122	100.03
3.56788	100.04
3.58455	100.04
3.60122	100.03
3.61788	100.04
3.63455	100.03
3.65122	100.03
3.66788	100.04
3.68455	100.04
3.70122	100.04
3.71788	100.04
3.73455	100.04
3.75122	100.04
3.76788	100.05
3.78455	100.04
3.80122	100.05
3.81788	100.04
3.83455	100.05
3.85122	100.04
3.86788	100.05
3.88455	100.04
3.90122	100.04
3.91788	100.05
3.93455	100.05
3.95122	100.04
3.96788	100.05
3.98455	100.05

[Status Trace (Carrier Gas Pressure)]
Interval(msec)	1000
# of Points	240
Start Time(min)	0.001
End Time(min)	3.985
Intensity Units	
Intensity Multiplier	1
R.Time (min)	Intensity
0.00122	58.00
0.01788	56.58
0.03455	56.10
0.05122	58.28
0.06788	59.92
0.08455	58.43
0.10122	57.97
0.11788	58.00
0.13455	58.01
0.15122	58.01
0.16788	58.00
0.18455	58.00
0.20122	58.00
0.21788	58.00
0.23455	58.00
0.25122	58.00
0.26788	58.00
0.28455	58.00
0.30122	58.00
0.31788	58.00
0.33455	58.00
0.35122	58.00
0.36788	58.00
0.38455	58.00
0.40122	58.00
0.41788	58.00
0.43455	58.00
0.45122	58.00
0.46788	58.00
0.48455	58.00
0.50122	58.00
0.51788	58.00
0.53455	58.00
0.55122	58.00
0.56788	58.00
0.58455	58.00
0.60122	58.00
0.61788	58.00
0.63455	58.00
0.65122	58.00
0.66788	58.00
0.68455	58.00
0.70122	58.00
0.71788	58.00
0.73455	58.00
0.75122	58.00
0.76788	58.00
0.78455	58.00
0.80122	58.00
0.81788	58.00
0.83455	58.00
0.85122	58.00
0.86788	58.00
0.88455	58.00
0.90122	58.00
0.91788	58.00
0.93455	58.00
0.95122	58.00
0.96788	58.00
0.98455	58.00
1.00122	58.00
1.01788	58.00
1.03455	58.00
1.05122	58.00
1.06788	58.00
1.08455	58.00
1.10122	58.00
1.11788	58.00
1.13455	58.00
1.15122	58.00
1.16788	58.00
1.18455	58.00
1.20122	58.00
1.21788	58.00
1.23455	58.00
1.25122	58.00
1.26788	58.00
1.28455	58.00
1.30122	58.00
1.31788	58.00
1.33455	58.00
1.35122	58.00
1.36788	58.00
1.38455	58.00
1.40122	58.00
1.41788	58.00
1.43455	58.00
1.45122	58.00
1.46788	58.00
1.48455	58.00
1.50122	58.00
1.51788	58.00
1.53455	58.00
1.55122	58.00
1.56788	58.00
1.58455	58.00
1.60122	58.00
1.61788	58.00
1.63455	58.01
1.65122	58.00
1.66788	58.00
1.68455	58.01
1.70122	58.00
1.71788	58.00
1.73455	58.00
1.75122	58.00
1.76788	58.00
1.78455	58.00
1.80122	58.00
1.81788	58.00
1.83455	58.00
1.85122	58.00
1.86788	58.00
1.88455	58.00
1.90122	58.00
1.91788	58.00
1.93455	58.00
1.95122	58.00
1.96788	58.00
1.98455	58.00
2.00122	58.00
2.01788	58.00
2.03455	58.00
2.05122	58.00
2.06788	58.00
2.08455	58.00
2.10122	58.00
2.11788	58.00
2.13455	58.00
2.15122	58.00
2.16788	58.00
2.18455	58.00
2.20122	58.00
2.21788	58.00
2.23455	58.00
2.25122	58.00
2.26788	58.00
2.28455	58.00
2.30122	58.00
2.31788	58.00
2.33455	58.00
2.35122	58.00
2.36788	58.00
2.38455	57.99
2.40122	57.99
2.41788	58.00
2.43455	58.00
2.45122	58.00
2.46788	58.00
2.48455	58.00
2.50122	58.00
2.51788	57.99
2.53455	57.99
2.55122	58.00
2.56788	58.00
2.58455	58.00
2.60122	58.00
2.61788	58.00
2.63455	58.00
2.65122	58.00
2.66788	58.00
2.68455	58.00
2.70122	58.00
2.71788	58.00
2.73455	58.00
2.75122	58.00
2.76788	58.00
2.78455	58.00
2.80122	58.00
2.81788	58.00
2.83455	58.00
2.85122	58.00
2.86788	58.00
2.88455	58.00
2.90122	58.00
2.91788	58.00
2.93455	58.00
2.95122	58.00
2.96788	58.00
2.98455	58.00
3.00122	58.00
3.01788	58.00
3.03455	58.00
3.05122	58.00
3.06788	58.00
3.08455	58.00
3.10122	58.00
3.11788	58.00
3.13455	58.00
3.15122	58.00
3.16788	58.00
3.18455	58.00
3.20122	58.00
3.21788	58.00
3.23455	58.00
3.25122	58.00
3.26788	58.00
3.28455	58.00
3.30122	58.00
3.31788	58.00
3.33455	58.00
3.35122	58.00
3.36788	58.00
3.38455	58.00
3.40122	58.00
3.41788	58.00
3.43455	58.00
3.45122	58.00
3.46788	58.00
3.48455	58.00
3.50122	58.00
3.51788	58.00
3.53455	58.00
3.55122	58.00
3.56788	58.00
3.58455	58.00
3.60122	58.00
3.61788	58.00
3.63455	58.00
3.65122	58.00
3.66788	58.00
3.68455	58.00
3.70122	58.00
3.71788	58.00
3.73455	58.00
3.75122	58.00
3.76788	58.00
3.78455	58.00
3.80122	58.00
3.81788	58.00
3.83455	58.00
3.85122	58.00
3.86788	58.00
3.88455	58.00
3.90122	58.00
3.91788	58.00
3.93455	58.00
3.95122	58.00
3.96788	58.00
3.98455	58.00

[Status Trace (Carrier Gas Flow)]
Interval(msec)	1000
# of Points	240
Start Time(min)	0.001
End Time(min)	3.985
Intensity Units	
Intensity Multiplier	1
R.Time (min)	Intensity
0.00122	34.52
0.01788	34.01
0.03455	34.54
0.05122	34.55
0.06788	34.52
0.08455	34.50
0.10122	34.52
0.11788	34.52
0.13455	34.52
0.15122	34.52
0.16788	34.52
0.18455	34.52
0.20122	34.52
0.21788	34.52
0.23455	34.52
0.25122	34.52
0.26788	34.53
0.28455	34.52
0.30122	34.52
0.31788	34.52
0.33455	34.52
0.35122	34.51
0.36788	34.52
0.38455	34.51
0.40122	34.51
0.41788	34.52
0.43455	34.52
0.45122	34.52
0.46788	34.52
0.48455	34.52
0.50122	34.52
0.51788	34.52
0.53455	34.52
0.55122	34.52
0.56788	34.52
0.58455	34.52
0.60122	34.52
0.61788	34.52
0.63455	34.52
0.65122	34.52
0.66788	34.52
0.68455	34.52
0.70122	34.52
0.71788	34.52
0.73455	34.52
0.75122	34.52
0.76788	34.52
0.78455	34.52
0.80122	34.52
0.81788	34.52
0.83455	34.52
0.85122	34.52
0.86788	34.52
0.88455	34.52
0.90122	34.52
0.91788	34.52
0.93455	34.52
0.95122	34.52
0.96788	34.52
0.98455	34.52
1.00122	34.52
1.01788	34.52
1.03455	34.52
1.05122	34.52
1.06788	34.52
1.08455	34.52
1.10122	34.52
1.11788	34.52
1.13455	34.52
1.15122	34.52
1.16788	34.52
1.18455	34.52
1.20122	34.52
1.21788	34.52
1.23455	34.52
1.25122	34.52
1.26788	34.52
1.28455	34.52
1.30122	34.52
1.31788	34.52
1.33455	34.52
1.35122	34.52
1.36788	34.52
1.38455	34.52
1.40122	34.52
1.41788	34.52
1.43455	34.52
1.45122	34.52
1.46788	34.52
1.48455	34.52
1.50122	34.52
1.51788	34.52
1.53455	34.52
1.55122	34.52
1.56788	34.52
1.58455	34.52
1.60122	34.52
1.61788	34.52
1.63455	34.52
1.65122	34.52
1.66788	34.52
1.68455	34.52
1.70122	34.52
1.71788	34.52
1.73455	34.52
1.75122	34.52
1.76788	34.52
1.78455	34.52
1.80122	34.52
1.81788	34.52
1.83455	34.52
1.85122	34.52
1.86788	34.52
1.88455	34.52
1.90122	34.52
1.91788	34.52
1.93455	34.52
1.95122	34.52
1.96788	34.52
1.98455	34.52
2.00122	34.52
2.01788	34.52
2.03455	34.52
2.05122	34.52
2.06788	34.52
2.08455	34.52
2.10122	34.52
2.11788	34.52
2.13455	34.52
2.15122	34.52
2.16788	34.52
2.18455	34.52
2.20122	34.52
2.21788	34.52
2.23455	34.52
2.25122	34.52
2.26788	34.52
2.28455	34.52
2.30122	34.52
2.31788	34.52
2.33455	34.52
2.35122	34.52
2.36788	34.52
2.38455	34.52
2.40122	34.52
2.41788	34.52
2.43455	34.52
2.45122	34.52
2.46788	34.52
2.48455	34.52
2.50122	34.52
2.51788	34.53
2.53455	34.52
2.55122	34.52
2.56788	34.52
2.58455	34.51
2.60122	34.52
2.61788	34.51
2.63455	34.53
2.65122	34.52
2.66788	34.52
2.68455	34.52
2.70122	34.52
2.71788	34.52
2.73455	34.52
2.75122	34.50
2.76788	34.52
2.78455	34.52
2.80122	34.52
2.81788	34.52
2.83455	34.52
2.85122	34.52
2.86788	34.52
2.88455	34.52
2.90122	34.52
2.91788	34.52
2.93455	34.52
2.95122	34.52
2.96788	34.52
2.98455	34.52
3.00122	34.52
3.01788	34.52
3.03455	34.52
3.05122	34.52
3.06788	34.52
3.08455	34.52
3.10122	34.52
3.11788	34.52
3.13455	34.52
3.15122	34.52
3.16788	34.52
3.18455	34.52
3.20122	34.52
3.21788	34.52
3.23455	34.52
3.25122	34.52
3.26788	34.51
3.28455	34.52
3.30122	34.52
3.31788	34.52
3.33455	34.52
3.35122	34.52
3.36788	34.52
3.38455	34.52
3.40122	34.52
3.41788	34.52
3.43455	34.52
3.45122	34.52
3.46788	34.52
3.48455	34.52
3.50122	34.52
3.51788	34.52
3.53455	34.52
3.55122	34.52
3.56788	34.52
3.58455	34.52
3.60122	34.52
3.61788	34.52
3.63455	34.52
3.65122	34.52
3.66788	34.52
3.68455	34.52
3.70122	34.52
3.71788	34.52
3.73455	34.52
3.75122	34.52
3.76788	34.52
3.78455	34.52
3.80122	34.52
3.81788	34.52
3.83455	34.52
3.85122	34.52
3.86788	34.52
3.88455	34.52
3.90122	34.52
3.91788	34.52
3.93455	34.52
3.95122	34.52
3.96788	34.52
3.98455	34.52

[Status Trace (Column Flow)]
Interval(msec)	1000
# of Points	240
Start Time(min)	0.001
End Time(min)	3.985
Intensity Units	
Intensity Multiplier	1
R.Time (min)	Intensity
0.00122	5.49
0.01788	5.33
0.03455	5.28
0.05122	5.53
0.06788	5.72
0.08455	5.55
0.10122	5.49
0.11788	5.50
0.13455	5.50
0.15122	5.50
0.16788	5.50
0.18455	5.50
0.20122	5.50
0.21788	5.50
0.23455	5.50
0.25122	5.50
0.26788	5.50
0.28455	5.50
0.30122	5.50
0.31788	5.50
0.33455	5.50
0.35122	5.50
0.36788	5.50
0.38455	5.50
0.40122	5.50
0.41788	5.50
0.43455	5.50
0.45122	5.50
0.46788	5.50
0.48455	5.50
0.50122	5.50
0.51788	5.50
0.53455	5.50
0.55122	5.50
0.56788	5.50
0.58455	5.50
0.60122	5.50
0.61788	5.50
0.63455	5.50
0.65122	5.50
0.66788	5.49
0.68455	5.50
0.70122	5.50
0.71788	5.50
0.73455	5.50
0.75122	5.50
0.76788	5.50
0.78455	5.50
0.80122	5.50
0.81788	5.50
0.83455	5.50
0.85122	5.50
0.86788	5.50
0.88455	5.50
0.90122	5.50
0.91788	5.50
0.93455	5.50
0.95122	5.50
0.96788	5.50
0.98455	5.50
1.00122	5.50
1.01788	5.50
1.03455	5.50
1.05122	5.50
1.06788	5.50
1.08455	5.50
1.10122	5.50
1.11788	5.50
1.13455	5.50
1.15122	5.50
1.16788	5.50
1.18455	5.50
1.20122	5.50
1.21788	5.50
1.23455	5.50
1.25122	5.50
1.26788	5.50
1.28455	5.50
1.30122	5.50
1.31788	5.50
1.33455	5.50
1.35122	5.50
1.36788	5.50
1.38455	5.50
1.40122	5.50
1.41788	5.50
1.43455	5.50
1.45122	5.50
1.46788	5.50
1.48455	5.50
1.50122	5.50
1.51788	5.50
1.53455	5.50
1.55122	5.50
1.56788	5.50
1.58455	5.50
1.60122	5.49
1.61788	5.49
1.63455	5.49
1.65122	5.48
1.66788	5.47
1.68455	5.46
1.70122	5.45
1.71788	5.44
1.73455	5.43
1.75122	5.42
1.76788	5.41
1.78455	5.40
1.80122	5.39
1.81788	5.38
1.83455	5.37
1.85122	5.36
1.86788	5.35
1.88455	5.34
1.90122	5.33
1.91788	5.32
1.93455	5.31
1.95122	5.30
1.96788	5.29
1.98455	5.28
2.00122	5.27
2.01788	5.26
2.03455	5.25
2.05122	5.24
2.06788	5.23
2.08455	5.22
2.10122	5.21
2.11788	5.20
2.13455	5.19
2.15122	5.18
2.16788	5.17
2.18455	5.16
2.20122	5.16
2.21788	5.15
2.23455	5.14
2.25122	5.13
2.26788	5.12
2.28455	5.11
2.30122	5.10
2.31788	5.09
2.33455	5.08
2.35122	5.07
2.36788	5.07
2.38455	5.06
2.40122	5.06
2.41788	5.06
2.43455	5.06
2.45122	5.06
2.46788	5.06
2.48455	5.06
2.50122	5.06
2.51788	5.06
2.53455	5.06
2.55122	5.06
2.56788	5.06
2.58455	5.06
2.60122	5.06
2.61788	5.06
2.63455	5.06
2.65122	5.06
2.66788	5.06
2.68455	5.06
2.70122	5.06
2.71788	5.06
2.73455	5.06
2.75122	5.06
2.76788	5.06
2.78455	5.06
2.80122	5.06
2.81788	5.06
2.83455	5.06
2.85122	5.06
2.86788	5.06
2.88455	5.06
2.90122	5.06
2.91788	5.06
2.93455	5.06
2.95122	5.06
2.96788	5.05
2.98455	5.05
3.00122	5.05
3.01788	5.05
3.03455	5.05
3.05122	5.05
3.06788	5.05
3.08455	5.05
3.10122	5.05
3.11788	5.05
3.13455	5.05
3.15122	5.05
3.16788	5.05
3.18455	5.05
3.20122	5.05
3.21788	5.05
3.23455	5.05
3.25122	5.05
3.26788	5.05
3.28455	5.05
3.30122	5.05
3.31788	5.05
3.33455	5.05
3.35122	5.05
3.36788	5.05
3.38455	5.05
3.40122	5.05
3.41788	5.05
3.43455	5.05
3.45122	5.05
3.46788	5.05
3.48455	5.05
3.50122	5.05
3.51788	5.05
3.53455	5.05
3.55122	5.05
3.56788	5.05
3.58455	5.05
3.60122	5.05
3.61788	5.05
3.63455	5.05
3.65122	5.05
3.66788	5.05
3.68455	5.05
3.70122	5.05
3.71788	5.05
3.73455	5.05
3.75122	5.05
3.76788	5.05
3.78455	5.05
3.80122	5.05
3.81788	5.05
3.83455	5.05
3.85122	5.05
3.86788	5.05
3.88455	5.05
3.90122	5.05
3.91788	5.05
3.93455	5.05
3.95122	5.05
3.96788	5.05
3.98455	5.05

[Status Trace (Linear Velocity)]
Interval(msec)	1000
# of Points	240
Start Time(min)	0.001
End Time(min)	3.985
Intensity Units	
Intensity Multiplier	1
R.Time (min)	Intensity
0.00122	39.01
0.01788	38.07
0.03455	37.76
0.05122	39.19
0.06788	40.27
0.08455	39.29
0.10122	38.99
0.11788	39.01
0.13455	39.02
0.15122	39.02
0.16788	39.01
0.18455	39.02
0.20122	39.02
0.21788	39.02
0.23455	39.02
0.25122	39.02
0.26788	39.02
0.28455	39.01
0.30122	39.01
0.31788	39.01
0.33455	39.01
0.35122	39.01
0.36788	39.01
0.38455	39.01
0.40122	39.01
0.41788	39.01
0.43455	39.01
0.45122	39.01
0.46788	39.01
0.48455	39.01
0.50122	39.01
0.51788	39.01
0.53455	39.01
0.55122	39.01
0.56788	39.01
0.58455	39.01
0.60122	39.01
0.61788	39.01
0.63455	39.01
0.65122	39.01
0.66788	39.01
0.68455	39.01
0.70122	39.01
0.71788	39.01
0.73455	39.01
0.75122	39.01
0.76788	39.01
0.78455	39.01
0.80122	39.01
0.81788	39.01
0.83455	39.01
0.85122	39.01
0.86788	39.01
0.88455	39.01
0.90122	39.01
0.91788	39.01
0.93455	39.02
0.95122	39.01
0.96788	39.01
0.98455	39.01
1.00122	39.01
1.01788	39.01
1.03455	39.01
1.05122	39.01
1.06788	39.01
1.08455	39.01
1.10122	39.01
1.11788	39.01
1.13455	39.01
1.15122	39.01
1.16788	39.01
1.18455	39.01
1.20122	39.01
1.21788	39.01
1.23455	39.01
1.25122	39.01
1.26788	39.01
1.28455	39.01
1.30122	39.01
1.31788	39.01
1.33455	39.01
1.35122	39.01
1.36788	39.01
1.38455	39.01
1.40122	39.01
1.41788	39.01
1.43455	39.01
1.45122	39.01
1.46788	39.01
1.48455	39.01
1.50122	39.01
1.51788	39.01
1.53455	39.01
1.55122	39.01
1.56788	39.01
1.58455	39.01
1.60122	39.01
1.61788	39.00
1.63455	38.98
1.65122	38.96
1.66788	38.94
1.68455	38.90
1.70122	38.87
1.71788	38.83
1.73455	38.80
1.75122	38.77
1.76788	38.74
1.78455	38.71
1.80122	38.67
1.81788	38.64
1.83455	38.61
1.85122	38.58
1.86788	38.55
1.88455	38.52
1.90122	38.49
1.91788	38.46
1.93455	38.43
1.95122	38.40
1.96788	38.37
1.98455	38.34
2.00122	38.31
2.01788	38.28
2.03455	38.25
2.05122	38.22
2.06788	38.19
2.08455	38.16
2.10122	38.13
2.11788	38.10
2.13455	38.07
2.15122	38.04
2.16788	38.01
2.18455	37.98
2.20122	37.95
2.21788	37.92
2.23455	37.89
2.25122	37.86
2.26788	37.83
2.28455	37.80
2.30122	37.77
2.31788	37.74
2.33455	37.71
2.35122	37.69
2.36788	37.66
2.38455	37.65
2.40122	37.64
2.41788	37.65
2.43455	37.65
2.45122	37.65
2.46788	37.65
2.48455	37.65
2.50122	37.64
2.51788	37.64
2.53455	37.64
2.55122	37.65
2.56788	37.64
2.58455	37.64
2.60122	37.64
2.61788	37.64
2.63455	37.64
2.65122	37.64
2.66788	37.64
2.68455	37.64
2.70122	37.64
2.71788	37.64
2.73455	37.64
2.75122	37.64
2.76788	37.64
2.78455	37.64
2.80122	37.64
2.81788	37.64
2.83455	37.63
2.85122	37.63
2.86788	37.63
2.88455	37.63
2.90122	37.63
2.91788	37.63
2.93455	37.63
2.95122	37.63
2.96788	37.63
2.98455	37.63
3.00122	37.63
3.01788	37.62
3.03455	37.62
3.05122	37.62
3.06788	37.62
3.08455	37.62
3.10122	37.62
3.11788	37.62
3.13455	37.62
3.15122	37.62
3.16788	37.62
3.18455	37.62
3.20122	37.62
3.21788	37.62
3.23455	37.62
3.25122	37.62
3.26788	37.62
3.28455	37.62
3.30122	37.62
3.31788	37.62
3.33455	37.62
3.35122	37.62
3.36788	37.62
3.38455	37.62
3.40122	37.62
3.41788	37.62
3.43455	37.62
3.45122	37.62
3.46788	37.62
3.48455	37.62
3.50122	37.62
3.51788	37.62
3.53455	37.62
3.55122	37.62
3.56788	37.62
3.58455	37.62
3.60122	37.62
3.61788	37.62
3.63455	37.62
3.65122	37.62
3.66788	37.62
3.68455	37.62
3.70122	37.62
3.71788	37.62
3.73455	37.62
3.75122	37.62
3.76788	37.62
3.78455	37.62
3.80122	37.62
3.81788	37.62
3.83455	37.62
3.85122	37.62
3.86788	37.62
3.88455	37.62
3.90122	37.62
3.91788	37.62
3.93455	37.62
3.95122	37.62
3.96788	37.62
3.98455	37.62

