[Header]
Application Name	LabSolutions
Version	5.110
Data File Name	C:\Users\User\Desktop\GC Analyses\Jack\UIC Prairie Sampling\7.9.22\220909_028.gcd
Output Date	9/28/2022
Output Time	11:29:50 AM

[File Information]
Type	Data File
Generated	9/13/2022 10:26:21 AM
Generated by	System Administrator
Modified	9/13/2022 10:30:52 AM
Modified by	System Administrator

[Sample Information]
Operator Name	System Administrator
Acquired	9/13/2022 10:26:50 AM
Sample Type	1:Standard
Level	1
Sample Name	220909_Run
Sample ID	220909_Run
ISTD Amount1	1
ISTD Amount2	1
ISTD Amount3	1
ISTD Amount4	1
ISTD Amount5	1
ISTD Amount6	1
ISTD Amount7	1
ISTD Amount8	1
ISTD Amount9	1
ISTD Amount10	1
ISTD Amount11	1
ISTD Amount12	1
ISTD Amount13	1
ISTD Amount14	1
ISTD Amount15	1
ISTD Amount16	1
ISTD Amount17	1
ISTD Amount18	1
ISTD Amount19	1
ISTD Amount20	1
ISTD Amount21	1
ISTD Amount22	1
ISTD Amount23	1
ISTD Amount24	1
ISTD Amount25	1
ISTD Amount26	1
ISTD Amount27	1
ISTD Amount28	1
ISTD Amount29	1
ISTD Amount30	1
ISTD Amount31	1
ISTD Amount32	1
Sample Amount	1
Dilution Factor	1
Vial#	1
Injection Volume	1
Injection Count	1
Bar Code	

[Original Files]
Data File	C:\Users\User\Desktop\GC Analyses\Jack\220909\220909_028.gcd
Method File	C:\LabSolutions\Data\GHG_4min_2022\ghg3_togas_w_acet_4 min_new_int.gcm
Batch File	
Report Format File	c:\LabSolutions\System\DEFAULT.lsr

[File Description]


[Configuration]
Instrument Name	C0B7VH3-Instrument1
Instrument #	1
Line #	1
# of Detectors	3
Detector ID	DET#1	DET#2	DET#3
Detector Name	FID	PTCD	ECD
# of Channels	1	1	1

[Peak Table(Ch1)]
# of Peaks	3
Peak#	R.Time	I.Time	F.Time	Area	Height	A/H	Conc.	Mark	ID#	Name	k'	Plate #	Plate Ht.	Tailing	Resolution	Sep.Factor	Area Ratio	Height Ratio	Conc. %	Norm Conc.
1	1.472	1.421	1.538	8683	3580	2.426	100.000	   	1	CO	0.000	7126	21.050	1.403	0.000	0.000	0	0	16.667	16.667
2	1.571	1.538	1.648	20477	10437	1.962	100.000	 V 	2	CH4	0.067	11592	12.940	1.211	1.545	0.000	0	0	16.667	16.667
3	2.000	1.952	2.253	2123849	1042401	2.037	400.000	   	3	CO2	0.359	17768	8.442	1.203	7.248	5.333	0	0	66.667	66.667

[Peak Table(Ch2)]
# of Peaks	0

[Peak Table(Ch3)]
# of Peaks	3
Peak#	R.Time	I.Time	F.Time	Area	Height	A/H	Conc.	Mark	ID#	Name	k'	Plate #	Plate Ht.	Tailing	Resolution	Sep.Factor	Area Ratio	Height Ratio	Conc. %	Norm Conc.
1	2.469	1.025	2.649	17986	457	39.392	0.000	   			0.000	83	1797.369	0.569	0.000	0.000	0	0	0.000	0.000
2	2.884	2.814	3.074	58861	15233	3.864	1.000	   	1	N2O	0.168	12553	11.949	1.542	0.700	0.000	0	0	50.000	50.000
3	3.320	3.148	3.936	17854	655	27.266	1.000	   	2	SF6	0.344	352	425.884	2.239	1.077	2.053	0	0	50.000	50.000

[Compound Results(Ch1)]
# of IDs	6
ID#	Name	R.Time	Area	Height	Conc.	Curve	3rd	2nd	1st	Constant	Area Ratio	Height Ratio	Conc. %	Norm Conc.
1	CO	1.472	8683	3580	100.000	Linear	0.000000e+00	0.000000e+00	8.683479e+001	0.000000e+00	0	0	16.667	16.667
2	CH4	1.571	20477	10437	100.000	Linear	0.000000e+00	0.000000e+00	2.047735e+002	0.000000e+00	0	0	16.667	16.667
3	CO2	2.000	2123849	1042401	400.000	Linear	0.000000e+00	0.000000e+00	5.309623e+003	0.000000e+00	0	0	66.667	66.667
4	Ethylene	0.000	0	0	0.000	Linear	0.000000e+00	0.000000e+00	0.000000e+00	0.000000e+00	0	0	0.000	0.000
5	Acetylene	0.000	0	0	0.000	Linear	0.000000e+00	0.000000e+00	0.000000e+00	0.000000e+00	0	0	0.000	0.000
6	Ethane	0.000	0	0	0.000	Linear	0.000000e+00	0.000000e+00	0.000000e+00	0.000000e+00	0	0	0.000	0.000

[Compound Results(Ch2)]
# of IDs	5
ID#	Name	R.Time	Area	Height	Conc.	Curve	3rd	2nd	1st	Constant	Area Ratio	Height Ratio	Conc. %	Norm Conc.
1	Hydrogen	0.000	0	0	0.000	Linear	0.000000e+00	0.000000e+00	0.000000e+00	0.000000e+00	0	0	0.000	0.000
2	Oxygen	0.000	0	0	0.000	Linear	0.000000e+00	0.000000e+00	0.000000e+00	0.000000e+00	0	0	0.000	0.000
3	Nitrogen	0.000	0	0	0.000	Linear	0.000000e+00	0.000000e+00	0.000000e+00	0.000000e+00	0	0	0.000	0.000
4	Methane	0.000	0	0	0.000	Linear	0.000000e+00	0.000000e+00	0.000000e+00	0.000000e+00	0	0	0.000	0.000
5	Carbon Monoxide	0.000	0	0	0.000	Linear	0.000000e+00	0.000000e+00	0.000000e+00	0.000000e+00	0	0	0.000	0.000

[Compound Results(Ch3)]
# of IDs	2
ID#	Name	R.Time	Area	Height	Conc.	Curve	3rd	2nd	1st	Constant	Area Ratio	Height Ratio	Conc. %	Norm Conc.
1	N2O	2.884	58861	15233	1.000	Linear	0.000000e+00	0.000000e+00	5.886071e+004	0.000000e+00	0	0	50.000	50.000
2	SF6	3.320	17854	655	1.000	Linear	0.000000e+00	0.000000e+00	1.785425e+004	0.000000e+00	0	0	50.000	50.000

[Group Results(Ch1)]
# of Groups	0

[Group Results(Ch2)]
# of Groups	0

[Group Results(Ch3)]
# of Groups	0

[Chromatogram (Ch1)]
Interval(msec)	220
# of Points	1091
Start Time(min)	0.002
End Time(min)	3.998
R.Time (min)	Intensity
0.00167	-12
0.00533	-11
0.00900	-10
0.01267	-8
0.01633	-6
0.02000	-3
0.02367	-2
0.02733	-4
0.03100	-4
0.03467	-2
0.03833	0
0.04200	5
0.04567	10
0.04933	15
0.05300	12
0.05667	6
0.06033	3
0.06400	2
0.06767	2
0.07133	3
0.07500	4
0.07867	3
0.08233	-2
0.08600	-3
0.08967	-3
0.09333	-5
0.09700	-8
0.10067	-7
0.10433	-4
0.10800	0
0.11167	4
0.11533	3
0.11900	-1
0.12267	-8
0.12633	-11
0.13000	-12
0.13367	-13
0.13733	-13
0.14100	-10
0.14467	-9
0.14833	-11
0.15200	-13
0.15567	-14
0.15933	-14
0.16300	-11
0.16667	-7
0.17033	-10
0.17400	-20
0.17767	-36
0.18133	-50
0.18500	-54
0.18867	-42
0.19233	-29
0.19600	-20
0.19967	-18
0.20333	-20
0.20700	-22
0.21067	-17
0.21433	-11
0.21800	-11
0.22167	-9
0.22533	-8
0.22900	-9
0.23267	-19
0.23633	-32
0.24000	-36
0.24367	-37
0.24733	-34
0.25100	-32
0.25467	-30
0.25833	-32
0.26200	-38
0.26567	-37
0.26933	-32
0.27300	-21
0.27667	-11
0.28033	-5
0.28400	-3
0.28767	-4
0.29133	-5
0.29500	-9
0.29867	-11
0.30233	-18
0.30600	-21
0.30967	-24
0.31333	-26
0.31700	-31
0.32067	-37
0.32433	-45
0.32800	-45
0.33167	-43
0.33533	-37
0.33900	-28
0.34267	-19
0.34633	-12
0.35000	-5
0.35367	-5
0.35733	-11
0.36100	-16
0.36467	-22
0.36833	-26
0.37200	-25
0.37567	-23
0.37933	-21
0.38300	-22
0.38667	-19
0.39033	-18
0.39400	-15
0.39767	-16
0.40133	-16
0.40500	-16
0.40867	-18
0.41233	-24
0.41600	-28
0.41967	-30
0.42333	-31
0.42700	-35
0.43067	-42
0.43433	-44
0.43800	-39
0.44167	-34
0.44533	-32
0.44900	-37
0.45267	-36
0.45633	-38
0.46000	-36
0.46367	-37
0.46733	-45
0.47100	-50
0.47467	-52
0.47833	-48
0.48200	-44
0.48567	-41
0.48933	-37
0.49300	-31
0.49667	-17
0.50033	-9
0.50400	-3
0.50767	-3
0.51133	-9
0.51500	-18
0.51867	-27
0.52233	-34
0.52600	-35
0.52967	-33
0.53333	-30
0.53700	-28
0.54067	-28
0.54433	-29
0.54800	-30
0.55167	-30
0.55533	-29
0.55900	-28
0.56267	-29
0.56633	-32
0.57000	-36
0.57367	-39
0.57733	-38
0.58100	-40
0.58467	-43
0.58833	-45
0.59200	-45
0.59567	-45
0.59933	-47
0.60300	-48
0.60667	-46
0.61033	-44
0.61400	-43
0.61767	-43
0.62133	-43
0.62500	-46
0.62867	-48
0.63233	-50
0.63600	-50
0.63967	-51
0.64333	-48
0.64700	-32
0.65067	-24
0.65433	-19
0.65800	-17
0.66167	-21
0.66533	-27
0.66900	-28
0.67267	-28
0.67633	-35
0.68000	-44
0.68367	-52
0.68733	-54
0.69100	-51
0.69467	-47
0.69833	-41
0.70200	-31
0.70567	-25
0.70933	-24
0.71300	-28
0.71667	-30
0.72033	-29
0.72400	-30
0.72767	-32
0.73133	-37
0.73500	-43
0.73867	-50
0.74233	-55
0.74600	-53
0.74967	-46
0.75333	-37
0.75700	-36
0.76067	-39
0.76433	-43
0.76800	-47
0.77167	-48
0.77533	-47
0.77900	-47
0.78267	-45
0.78633	-45
0.79000	-46
0.79367	-46
0.79733	-45
0.80100	-42
0.80467	-41
0.80833	-43
0.81200	-47
0.81567	-50
0.81933	-51
0.82300	-52
0.82667	-55
0.83033	-59
0.83400	-61
0.83767	-59
0.84133	-56
0.84500	-53
0.84867	-43
0.85233	-30
0.85600	-18
0.85967	-6
0.86333	-2
0.86700	-7
0.87067	-13
0.87433	-19
0.87800	-25
0.88167	-31
0.88533	-38
0.88900	-39
0.89267	-34
0.89633	-26
0.90000	-16
0.90367	-10
0.90733	-9
0.91100	-12
0.91467	-14
0.91833	-11
0.92200	-3
0.92567	1
0.92933	-1
0.93300	-0
0.93667	6
0.94033	12
0.94400	11
0.94767	8
0.95133	8
0.95500	6
0.95867	2
0.96233	-1
0.96600	-8
0.96967	-16
0.97333	-18
0.97700	-14
0.98067	-8
0.98433	-3
0.98800	-0
0.99167	0
0.99533	7
0.99900	11
1.00267	15
1.00633	14
1.01000	7
1.01367	-3
1.01733	-16
1.02100	-22
1.02467	-22
1.02833	-15
1.03200	-6
1.03567	-2
1.03933	0
1.04300	3
1.04667	-0
1.05033	-8
1.05400	-16
1.05767	-20
1.06133	-19
1.06500	-10
1.06867	-1
1.07233	3
1.07600	6
1.07967	12
1.08333	19
1.08700	22
1.09067	16
1.09433	7
1.09800	3
1.10167	1
1.10533	2
1.10900	-1
1.11267	-4
1.11633	-4
1.12000	-3
1.12367	-3
1.12733	-3
1.13100	-4
1.13467	-5
1.13833	-8
1.14200	-9
1.14567	-9
1.14933	-8
1.15300	-9
1.15667	-13
1.16033	-14
1.16400	-9
1.16767	-3
1.17133	-1
1.17500	-1
1.17867	-6
1.18233	-13
1.18600	-17
1.18967	-20
1.19333	-20
1.19700	-11
1.20067	1
1.20433	8
1.20800	8
1.21167	4
1.21533	-0
1.21900	-6
1.22267	-16
1.22633	-20
1.23000	-24
1.23367	-27
1.23733	-28
1.24100	-26
1.24467	-22
1.24833	-18
1.25200	-14
1.25567	-16
1.25933	-20
1.26300	-21
1.26667	-17
1.27033	-13
1.27400	-11
1.27767	-12
1.28133	-13
1.28500	-15
1.28867	-18
1.29233	-19
1.29600	-20
1.29967	-22
1.30333	-27
1.30700	-31
1.31067	-31
1.31433	-26
1.31800	-19
1.32167	-12
1.32533	-7
1.32900	-5
1.33267	-4
1.33633	-6
1.34000	-12
1.34367	-20
1.34733	-25
1.35100	-27
1.35467	-30
1.35833	-35
1.36200	-37
1.36567	-34
1.36933	-32
1.37300	-34
1.37667	-37
1.38033	-34
1.38400	-26
1.38767	-22
1.39133	-23
1.39500	-25
1.39867	-29
1.40233	-32
1.40600	-37
1.40967	-43
1.41333	-48
1.41700	-50
1.42067	-47
1.42433	-41
1.42800	-36
1.43167	-32
1.43533	-24
1.43900	-5
1.44267	62
1.44633	298
1.45000	795
1.45367	1465
1.45733	2151
1.46100	2737
1.46467	3170
1.46833	3436
1.47200	3519
1.47567	3419
1.47933	3170
1.48300	2821
1.48667	2423
1.49033	2013
1.49400	1625
1.49767	1278
1.50133	984
1.50500	745
1.50867	551
1.51233	391
1.51600	265
1.51967	172
1.52333	101
1.52700	48
1.53067	8
1.53433	-24
1.53800	-31
1.54167	72
1.54533	515
1.54900	1583
1.55267	3300
1.55633	5337
1.56000	7279
1.56367	8850
1.56733	9917
1.57100	10349
1.57467	10011
1.57833	8920
1.58200	7333
1.58567	5617
1.58933	4064
1.59300	2814
1.59667	1880
1.60033	1217
1.60400	764
1.60767	462
1.61133	267
1.61500	142
1.61867	60
1.62233	6
1.62600	-28
1.62967	-52
1.63333	-74
1.63700	-89
1.64067	-98
1.64433	-106
1.64800	-110
1.65167	-108
1.65533	-104
1.65900	-103
1.66267	-107
1.66633	-109
1.67000	-108
1.67367	-106
1.67733	-105
1.68100	-104
1.68467	-104
1.68833	-103
1.69200	-101
1.69567	-97
1.69933	-93
1.70300	-95
1.70667	-101
1.71033	-102
1.71400	-103
1.71767	-104
1.72133	-107
1.72500	-110
1.72867	-109
1.73233	-102
1.73600	-98
1.73967	-98
1.74333	-104
1.74700	-110
1.75067	-115
1.75433	-120
1.75800	-121
1.76167	-115
1.76533	-104
1.76900	-93
1.77267	-83
1.77633	-79
1.78000	-78
1.78367	-75
1.78733	-75
1.79100	-79
1.79467	-84
1.79833	-89
1.80200	-95
1.80567	-103
1.80933	-105
1.81300	-104
1.81667	-102
1.82033	-103
1.82400	-108
1.82767	-108
1.83133	-104
1.83500	-100
1.83867	-93
1.84233	-88
1.84600	-86
1.84967	-83
1.85333	-76
1.85700	-70
1.86067	-68
1.86433	-69
1.86800	-70
1.87167	-74
1.87533	-76
1.87900	-78
1.88267	-84
1.88633	-85
1.89000	-88
1.89367	-86
1.89733	-82
1.90100	-80
1.90467	-82
1.90833	-86
1.91200	-93
1.91567	-99
1.91933	-98
1.92300	-91
1.92667	-82
1.93033	-77
1.93400	-76
1.93767	-74
1.94133	-70
1.94500	-70
1.94867	-72
1.95233	-67
1.95600	-21
1.95967	274
1.96333	1907
1.96700	8863
1.97067	31435
1.97433	87705
1.97800	196054
1.98167	359347
1.98533	556551
1.98900	752225
1.99267	912508
1.99633	1013705
2.00000	1042375
2.00367	997135
2.00733	890017
2.01100	744061
2.01467	586228
2.01833	439059
2.02200	315770
2.02567	220348
2.02933	150640
2.03300	101765
2.03667	68455
2.04033	46173
2.04400	31422
2.04767	21696
2.05133	15272
2.05500	11001
2.05867	8131
2.06233	6175
2.06600	4818
2.06967	3855
2.07333	3154
2.07700	2629
2.08067	2232
2.08433	1927
2.08800	1685
2.09167	1491
2.09533	1340
2.09900	1217
2.10267	1115
2.10633	1027
2.11000	950
2.11367	880
2.11733	817
2.12100	759
2.12467	708
2.12833	662
2.13200	617
2.13567	577
2.13933	549
2.14300	527
2.14667	510
2.15033	492
2.15400	472
2.15767	448
2.16133	429
2.16500	413
2.16867	396
2.17233	378
2.17600	362
2.17967	351
2.18333	344
2.18700	339
2.19067	331
2.19433	318
2.19800	302
2.20167	287
2.20533	276
2.20900	268
2.21267	265
2.21633	258
2.22000	250
2.22367	242
2.22733	235
2.23100	225
2.23467	217
2.23833	212
2.24200	203
2.24567	197
2.24933	194
2.25300	195
2.25667	196
2.26033	197
2.26400	199
2.26767	201
2.27133	199
2.27500	192
2.27867	180
2.28233	169
2.28600	161
2.28967	153
2.29333	148
2.29700	144
2.30067	144
2.30433	146
2.30800	149
2.31167	149
2.31533	145
2.31900	138
2.32267	134
2.32633	134
2.33000	135
2.33367	134
2.33733	128
2.34100	122
2.34467	117
2.34833	116
2.35200	117
2.35567	116
2.35933	114
2.36300	111
2.36667	111
2.37033	115
2.37400	119
2.37767	126
2.38133	131
2.38500	131
2.38867	129
2.39233	127
2.39600	122
2.39967	115
2.40333	111
2.40700	105
2.41067	99
2.41433	95
2.41800	94
2.42167	94
2.42533	97
2.42900	102
2.43267	107
2.43633	111
2.44000	114
2.44367	113
2.44733	107
2.45100	99
2.45467	91
2.45833	85
2.46200	79
2.46567	74
2.46933	70
2.47300	71
2.47667	71
2.48033	68
2.48400	64
2.48767	61
2.49133	59
2.49500	56
2.49867	56
2.50233	58
2.50600	63
2.50967	70
2.51333	75
2.51700	77
2.52067	77
2.52433	69
2.52800	59
2.53167	50
2.53533	45
2.53900	41
2.54267	40
2.54633	39
2.55000	36
2.55367	30
2.55733	31
2.56100	42
2.56467	52
2.56833	60
2.57200	62
2.57567	58
2.57933	53
2.58300	56
2.58667	58
2.59033	53
2.59400	48
2.59767	44
2.60133	38
2.60500	33
2.60867	28
2.61233	25
2.61600	23
2.61967	24
2.62333	33
2.62700	42
2.63067	46
2.63433	45
2.63800	45
2.64167	41
2.64533	37
2.64900	32
2.65267	25
2.65633	19
2.66000	12
2.66367	13
2.66733	15
2.67100	15
2.67467	11
2.67833	9
2.68200	10
2.68567	5
2.68933	3
2.69300	9
2.69667	15
2.70033	16
2.70400	19
2.70767	23
2.71133	28
2.71500	33
2.71867	38
2.72233	36
2.72600	32
2.72967	31
2.73333	30
2.73700	28
2.74067	24
2.74433	18
2.74800	18
2.75167	20
2.75533	20
2.75900	21
2.76267	22
2.76633	18
2.77000	15
2.77367	10
2.77733	8
2.78100	13
2.78467	17
2.78833	18
2.79200	16
2.79567	16
2.79933	15
2.80300	12
2.80667	7
2.81033	8
2.81400	10
2.81767	12
2.82133	14
2.82500	15
2.82867	14
2.83233	16
2.83600	19
2.83967	20
2.84333	17
2.84700	8
2.85067	-2
2.85433	-6
2.85800	-7
2.86167	-10
2.86533	-12
2.86900	-9
2.87267	-4
2.87633	1
2.88000	5
2.88367	13
2.88733	14
2.89100	11
2.89467	6
2.89833	-1
2.90200	-8
2.90567	-9
2.90933	-7
2.91300	-2
2.91667	1
2.92033	4
2.92400	1
2.92767	-5
2.93133	-10
2.93500	-9
2.93867	-8
2.94233	-8
2.94600	-7
2.94967	-3
2.95333	-7
2.95700	-13
2.96067	-12
2.96433	-18
2.96800	-24
2.97167	-23
2.97533	-21
2.97900	-17
2.98267	-13
2.98633	-10
2.99000	-8
2.99367	-9
2.99733	-5
3.00100	-2
3.00467	-3
3.00833	-3
3.01200	-2
3.01567	1
3.01933	6
3.02300	9
3.02667	10
3.03033	8
3.03400	5
3.03767	2
3.04133	-4
3.04500	-7
3.04867	-11
3.05233	-14
3.05600	-13
3.05967	-11
3.06333	-15
3.06700	-17
3.07067	-19
3.07433	-17
3.07800	-17
3.08167	-18
3.08533	-15
3.08900	-12
3.09267	-12
3.09633	-14
3.10000	-16
3.10367	-13
3.10733	-5
3.11100	1
3.11467	1
3.11833	0
3.12200	-2
3.12567	-6
3.12933	-13
3.13300	-21
3.13667	-25
3.14033	-27
3.14400	-26
3.14767	-24
3.15133	-18
3.15500	-11
3.15867	-8
3.16233	-11
3.16600	-16
3.16967	-21
3.17333	-24
3.17700	-28
3.18067	-30
3.18433	-33
3.18800	-36
3.19167	-39
3.19533	-42
3.19900	-43
3.20267	-44
3.20633	-45
3.21000	-43
3.21367	-38
3.21733	-32
3.22100	-26
3.22467	-23
3.22833	-23
3.23200	-23
3.23567	-18
3.23933	-19
3.24300	-19
3.24667	-19
3.25033	-20
3.25400	-18
3.25767	-16
3.26133	-18
3.26500	-20
3.26867	-22
3.27233	-26
3.27600	-30
3.27967	-31
3.28333	-25
3.28700	-23
3.29067	-23
3.29433	-24
3.29800	-26
3.30167	-29
3.30533	-32
3.30900	-33
3.31267	-34
3.31633	-35
3.32000	-33
3.32367	-26
3.32733	-20
3.33100	-20
3.33467	-18
3.33833	-18
3.34200	-20
3.34567	-24
3.34933	-27
3.35300	-24
3.35667	-21
3.36033	-25
3.36400	-36
3.36767	-46
3.37133	-54
3.37500	-57
3.37867	-52
3.38233	-50
3.38600	-50
3.38967	-54
3.39333	-56
3.39700	-55
3.40067	-50
3.40433	-45
3.40800	-38
3.41167	-32
3.41533	-30
3.41900	-27
3.42267	-24
3.42633	-25
3.43000	-27
3.43367	-33
3.43733	-41
3.44100	-45
3.44467	-44
3.44833	-47
3.45200	-49
3.45567	-45
3.45933	-39
3.46300	-37
3.46667	-44
3.47033	-47
3.47400	-47
3.47767	-50
3.48133	-53
3.48500	-51
3.48867	-52
3.49233	-51
3.49600	-50
3.49967	-47
3.50333	-46
3.50700	-48
3.51067	-46
3.51433	-37
3.51800	-29
3.52167	-23
3.52533	-18
3.52900	-20
3.53267	-22
3.53633	-24
3.54000	-29
3.54367	-35
3.54733	-40
3.55100	-44
3.55467	-44
3.55833	-46
3.56200	-44
3.56567	-42
3.56933	-43
3.57300	-53
3.57667	-55
3.58033	-59
3.58400	-52
3.58767	-51
3.59133	-52
3.59500	-50
3.59867	-51
3.60233	-51
3.60600	-48
3.60967	-42
3.61333	-38
3.61700	-36
3.62067	-36
3.62433	-39
3.62800	-46
3.63167	-49
3.63533	-52
3.63900	-53
3.64267	-53
3.64633	-56
3.65000	-59
3.65367	-60
3.65733	-59
3.66100	-57
3.66467	-52
3.66833	-42
3.67200	-34
3.67567	-35
3.67933	-40
3.68300	-44
3.68667	-47
3.69033	-49
3.69400	-50
3.69767	-51
3.70133	-52
3.70500	-52
3.70867	-53
3.71233	-50
3.71600	-46
3.71967	-42
3.72333	-41
3.72700	-42
3.73067	-47
3.73433	-55
3.73800	-59
3.74167	-56
3.74533	-54
3.74900	-56
3.75267	-57
3.75633	-59
3.76000	-55
3.76367	-52
3.76733	-54
3.77100	-56
3.77467	-55
3.77833	-51
3.78200	-48
3.78567	-45
3.78933	-43
3.79300	-42
3.79667	-43
3.80033	-47
3.80400	-49
3.80767	-49
3.81133	-46
3.81500	-43
3.81867	-41
3.82233	-41
3.82600	-42
3.82967	-43
3.83333	-44
3.83700	-44
3.84067	-45
3.84433	-48
3.84800	-50
3.85167	-51
3.85533	-46
3.85900	-39
3.86267	-33
3.86633	-29
3.87000	-27
3.87367	-29
3.87733	-34
3.88100	-38
3.88467	-44
3.88833	-53
3.89200	-63
3.89567	-71
3.89933	-75
3.90300	-72
3.90667	-66
3.91033	-60
3.91400	-58
3.91767	-57
3.92133	-52
3.92500	-49
3.92867	-50
3.93233	-53
3.93600	-59
3.93967	-61
3.94333	-64
3.94700	-63
3.95067	-56
3.95433	-52
3.95800	-52
3.96167	-53
3.96533	-54
3.96900	-50
3.97267	-47
3.97633	-47
3.98000	-46
3.98367	-47
3.98733	-53
3.99100	-60
3.99467	-61
3.99833	-57

[Chromatogram (Ch2)]
Interval(msec)	220
# of Points	1091
Start Time(min)	0.002
End Time(min)	3.998
R.Time (min)	Intensity
0.00167	0
0.00533	0
0.00900	1
0.01267	1
0.01633	1
0.02000	1
0.02367	1
0.02733	1
0.03100	1
0.03467	1
0.03833	0
0.04200	0
0.04567	0
0.04933	-0
0.05300	-0
0.05667	-1
0.06033	-1
0.06400	-1
0.06767	-1
0.07133	-1
0.07500	-1
0.07867	-1
0.08233	-1
0.08600	-1
0.08967	-1
0.09333	-0
0.09700	-0
0.10067	-0
0.10433	0
0.10800	0
0.11167	0
0.11533	0
0.11900	0
0.12267	1
0.12633	1
0.13000	1
0.13367	1
0.13733	1
0.14100	1
0.14467	1
0.14833	1
0.15200	2
0.15567	2
0.15933	2
0.16300	3
0.16667	3
0.17033	3
0.17400	2
0.17767	2
0.18133	2
0.18500	2
0.18867	1
0.19233	1
0.19600	1
0.19967	1
0.20333	0
0.20700	-0
0.21067	-0
0.21433	-1
0.21800	-1
0.22167	-1
0.22533	-2
0.22900	-3
0.23267	-3
0.23633	-4
0.24000	-4
0.24367	-4
0.24733	-4
0.25100	-4
0.25467	-4
0.25833	-4
0.26200	-3
0.26567	-3
0.26933	-3
0.27300	-3
0.27667	-3
0.28033	-3
0.28400	-2
0.28767	-2
0.29133	-2
0.29500	-2
0.29867	-2
0.30233	-2
0.30600	-2
0.30967	-2
0.31333	-2
0.31700	-2
0.32067	-2
0.32433	-3
0.32800	-3
0.33167	-3
0.33533	-4
0.33900	-4
0.34267	-4
0.34633	-3
0.35000	-3
0.35367	-3
0.35733	-2
0.36100	-2
0.36467	-2
0.36833	-2
0.37200	-2
0.37567	-2
0.37933	-2
0.38300	-2
0.38667	-2
0.39033	-2
0.39400	-2
0.39767	-2
0.40133	-2
0.40500	-2
0.40867	-2
0.41233	-2
0.41600	-2
0.41967	-1
0.42333	-1
0.42700	-1
0.43067	-1
0.43433	-1
0.43800	-1
0.44167	-1
0.44533	-0
0.44900	-0
0.45267	-0
0.45633	-0
0.46000	0
0.46367	0
0.46733	0
0.47100	0
0.47467	0
0.47833	-0
0.48200	-1
0.48567	-1
0.48933	-1
0.49300	-1
0.49667	-1
0.50033	-1
0.50400	-1
0.50767	-1
0.51133	-1
0.51500	-1
0.51867	-1
0.52233	-1
0.52600	-0
0.52967	0
0.53333	0
0.53700	0
0.54067	1
0.54433	0
0.54800	0
0.55167	0
0.55533	0
0.55900	-0
0.56267	-0
0.56633	-0
0.57000	-1
0.57367	-1
0.57733	-1
0.58100	-1
0.58467	-1
0.58833	-1
0.59200	-1
0.59567	-2
0.59933	-2
0.60300	-2
0.60667	-2
0.61033	-2
0.61400	-2
0.61767	-2
0.62133	-2
0.62500	-2
0.62867	-2
0.63233	-3
0.63600	-3
0.63967	-3
0.64333	-3
0.64700	-3
0.65067	-3
0.65433	-3
0.65800	-3
0.66167	-3
0.66533	-3
0.66900	-3
0.67267	-3
0.67633	-4
0.68000	-4
0.68367	-4
0.68733	-4
0.69100	-5
0.69467	-5
0.69833	-5
0.70200	-5
0.70567	-5
0.70933	-5
0.71300	-5
0.71667	-5
0.72033	-5
0.72400	-6
0.72767	-6
0.73133	-6
0.73500	-7
0.73867	-7
0.74233	-7
0.74600	-7
0.74967	-7
0.75333	-6
0.75700	-6
0.76067	-5
0.76433	-5
0.76800	-5
0.77167	-4
0.77533	-4
0.77900	-4
0.78267	-4
0.78633	-4
0.79000	-3
0.79367	-3
0.79733	-3
0.80100	-3
0.80467	-3
0.80833	-3
0.81200	-3
0.81567	-3
0.81933	-2
0.82300	-2
0.82667	-2
0.83033	-1
0.83400	-1
0.83767	-1
0.84133	-1
0.84500	-1
0.84867	-1
0.85233	-1
0.85600	-1
0.85967	-0
0.86333	-0
0.86700	-0
0.87067	-0
0.87433	-0
0.87800	-0
0.88167	-1
0.88533	-1
0.88900	-1
0.89267	-1
0.89633	-1
0.90000	-1
0.90367	-2
0.90733	-2
0.91100	-2
0.91467	-2
0.91833	-2
0.92200	-2
0.92567	-2
0.92933	-3
0.93300	-3
0.93667	-3
0.94033	-3
0.94400	-3
0.94767	-3
0.95133	-3
0.95500	-3
0.95867	-3
0.96233	-3
0.96600	-4
0.96967	-4
0.97333	-4
0.97700	-5
0.98067	-5
0.98433	-6
0.98800	-6
0.99167	-6
0.99533	-6
0.99900	-7
1.00267	-7
1.00633	-8
1.01000	-8
1.01367	-8
1.01733	-8
1.02100	-9
1.02467	-9
1.02833	-9
1.03200	-9
1.03567	-9
1.03933	-9
1.04300	-8
1.04667	-8
1.05033	-8
1.05400	-7
1.05767	-7
1.06133	-7
1.06500	-6
1.06867	-6
1.07233	-6
1.07600	-6
1.07967	-6
1.08333	-5
1.08700	-5
1.09067	-5
1.09433	-5
1.09800	-5
1.10167	-5
1.10533	-6
1.10900	-6
1.11267	-5
1.11633	-5
1.12000	-5
1.12367	-4
1.12733	-4
1.13100	-4
1.13467	-4
1.13833	-4
1.14200	-4
1.14567	-4
1.14933	-4
1.15300	-4
1.15667	-4
1.16033	-4
1.16400	-4
1.16767	-4
1.17133	-4
1.17500	-4
1.17867	-3
1.18233	-3
1.18600	-3
1.18967	-3
1.19333	-3
1.19700	-3
1.20067	-3
1.20433	-3
1.20800	-3
1.21167	-3
1.21533	-3
1.21900	-3
1.22267	-3
1.22633	-3
1.23000	-3
1.23367	-3
1.23733	-2
1.24100	-2
1.24467	-2
1.24833	-2
1.25200	-2
1.25567	-2
1.25933	-2
1.26300	-3
1.26667	-3
1.27033	-3
1.27400	-3
1.27767	-3
1.28133	-3
1.28500	-3
1.28867	-2
1.29233	-2
1.29600	-2
1.29967	-2
1.30333	-2
1.30700	-2
1.31067	-3
1.31433	-3
1.31800	-3
1.32167	-3
1.32533	-3
1.32900	-4
1.33267	-4
1.33633	-4
1.34000	-4
1.34367	-4
1.34733	-4
1.35100	-4
1.35467	-4
1.35833	-4
1.36200	-4
1.36567	-4
1.36933	-4
1.37300	-5
1.37667	-5
1.38033	-5
1.38400	-5
1.38767	-5
1.39133	-6
1.39500	-6
1.39867	-7
1.40233	-7
1.40600	-7
1.40967	-7
1.41333	-7
1.41700	-7
1.42067	-8
1.42433	-8
1.42800	-8
1.43167	-8
1.43533	-8
1.43900	-8
1.44267	-8
1.44633	-7
1.45000	-7
1.45367	-7
1.45733	-7
1.46100	-7
1.46467	-7
1.46833	-7
1.47200	-7
1.47567	-7
1.47933	-6
1.48300	-6
1.48667	-6
1.49033	-6
1.49400	-5
1.49767	-5
1.50133	-5
1.50500	-6
1.50867	-6
1.51233	-6
1.51600	-7
1.51967	-7
1.52333	-7
1.52700	-7
1.53067	-7
1.53433	-7
1.53800	-7
1.54167	-6
1.54533	-6
1.54900	-6
1.55267	-6
1.55633	-6
1.56000	-6
1.56367	-7
1.56733	-7
1.57100	-7
1.57467	-7
1.57833	-7
1.58200	-7
1.58567	-7
1.58933	-7
1.59300	-8
1.59667	-9
1.60033	-10
1.60400	-11
1.60767	-12
1.61133	-14
1.61500	-16
1.61867	-19
1.62233	-21
1.62600	-24
1.62967	-27
1.63333	-29
1.63700	-32
1.64067	-35
1.64433	-38
1.64800	-42
1.65167	-46
1.65533	-49
1.65900	-53
1.66267	-57
1.66633	-60
1.67000	-64
1.67367	-69
1.67733	-73
1.68100	-78
1.68467	-83
1.68833	-88
1.69200	-92
1.69567	-96
1.69933	-100
1.70300	-103
1.70667	-106
1.71033	-108
1.71400	-110
1.71767	-111
1.72133	-113
1.72500	-114
1.72867	-115
1.73233	-115
1.73600	-116
1.73967	-117
1.74333	-118
1.74700	-119
1.75067	-119
1.75433	-120
1.75800	-121
1.76167	-122
1.76533	-122
1.76900	-122
1.77267	-122
1.77633	-122
1.78000	-121
1.78367	-121
1.78733	-121
1.79100	-121
1.79467	-122
1.79833	-123
1.80200	-124
1.80567	-125
1.80933	-125
1.81300	-126
1.81667	-126
1.82033	-127
1.82400	-127
1.82767	-127
1.83133	-127
1.83500	-126
1.83867	-126
1.84233	-126
1.84600	-125
1.84967	-125
1.85333	-125
1.85700	-125
1.86067	-125
1.86433	-125
1.86800	-125
1.87167	-126
1.87533	-126
1.87900	-126
1.88267	-126
1.88633	-126
1.89000	-126
1.89367	-126
1.89733	-127
1.90100	-127
1.90467	-127
1.90833	-126
1.91200	-126
1.91567	-125
1.91933	-124
1.92300	-124
1.92667	-123
1.93033	-123
1.93400	-122
1.93767	-122
1.94133	-122
1.94500	-122
1.94867	-122
1.95233	-122
1.95600	-122
1.95967	-122
1.96333	-122
1.96700	-122
1.97067	-122
1.97433	-121
1.97800	-121
1.98167	-120
1.98533	-120
1.98900	-119
1.99267	-119
1.99633	-119
2.00000	-118
2.00367	-118
2.00733	-118
2.01100	-118
2.01467	-118
2.01833	-118
2.02200	-118
2.02567	-118
2.02933	-118
2.03300	-119
2.03667	-119
2.04033	-119
2.04400	-118
2.04767	-118
2.05133	-118
2.05500	-117
2.05867	-117
2.06233	-116
2.06600	-115
2.06967	-115
2.07333	-114
2.07700	-114
2.08067	-114
2.08433	-113
2.08800	-113
2.09167	-114
2.09533	-114
2.09900	-115
2.10267	-115
2.10633	-114
2.11000	-113
2.11367	-113
2.11733	-112
2.12100	-111
2.12467	-111
2.12833	-110
2.13200	-110
2.13567	-109
2.13933	-109
2.14300	-108
2.14667	-108
2.15033	-107
2.15400	-106
2.15767	-105
2.16133	-104
2.16500	-103
2.16867	-103
2.17233	-102
2.17600	-102
2.17967	-102
2.18333	-102
2.18700	-103
2.19067	-103
2.19433	-104
2.19800	-105
2.20167	-105
2.20533	-105
2.20900	-105
2.21267	-104
2.21633	-104
2.22000	-104
2.22367	-103
2.22733	-102
2.23100	-101
2.23467	-101
2.23833	-100
2.24200	-100
2.24567	-100
2.24933	-101
2.25300	-101
2.25667	-102
2.26033	-102
2.26400	-101
2.26767	-100
2.27133	-100
2.27500	-99
2.27867	-100
2.28233	-100
2.28600	-100
2.28967	-100
2.29333	-100
2.29700	-99
2.30067	-98
2.30433	-97
2.30800	-97
2.31167	-96
2.31533	-95
2.31900	-95
2.32267	-95
2.32633	-95
2.33000	-94
2.33367	-94
2.33733	-93
2.34100	-93
2.34467	-92
2.34833	-92
2.35200	-91
2.35567	-90
2.35933	-90
2.36300	-90
2.36667	-90
2.37033	-89
2.37400	-88
2.37767	-87
2.38133	-85
2.38500	-83
2.38867	-79
2.39233	-75
2.39600	-71
2.39967	-67
2.40333	-62
2.40700	-57
2.41067	-52
2.41433	-47
2.41800	-42
2.42167	-38
2.42533	-34
2.42900	-31
2.43267	-29
2.43633	-26
2.44000	-24
2.44367	-22
2.44733	-20
2.45100	-18
2.45467	-16
2.45833	-14
2.46200	-12
2.46567	-11
2.46933	-10
2.47300	-9
2.47667	-8
2.48033	-7
2.48400	-6
2.48767	-5
2.49133	-4
2.49500	-4
2.49867	-3
2.50233	-2
2.50600	-2
2.50967	-1
2.51333	0
2.51700	1
2.52067	2
2.52433	3
2.52800	4
2.53167	5
2.53533	5
2.53900	6
2.54267	7
2.54633	7
2.55000	7
2.55367	8
2.55733	8
2.56100	8
2.56467	9
2.56833	9
2.57200	9
2.57567	9
2.57933	9
2.58300	9
2.58667	9
2.59033	8
2.59400	8
2.59767	8
2.60133	8
2.60500	8
2.60867	8
2.61233	9
2.61600	9
2.61967	10
2.62333	10
2.62700	11
2.63067	11
2.63433	11
2.63800	11
2.64167	11
2.64533	11
2.64900	11
2.65267	12
2.65633	12
2.66000	13
2.66367	13
2.66733	14
2.67100	14
2.67467	15
2.67833	15
2.68200	16
2.68567	15
2.68933	15
2.69300	15
2.69667	15
2.70033	14
2.70400	14
2.70767	14
2.71133	14
2.71500	13
2.71867	13
2.72233	13
2.72600	14
2.72967	14
2.73333	14
2.73700	15
2.74067	15
2.74433	15
2.74800	16
2.75167	16
2.75533	16
2.75900	16
2.76267	16
2.76633	16
2.77000	17
2.77367	17
2.77733	17
2.78100	17
2.78467	17
2.78833	17
2.79200	17
2.79567	16
2.79933	16
2.80300	16
2.80667	16
2.81033	15
2.81400	15
2.81767	15
2.82133	15
2.82500	15
2.82867	15
2.83233	16
2.83600	16
2.83967	15
2.84333	14
2.84700	12
2.85067	9
2.85433	3
2.85800	-6
2.86167	-20
2.86533	-37
2.86900	-60
2.87267	-88
2.87633	-121
2.88000	-159
2.88367	-203
2.88733	-251
2.89100	-305
2.89467	-363
2.89833	-425
2.90200	-491
2.90567	-560
2.90933	-632
2.91300	-707
2.91667	-784
2.92033	-864
2.92400	-946
2.92767	-1030
2.93133	-1116
2.93500	-1203
2.93867	-1292
2.94233	-1381
2.94600	-1462
2.94967	-1524
2.95333	-1555
2.95700	-1550
2.96067	-1511
2.96433	-1442
2.96800	-1352
2.97167	-1248
2.97533	-1137
2.97900	-1025
2.98267	-915
2.98633	-811
2.99000	-714
2.99367	-625
2.99733	-545
3.00100	-473
3.00467	-409
3.00833	-353
3.01200	-304
3.01567	-262
3.01933	-225
3.02300	-193
3.02667	-165
3.03033	-141
3.03400	-121
3.03767	-104
3.04133	-89
3.04500	-76
3.04867	-65
3.05233	-56
3.05600	-47
3.05967	-41
3.06333	-35
3.06700	-30
3.07067	-25
3.07433	-22
3.07800	-19
3.08167	-16
3.08533	-13
3.08900	-11
3.09267	-9
3.09633	-8
3.10000	-6
3.10367	-5
3.10733	-4
3.11100	-3
3.11467	-2
3.11833	-1
3.12200	-0
3.12567	0
3.12933	1
3.13300	1
3.13667	1
3.14033	2
3.14400	2
3.14767	2
3.15133	3
3.15500	3
3.15867	4
3.16233	4
3.16600	5
3.16967	5
3.17333	6
3.17700	6
3.18067	7
3.18433	7
3.18800	7
3.19167	8
3.19533	8
3.19900	9
3.20267	9
3.20633	9
3.21000	10
3.21367	10
3.21733	11
3.22100	11
3.22467	11
3.22833	12
3.23200	12
3.23567	12
3.23933	12
3.24300	13
3.24667	13
3.25033	13
3.25400	14
3.25767	14
3.26133	14
3.26500	14
3.26867	14
3.27233	14
3.27600	14
3.27967	14
3.28333	14
3.28700	15
3.29067	15
3.29433	15
3.29800	15
3.30167	15
3.30533	15
3.30900	15
3.31267	15
3.31633	15
3.32000	15
3.32367	15
3.32733	15
3.33100	15
3.33467	15
3.33833	15
3.34200	15
3.34567	15
3.34933	15
3.35300	15
3.35667	15
3.36033	16
3.36400	16
3.36767	15
3.37133	15
3.37500	16
3.37867	16
3.38233	16
3.38600	16
3.38967	16
3.39333	16
3.39700	16
3.40067	17
3.40433	17
3.40800	17
3.41167	17
3.41533	17
3.41900	17
3.42267	16
3.42633	16
3.43000	16
3.43367	16
3.43733	16
3.44100	16
3.44467	16
3.44833	16
3.45200	16
3.45567	16
3.45933	16
3.46300	16
3.46667	16
3.47033	16
3.47400	16
3.47767	16
3.48133	16
3.48500	16
3.48867	16
3.49233	16
3.49600	16
3.49967	16
3.50333	16
3.50700	16
3.51067	16
3.51433	16
3.51800	16
3.52167	16
3.52533	16
3.52900	16
3.53267	16
3.53633	16
3.54000	16
3.54367	16
3.54733	16
3.55100	16
3.55467	16
3.55833	16
3.56200	16
3.56567	16
3.56933	16
3.57300	17
3.57667	17
3.58033	17
3.58400	17
3.58767	17
3.59133	17
3.59500	17
3.59867	17
3.60233	17
3.60600	17
3.60967	17
3.61333	17
3.61700	17
3.62067	17
3.62433	17
3.62800	17
3.63167	17
3.63533	16
3.63900	16
3.64267	16
3.64633	16
3.65000	17
3.65367	17
3.65733	17
3.66100	17
3.66467	17
3.66833	17
3.67200	17
3.67567	18
3.67933	18
3.68300	18
3.68667	18
3.69033	18
3.69400	18
3.69767	18
3.70133	18
3.70500	18
3.70867	18
3.71233	19
3.71600	19
3.71967	19
3.72333	19
3.72700	19
3.73067	19
3.73433	18
3.73800	18
3.74167	18
3.74533	18
3.74900	18
3.75267	18
3.75633	18
3.76000	17
3.76367	17
3.76733	17
3.77100	17
3.77467	17
3.77833	17
3.78200	17
3.78567	17
3.78933	17
3.79300	17
3.79667	17
3.80033	17
3.80400	17
3.80767	17
3.81133	17
3.81500	17
3.81867	17
3.82233	17
3.82600	17
3.82967	17
3.83333	17
3.83700	17
3.84067	17
3.84433	16
3.84800	16
3.85167	16
3.85533	16
3.85900	15
3.86267	15
3.86633	15
3.87000	15
3.87367	15
3.87733	15
3.88100	15
3.88467	15
3.88833	15
3.89200	15
3.89567	15
3.89933	15
3.90300	15
3.90667	15
3.91033	15
3.91400	16
3.91767	16
3.92133	16
3.92500	15
3.92867	15
3.93233	15
3.93600	15
3.93967	15
3.94333	15
3.94700	15
3.95067	16
3.95433	16
3.95800	16
3.96167	16
3.96533	16
3.96900	16
3.97267	16
3.97633	16
3.98000	16
3.98367	16
3.98733	15
3.99100	15
3.99467	15
3.99833	15

[Chromatogram (Ch3)]
Interval(msec)	220
# of Points	1091
Start Time(min)	0.002
End Time(min)	3.998
R.Time (min)	Intensity
0.00167	-0
0.00533	-0
0.00900	-1
0.01267	-2
0.01633	-3
0.02000	-5
0.02367	-4
0.02733	-5
0.03100	-4
0.03467	-3
0.03833	-2
0.04200	-2
0.04567	-4
0.04933	-4
0.05300	-4
0.05667	-3
0.06033	-4
0.06400	-4
0.06767	-4
0.07133	-4
0.07500	-4
0.07867	-4
0.08233	-2
0.08600	-0
0.08967	2
0.09333	1
0.09700	-2
0.10067	-2
0.10433	-2
0.10800	-1
0.11167	-1
0.11533	-3
0.11900	-5
0.12267	-5
0.12633	-4
0.13000	-4
0.13367	-4
0.13733	-3
0.14100	-1
0.14467	1
0.14833	0
0.15200	-1
0.15567	0
0.15933	2
0.16300	2
0.16667	1
0.17033	0
0.17400	-1
0.17767	-1
0.18133	1
0.18500	3
0.18867	3
0.19233	4
0.19600	2
0.19967	0
0.20333	-2
0.20700	-3
0.21067	-2
0.21433	-2
0.21800	-2
0.22167	-1
0.22533	-1
0.22900	-0
0.23267	-0
0.23633	-1
0.24000	-3
0.24367	-4
0.24733	-1
0.25100	1
0.25467	2
0.25833	1
0.26200	0
0.26567	-1
0.26933	-1
0.27300	-1
0.27667	-0
0.28033	-1
0.28400	-0
0.28767	3
0.29133	4
0.29500	2
0.29867	-1
0.30233	-2
0.30600	-2
0.30967	-3
0.31333	-3
0.31700	-4
0.32067	-5
0.32433	-5
0.32800	-3
0.33167	-2
0.33533	-1
0.33900	1
0.34267	2
0.34633	2
0.35000	3
0.35367	2
0.35733	2
0.36100	1
0.36467	1
0.36833	-1
0.37200	-2
0.37567	-2
0.37933	-1
0.38300	0
0.38667	2
0.39033	3
0.39400	3
0.39767	2
0.40133	1
0.40500	-0
0.40867	-3
0.41233	-6
0.41600	-5
0.41967	-0
0.42333	3
0.42700	5
0.43067	5
0.43433	3
0.43800	1
0.44167	-0
0.44533	-2
0.44900	-5
0.45267	-5
0.45633	-4
0.46000	-2
0.46367	-2
0.46733	-3
0.47100	-4
0.47467	-6
0.47833	-6
0.48200	-4
0.48567	-4
0.48933	-4
0.49300	-6
0.49667	-6
0.50033	-4
0.50400	-4
0.50767	-1
0.51133	1
0.51500	1
0.51867	1
0.52233	1
0.52600	1
0.52967	1
0.53333	1
0.53700	2
0.54067	3
0.54433	3
0.54800	2
0.55167	-1
0.55533	-3
0.55900	-3
0.56267	-3
0.56633	-5
0.57000	-5
0.57367	-3
0.57733	-2
0.58100	-2
0.58467	-1
0.58833	-1
0.59200	-0
0.59567	2
0.59933	2
0.60300	3
0.60667	3
0.61033	4
0.61400	3
0.61767	3
0.62133	2
0.62500	1
0.62867	-0
0.63233	1
0.63600	4
0.63967	5
0.64333	5
0.64700	4
0.65067	4
0.65433	3
0.65800	1
0.66167	0
0.66533	-0
0.66900	1
0.67267	2
0.67633	2
0.68000	3
0.68367	3
0.68733	4
0.69100	4
0.69467	4
0.69833	3
0.70200	5
0.70567	6
0.70933	4
0.71300	2
0.71667	2
0.72033	2
0.72400	2
0.72767	3
0.73133	4
0.73500	4
0.73867	4
0.74233	6
0.74600	9
0.74967	8
0.75333	5
0.75700	3
0.76067	-0
0.76433	1
0.76800	2
0.77167	4
0.77533	4
0.77900	3
0.78267	2
0.78633	4
0.79000	5
0.79367	4
0.79733	2
0.80100	0
0.80467	-0
0.80833	0
0.81200	-0
0.81567	-1
0.81933	-1
0.82300	-2
0.82667	-1
0.83033	0
0.83400	2
0.83767	3
0.84133	5
0.84500	4
0.84867	4
0.85233	4
0.85600	5
0.85967	6
0.86333	8
0.86700	8
0.87067	9
0.87433	10
0.87800	9
0.88167	8
0.88533	7
0.88900	7
0.89267	7
0.89633	7
0.90000	7
0.90367	6
0.90733	5
0.91100	2
0.91467	-1
0.91833	-0
0.92200	-0
0.92567	-1
0.92933	-1
0.93300	1
0.93667	2
0.94033	2
0.94400	3
0.94767	1
0.95133	-2
0.95500	-2
0.95867	-0
0.96233	3
0.96600	6
0.96967	8
0.97333	7
0.97700	5
0.98067	4
0.98433	3
0.98800	1
0.99167	2
0.99533	2
0.99900	0
1.00267	-2
1.00633	-3
1.01000	-2
1.01367	-1
1.01733	0
1.02100	2
1.02467	2
1.02833	2
1.03200	2
1.03567	2
1.03933	2
1.04300	1
1.04667	1
1.05033	1
1.05400	1
1.05767	1
1.06133	0
1.06500	-1
1.06867	-2
1.07233	-2
1.07600	-0
1.07967	2
1.08333	1
1.08700	-2
1.09067	-3
1.09433	-5
1.09800	-5
1.10167	-5
1.10533	-4
1.10900	-2
1.11267	1
1.11633	4
1.12000	4
1.12367	3
1.12733	1
1.13100	1
1.13467	0
1.13833	0
1.14200	-0
1.14567	-2
1.14933	-3
1.15300	-1
1.15667	1
1.16033	2
1.16400	3
1.16767	3
1.17133	4
1.17500	3
1.17867	5
1.18233	5
1.18600	3
1.18967	3
1.19333	3
1.19700	4
1.20067	1
1.20433	-1
1.20800	-3
1.21167	-2
1.21533	-1
1.21900	1
1.22267	3
1.22633	5
1.23000	6
1.23367	6
1.23733	6
1.24100	5
1.24467	3
1.24833	1
1.25200	-1
1.25567	1
1.25933	4
1.26300	5
1.26667	6
1.27033	7
1.27400	8
1.27767	9
1.28133	9
1.28500	6
1.28867	6
1.29233	6
1.29600	8
1.29967	8
1.30333	8
1.30700	7
1.31067	6
1.31433	4
1.31800	4
1.32167	6
1.32533	8
1.32900	8
1.33267	8
1.33633	9
1.34000	10
1.34367	8
1.34733	5
1.35100	5
1.35467	4
1.35833	4
1.36200	5
1.36567	6
1.36933	7
1.37300	8
1.37667	8
1.38033	6
1.38400	5
1.38767	4
1.39133	1
1.39500	2
1.39867	5
1.40233	5
1.40600	7
1.40967	10
1.41333	12
1.41700	13
1.42067	13
1.42433	11
1.42800	12
1.43167	12
1.43533	12
1.43900	10
1.44267	9
1.44633	11
1.45000	11
1.45367	10
1.45733	9
1.46100	8
1.46467	8
1.46833	10
1.47200	11
1.47567	11
1.47933	12
1.48300	11
1.48667	11
1.49033	12
1.49400	12
1.49767	11
1.50133	10
1.50500	8
1.50867	7
1.51233	8
1.51600	11
1.51967	11
1.52333	10
1.52700	9
1.53067	9
1.53433	9
1.53800	11
1.54167	12
1.54533	13
1.54900	14
1.55267	13
1.55633	11
1.56000	11
1.56367	10
1.56733	8
1.57100	6
1.57467	6
1.57833	8
1.58200	9
1.58567	11
1.58933	13
1.59300	14
1.59667	13
1.60033	13
1.60400	12
1.60767	12
1.61133	13
1.61500	14
1.61867	15
1.62233	15
1.62600	15
1.62967	14
1.63333	15
1.63700	16
1.64067	17
1.64433	18
1.64800	19
1.65167	20
1.65533	19
1.65900	18
1.66267	19
1.66633	19
1.67000	18
1.67367	19
1.67733	20
1.68100	19
1.68467	17
1.68833	18
1.69200	20
1.69567	21
1.69933	23
1.70300	23
1.70667	23
1.71033	23
1.71400	21
1.71767	19
1.72133	19
1.72500	20
1.72867	23
1.73233	24
1.73600	25
1.73967	26
1.74333	26
1.74700	27
1.75067	26
1.75433	28
1.75800	31
1.76167	33
1.76533	34
1.76900	35
1.77267	36
1.77633	34
1.78000	35
1.78367	36
1.78733	36
1.79100	37
1.79467	38
1.79833	38
1.80200	37
1.80567	37
1.80933	40
1.81300	42
1.81667	43
1.82033	44
1.82400	46
1.82767	48
1.83133	49
1.83500	51
1.83867	51
1.84233	52
1.84600	51
1.84967	52
1.85333	55
1.85700	57
1.86067	58
1.86433	59
1.86800	59
1.87167	59
1.87533	57
1.87900	57
1.88267	57
1.88633	59
1.89000	60
1.89367	62
1.89733	64
1.90100	66
1.90467	66
1.90833	66
1.91200	67
1.91567	69
1.91933	69
1.92300	67
1.92667	67
1.93033	67
1.93400	67
1.93767	69
1.94133	72
1.94500	74
1.94867	77
1.95233	78
1.95600	76
1.95967	77
1.96333	80
1.96700	83
1.97067	83
1.97433	83
1.97800	84
1.98167	85
1.98533	86
1.98900	86
1.99267	86
1.99633	86
2.00000	88
2.00367	91
2.00733	94
2.01100	95
2.01467	97
2.01833	99
2.02200	101
2.02567	102
2.02933	102
2.03300	102
2.03667	104
2.04033	105
2.04400	106
2.04767	107
2.05133	108
2.05500	108
2.05867	112
2.06233	115
2.06600	115
2.06967	117
2.07333	117
2.07700	118
2.08067	119
2.08433	121
2.08800	123
2.09167	125
2.09533	125
2.09900	125
2.10267	125
2.10633	126
2.11000	129
2.11367	133
2.11733	133
2.12100	133
2.12467	133
2.12833	133
2.13200	135
2.13567	135
2.13933	135
2.14300	135
2.14667	138
2.15033	139
2.15400	141
2.15767	145
2.16133	149
2.16500	151
2.16867	151
2.17233	151
2.17600	152
2.17967	153
2.18333	152
2.18700	154
2.19067	156
2.19433	158
2.19800	163
2.20167	167
2.20533	169
2.20900	170
2.21267	170
2.21633	169
2.22000	167
2.22367	165
2.22733	167
2.23100	168
2.23467	171
2.23833	174
2.24200	175
2.24567	174
2.24933	174
2.25300	175
2.25667	178
2.26033	180
2.26400	180
2.26767	180
2.27133	181
2.27500	184
2.27867	188
2.28233	192
2.28600	194
2.28967	195
2.29333	195
2.29700	196
2.30067	196
2.30433	198
2.30800	201
2.31167	202
2.31533	204
2.31900	205
2.32267	205
2.32633	207
2.33000	209
2.33367	210
2.33733	212
2.34100	215
2.34467	218
2.34833	220
2.35200	222
2.35567	224
2.35933	224
2.36300	222
2.36667	222
2.37033	223
2.37400	224
2.37767	225
2.38133	226
2.38500	224
2.38867	221
2.39233	222
2.39600	226
2.39967	230
2.40333	231
2.40700	231
2.41067	232
2.41433	234
2.41800	237
2.42167	243
2.42533	249
2.42900	252
2.43267	252
2.43633	251
2.44000	251
2.44367	252
2.44733	254
2.45100	256
2.45467	259
2.45833	260
2.46200	261
2.46567	262
2.46933	265
2.47300	264
2.47667	260
2.48033	258
2.48400	254
2.48767	251
2.49133	250
2.49500	248
2.49867	244
2.50233	240
2.50600	235
2.50967	230
2.51333	226
2.51700	222
2.52067	217
2.52433	213
2.52800	208
2.53167	202
2.53533	194
2.53900	187
2.54267	180
2.54633	176
2.55000	173
2.55367	171
2.55733	168
2.56100	167
2.56467	167
2.56833	165
2.57200	162
2.57567	160
2.57933	157
2.58300	155
2.58667	153
2.59033	151
2.59400	147
2.59767	139
2.60133	129
2.60500	114
2.60867	91
2.61233	58
2.61600	21
2.61967	-18
2.62333	-56
2.62700	-93
2.63067	-125
2.63433	-153
2.63800	-175
2.64167	-193
2.64533	-208
2.64900	-216
2.65267	-218
2.65633	-219
2.66000	-220
2.66367	-218
2.66733	-214
2.67100	-209
2.67467	-202
2.67833	-197
2.68200	-192
2.68567	-186
2.68933	-179
2.69300	-172
2.69667	-164
2.70033	-157
2.70400	-150
2.70767	-143
2.71133	-135
2.71500	-128
2.71867	-121
2.72233	-115
2.72600	-108
2.72967	-100
2.73333	-94
2.73700	-88
2.74067	-83
2.74433	-77
2.74800	-69
2.75167	-62
2.75533	-57
2.75900	-53
2.76267	-50
2.76633	-47
2.77000	-46
2.77367	-42
2.77733	-36
2.78100	-30
2.78467	-23
2.78833	-18
2.79200	-15
2.79567	-12
2.79933	-9
2.80300	-7
2.80667	-5
2.81033	-2
2.81400	2
2.81767	10
2.82133	22
2.82500	45
2.82867	98
2.83233	223
2.83600	469
2.83967	896
2.84333	1568
2.84700	2528
2.85067	3791
2.85433	5326
2.85800	7063
2.86167	8895
2.86533	10697
2.86900	12328
2.87267	13662
2.87633	14618
2.88000	15154
2.88367	15269
2.88733	15007
2.89100	14431
2.89467	13624
2.89833	12666
2.90200	11630
2.90567	10572
2.90933	9529
2.91300	8529
2.91667	7592
2.92033	6728
2.92400	5941
2.92767	5230
2.93133	4594
2.93500	4027
2.93867	3524
2.94233	3082
2.94600	2693
2.94967	2350
2.95333	2048
2.95700	1787
2.96067	1559
2.96433	1360
2.96800	1188
2.97167	1040
2.97533	912
2.97900	799
2.98267	701
2.98633	618
2.99000	548
2.99367	488
2.99733	438
3.00100	393
3.00467	356
3.00833	324
3.01200	296
3.01567	272
3.01933	252
3.02300	233
3.02667	217
3.03033	206
3.03400	196
3.03767	188
3.04133	181
3.04500	173
3.04867	166
3.05233	158
3.05600	149
3.05967	143
3.06333	140
3.06700	137
3.07067	134
3.07433	131
3.07800	131
3.08167	133
3.08533	134
3.08900	134
3.09267	131
3.09633	128
3.10000	126
3.10367	127
3.10733	126
3.11100	126
3.11467	125
3.11833	123
3.12200	122
3.12567	121
3.12933	120
3.13300	117
3.13667	115
3.14033	107
3.14400	100
3.14767	103
3.15133	118
3.15500	144
3.15867	175
3.16233	207
3.16600	244
3.16967	281
3.17333	315
3.17700	350
3.18067	388
3.18433	424
3.18800	458
3.19167	491
3.19533	519
3.19900	547
3.20267	577
3.20633	602
3.21000	624
3.21367	643
3.21733	658
3.22100	672
3.22467	688
3.22833	702
3.23200	714
3.23567	725
3.23933	735
3.24300	743
3.24667	750
3.25033	759
3.25400	766
3.25767	771
3.26133	778
3.26500	785
3.26867	791
3.27233	795
3.27600	800
3.27967	803
3.28333	804
3.28700	803
3.29067	805
3.29433	809
3.29800	811
3.30167	813
3.30533	814
3.30900	815
3.31267	816
3.31633	816
3.32000	820
3.32367	821
3.32733	818
3.33100	815
3.33467	813
3.33833	810
3.34200	808
3.34567	805
3.34933	807
3.35300	811
3.35667	811
3.36033	810
3.36400	808
3.36767	805
3.37133	802
3.37500	799
3.37867	797
3.38233	796
3.38600	794
3.38967	792
3.39333	791
3.39700	790
3.40067	788
3.40433	789
3.40800	792
3.41167	792
3.41533	789
3.41900	787
3.42267	788
3.42633	789
3.43000	789
3.43367	787
3.43733	784
3.44100	781
3.44467	779
3.44833	778
3.45200	775
3.45567	772
3.45933	772
3.46300	771
3.46667	768
3.47033	764
3.47400	761
3.47767	759
3.48133	756
3.48500	751
3.48867	745
3.49233	742
3.49600	741
3.49967	742
3.50333	741
3.50700	737
3.51067	734
3.51433	730
3.51800	729
3.52167	729
3.52533	728
3.52900	726
3.53267	722
3.53633	717
3.54000	712
3.54367	707
3.54733	704
3.55100	702
3.55467	701
3.55833	698
3.56200	695
3.56567	691
3.56933	686
3.57300	680
3.57667	676
3.58033	673
3.58400	670
3.58767	667
3.59133	664
3.59500	662
3.59867	659
3.60233	659
3.60600	657
3.60967	654
3.61333	651
3.61700	649
3.62067	643
3.62433	639
3.62800	636
3.63167	632
3.63533	629
3.63900	627
3.64267	623
3.64633	619
3.65000	614
3.65367	612
3.65733	610
3.66100	605
3.66467	599
3.66833	597
3.67200	593
3.67567	589
3.67933	586
3.68300	583
3.68667	580
3.69033	576
3.69400	573
3.69767	568
3.70133	565
3.70500	562
3.70867	558
3.71233	553
3.71600	549
3.71967	545
3.72333	542
3.72700	540
3.73067	537
3.73433	537
3.73800	536
3.74167	533
3.74533	528
3.74900	520
3.75267	515
3.75633	511
3.76000	506
3.76367	504
3.76733	502
3.77100	500
3.77467	498
3.77833	495
3.78200	492
3.78567	490
3.78933	487
3.79300	482
3.79667	479
3.80033	476
3.80400	474
3.80767	472
3.81133	469
3.81500	466
3.81867	463
3.82233	461
3.82600	456
3.82967	449
3.83333	446
3.83700	444
3.84067	439
3.84433	436
3.84800	435
3.85167	433
3.85533	431
3.85900	427
3.86267	424
3.86633	420
3.87000	419
3.87367	417
3.87733	416
3.88100	417
3.88467	417
3.88833	415
3.89200	411
3.89567	405
3.89933	401
3.90300	398
3.90667	396
3.91033	396
3.91400	396
3.91767	395
3.92133	393
3.92500	390
3.92867	389
3.93233	387
3.93600	385
3.93967	383
3.94333	377
3.94700	373
3.95067	370
3.95433	368
3.95800	366
3.96167	364
3.96533	361
3.96900	357
3.97267	357
3.97633	355
3.98000	353
3.98367	354
3.98733	353
3.99100	351
3.99467	347
3.99833	343

[Status Trace (Column Oven Temperature)]
Interval(msec)	1000
# of Points	240
Start Time(min)	0.007
End Time(min)	3.990
Intensity Units	
Intensity Multiplier	1
R.Time (min)	Intensity
0.00672	35.03
0.02338	35.03
0.04005	35.03
0.05672	35.03
0.07338	35.02
0.09005	35.02
0.10672	35.01
0.12338	35.01
0.14005	35.00
0.15672	34.99
0.17338	34.98
0.19005	34.97
0.20672	34.99
0.22338	35.01
0.24005	35.02
0.25672	35.02
0.27338	35.02
0.29005	35.02
0.30672	35.03
0.32338	35.04
0.34005	35.03
0.35672	35.02
0.37338	35.01
0.39005	35.01
0.40672	35.01
0.42338	35.00
0.44005	34.99
0.45672	34.98
0.47338	34.98
0.49005	34.99
0.50672	34.98
0.52338	34.97
0.54005	34.97
0.55672	34.96
0.57338	34.96
0.59005	34.95
0.60672	34.96
0.62338	34.96
0.64005	34.96
0.65672	34.97
0.67338	34.98
0.69005	34.99
0.70672	35.00
0.72338	35.01
0.74005	35.03
0.75672	35.02
0.77338	35.02
0.79005	35.01
0.80672	35.00
0.82338	34.99
0.84005	34.98
0.85672	34.98
0.87338	34.97
0.89005	34.96
0.90672	34.96
0.92338	34.97
0.94005	34.96
0.95672	34.96
0.97338	34.98
0.99005	35.00
1.00672	35.02
1.02338	35.03
1.04005	35.03
1.05672	35.03
1.07338	35.03
1.09005	35.03
1.10672	35.02
1.12338	35.01
1.14005	35.01
1.15672	35.00
1.17338	35.00
1.19005	35.00
1.20672	35.01
1.22338	35.01
1.24005	35.00
1.25672	34.99
1.27338	34.98
1.29005	34.97
1.30672	34.96
1.32338	34.95
1.34005	34.94
1.35672	34.94
1.37338	34.94
1.39005	34.96
1.40672	34.97
1.42338	34.98
1.44005	34.98
1.45672	34.99
1.47338	34.98
1.49005	34.98
1.50672	34.98
1.52338	34.97
1.54005	34.96
1.55672	34.97
1.57338	34.97
1.59005	35.00
1.60672	35.06
1.62338	35.19
1.64005	35.38
1.65672	35.61
1.67338	35.92
1.69005	36.30
1.70672	36.65
1.72338	36.99
1.74005	37.33
1.75672	37.67
1.77338	37.98
1.79005	38.30
1.80672	38.64
1.82338	38.98
1.84005	39.31
1.85672	39.63
1.87338	39.96
1.89005	40.29
1.90672	40.62
1.92338	40.94
1.94005	41.27
1.95672	41.60
1.97338	41.92
1.99005	42.25
2.00672	42.56
2.02338	42.91
2.04005	43.23
2.05672	43.55
2.07338	43.87
2.09005	44.22
2.10672	44.54
2.12338	44.87
2.14005	45.21
2.15672	45.51
2.17338	45.82
2.19005	46.16
2.20672	46.48
2.22338	46.81
2.24005	47.14
2.25672	47.47
2.27338	47.83
2.29005	48.18
2.30672	48.49
2.32338	48.83
2.34005	49.13
2.35672	49.42
2.37338	49.65
2.39005	49.74
2.40672	49.74
2.42338	49.75
2.44005	49.75
2.45672	49.76
2.47338	49.79
2.49005	49.80
2.50672	49.80
2.52338	49.80
2.54005	49.80
2.55672	49.80
2.57338	49.82
2.59005	49.86
2.60672	49.85
2.62338	49.84
2.64005	49.87
2.65672	49.86
2.67338	49.84
2.69005	49.86
2.70672	49.87
2.72338	49.87
2.74005	49.86
2.75672	49.85
2.77338	49.85
2.79005	49.86
2.80672	49.88
2.82338	49.89
2.84005	49.90
2.85672	49.92
2.87338	49.94
2.89005	49.95
2.90672	49.96
2.92338	49.98
2.94005	49.99
2.95672	50.01
2.97338	50.01
2.99005	50.03
3.00672	50.03
3.02338	50.04
3.04005	50.06
3.05672	50.06
3.07338	50.06
3.09005	50.07
3.10672	50.07
3.12338	50.08
3.14005	50.09
3.15672	50.10
3.17338	50.11
3.19005	50.11
3.20672	50.09
3.22338	50.09
3.24005	50.08
3.25672	50.07
3.27338	50.08
3.29005	50.08
3.30672	50.08
3.32338	50.09
3.34005	50.09
3.35672	50.09
3.37338	50.09
3.39005	50.08
3.40672	50.07
3.42338	50.08
3.44005	50.08
3.45672	50.08
3.47338	50.08
3.49005	50.08
3.50672	50.08
3.52338	50.09
3.54005	50.09
3.55672	50.09
3.57338	50.10
3.59005	50.10
3.60672	50.10
3.62338	50.10
3.64005	50.10
3.65672	50.10
3.67338	50.09
3.69005	50.08
3.70672	50.07
3.72338	50.07
3.74005	50.06
3.75672	50.06
3.77338	50.06
3.79005	50.05
3.80672	50.05
3.82338	50.06
3.84005	50.05
3.85672	50.05
3.87338	50.05
3.89005	50.05
3.90672	50.05
3.92338	50.05
3.94005	50.06
3.95672	50.06
3.97338	50.05
3.99005	50.06

[Status Trace (Injection Unit Temperature)]
Interval(msec)	1000
# of Points	240
Start Time(min)	0.007
End Time(min)	3.990
Intensity Units	
Intensity Multiplier	1
R.Time (min)	Intensity
0.00672	99.98
0.02338	99.98
0.04005	99.98
0.05672	99.98
0.07338	99.98
0.09005	99.98
0.10672	99.98
0.12338	99.98
0.14005	99.98
0.15672	99.98
0.17338	99.98
0.19005	99.98
0.20672	99.98
0.22338	99.98
0.24005	99.98
0.25672	99.98
0.27338	99.98
0.29005	99.98
0.30672	99.98
0.32338	99.98
0.34005	99.98
0.35672	99.98
0.37338	99.98
0.39005	99.98
0.40672	99.98
0.42338	99.99
0.44005	99.98
0.45672	99.98
0.47338	99.98
0.49005	99.99
0.50672	99.98
0.52338	99.98
0.54005	99.98
0.55672	99.98
0.57338	99.98
0.59005	99.99
0.60672	99.98
0.62338	99.98
0.64005	99.99
0.65672	99.98
0.67338	99.98
0.69005	99.98
0.70672	99.98
0.72338	99.98
0.74005	99.98
0.75672	99.98
0.77338	99.98
0.79005	99.98
0.80672	99.98
0.82338	99.98
0.84005	99.98
0.85672	99.98
0.87338	99.98
0.89005	99.98
0.90672	99.99
0.92338	99.98
0.94005	99.99
0.95672	99.98
0.97338	99.98
0.99005	99.98
1.00672	99.98
1.02338	99.99
1.04005	99.99
1.05672	99.99
1.07338	99.99
1.09005	99.98
1.10672	99.98
1.12338	99.98
1.14005	99.98
1.15672	99.98
1.17338	99.98
1.19005	99.99
1.20672	99.98
1.22338	99.98
1.24005	99.99
1.25672	99.98
1.27338	99.99
1.29005	99.98
1.30672	99.99
1.32338	99.99
1.34005	99.98
1.35672	99.99
1.37338	99.99
1.39005	99.99
1.40672	99.99
1.42338	99.98
1.44005	99.99
1.45672	99.99
1.47338	99.99
1.49005	99.99
1.50672	99.98
1.52338	99.98
1.54005	99.98
1.55672	99.99
1.57338	99.98
1.59005	99.98
1.60672	99.98
1.62338	99.98
1.64005	99.98
1.65672	99.98
1.67338	99.98
1.69005	99.98
1.70672	99.99
1.72338	99.98
1.74005	99.98
1.75672	99.99
1.77338	99.98
1.79005	99.98
1.80672	99.99
1.82338	99.98
1.84005	99.98
1.85672	99.98
1.87338	99.98
1.89005	99.98
1.90672	99.98
1.92338	99.98
1.94005	99.98
1.95672	99.98
1.97338	99.98
1.99005	99.98
2.00672	99.98
2.02338	99.98
2.04005	99.98
2.05672	99.97
2.07338	99.98
2.09005	99.97
2.10672	99.97
2.12338	99.97
2.14005	99.97
2.15672	99.97
2.17338	99.97
2.19005	99.97
2.20672	99.97
2.22338	99.97
2.24005	99.97
2.25672	99.97
2.27338	99.96
2.29005	99.97
2.30672	99.97
2.32338	99.97
2.34005	99.97
2.35672	99.97
2.37338	99.97
2.39005	99.97
2.40672	99.97
2.42338	99.97
2.44005	99.97
2.45672	99.97
2.47338	99.97
2.49005	99.97
2.50672	99.97
2.52338	99.97
2.54005	99.97
2.55672	99.97
2.57338	99.97
2.59005	99.97
2.60672	99.98
2.62338	99.98
2.64005	99.98
2.65672	99.98
2.67338	99.98
2.69005	99.98
2.70672	99.98
2.72338	99.98
2.74005	99.99
2.75672	99.99
2.77338	99.99
2.79005	99.99
2.80672	99.99
2.82338	100.00
2.84005	99.99
2.85672	100.00
2.87338	100.00
2.89005	100.00
2.90672	100.00
2.92338	100.00
2.94005	100.00
2.95672	100.01
2.97338	100.01
2.99005	100.01
3.00672	100.01
3.02338	100.01
3.04005	100.01
3.05672	100.02
3.07338	100.02
3.09005	100.02
3.10672	100.02
3.12338	100.02
3.14005	100.02
3.15672	100.03
3.17338	100.02
3.19005	100.02
3.20672	100.03
3.22338	100.03
3.24005	100.03
3.25672	100.03
3.27338	100.03
3.29005	100.03
3.30672	100.03
3.32338	100.04
3.34005	100.04
3.35672	100.03
3.37338	100.03
3.39005	100.04
3.40672	100.03
3.42338	100.04
3.44005	100.04
3.45672	100.04
3.47338	100.04
3.49005	100.04
3.50672	100.04
3.52338	100.04
3.54005	100.04
3.55672	100.04
3.57338	100.04
3.59005	100.04
3.60672	100.04
3.62338	100.04
3.64005	100.05
3.65672	100.04
3.67338	100.04
3.69005	100.04
3.70672	100.05
3.72338	100.04
3.74005	100.05
3.75672	100.05
3.77338	100.04
3.79005	100.04
3.80672	100.05
3.82338	100.05
3.84005	100.05
3.85672	100.05
3.87338	100.05
3.89005	100.05
3.90672	100.05
3.92338	100.04
3.94005	100.05
3.95672	100.04
3.97338	100.05
3.99005	100.05

[Status Trace (Carrier Gas Pressure)]
Interval(msec)	1000
# of Points	240
Start Time(min)	0.007
End Time(min)	3.990
Intensity Units	
Intensity Multiplier	1
R.Time (min)	Intensity
0.00672	58.00
0.02338	55.57
0.04005	56.92
0.05672	58.97
0.07338	59.67
0.09005	58.12
0.10672	57.98
0.12338	58.01
0.14005	58.01
0.15672	58.01
0.17338	58.00
0.19005	58.00
0.20672	58.00
0.22338	58.00
0.24005	58.00
0.25672	58.00
0.27338	58.00
0.29005	58.00
0.30672	58.00
0.32338	58.00
0.34005	58.00
0.35672	58.00
0.37338	58.00
0.39005	58.00
0.40672	58.00
0.42338	58.00
0.44005	58.00
0.45672	58.00
0.47338	58.00
0.49005	58.00
0.50672	58.00
0.52338	58.00
0.54005	58.00
0.55672	58.00
0.57338	58.00
0.59005	58.00
0.60672	58.00
0.62338	58.00
0.64005	58.00
0.65672	58.00
0.67338	58.00
0.69005	58.00
0.70672	58.00
0.72338	58.00
0.74005	58.00
0.75672	58.00
0.77338	58.00
0.79005	58.00
0.80672	58.00
0.82338	58.00
0.84005	58.00
0.85672	58.00
0.87338	58.00
0.89005	58.00
0.90672	58.00
0.92338	58.00
0.94005	58.00
0.95672	58.00
0.97338	58.00
0.99005	58.00
1.00672	58.00
1.02338	58.00
1.04005	58.00
1.05672	58.00
1.07338	58.00
1.09005	58.00
1.10672	58.00
1.12338	58.00
1.14005	58.00
1.15672	58.00
1.17338	58.00
1.19005	58.00
1.20672	58.00
1.22338	58.00
1.24005	58.00
1.25672	58.00
1.27338	58.00
1.29005	58.00
1.30672	58.00
1.32338	58.00
1.34005	58.00
1.35672	58.00
1.37338	58.00
1.39005	58.00
1.40672	58.00
1.42338	58.00
1.44005	58.00
1.45672	58.00
1.47338	58.00
1.49005	58.00
1.50672	58.00
1.52338	58.00
1.54005	58.00
1.55672	58.00
1.57338	58.00
1.59005	58.00
1.60672	58.00
1.62338	58.00
1.64005	58.00
1.65672	58.00
1.67338	58.01
1.69005	58.01
1.70672	58.00
1.72338	58.00
1.74005	58.00
1.75672	58.00
1.77338	58.00
1.79005	58.00
1.80672	58.00
1.82338	58.00
1.84005	58.00
1.85672	58.00
1.87338	58.00
1.89005	58.00
1.90672	58.00
1.92338	58.00
1.94005	58.00
1.95672	58.00
1.97338	58.00
1.99005	58.00
2.00672	58.00
2.02338	58.00
2.04005	58.00
2.05672	58.00
2.07338	58.00
2.09005	58.00
2.10672	58.00
2.12338	58.00
2.14005	58.00
2.15672	58.00
2.17338	58.00
2.19005	58.00
2.20672	58.00
2.22338	58.00
2.24005	58.00
2.25672	58.00
2.27338	58.00
2.29005	58.00
2.30672	58.00
2.32338	58.00
2.34005	58.00
2.35672	58.00
2.37338	58.00
2.39005	57.99
2.40672	57.99
2.42338	58.00
2.44005	58.00
2.45672	58.00
2.47338	58.00
2.49005	58.00
2.50672	57.99
2.52338	57.98
2.54005	58.00
2.55672	58.00
2.57338	58.00
2.59005	58.00
2.60672	58.00
2.62338	58.00
2.64005	58.00
2.65672	58.00
2.67338	58.00
2.69005	58.00
2.70672	58.00
2.72338	58.00
2.74005	58.00
2.75672	58.00
2.77338	58.00
2.79005	58.00
2.80672	58.00
2.82338	58.00
2.84005	58.00
2.85672	58.00
2.87338	58.00
2.89005	58.00
2.90672	58.00
2.92338	58.00
2.94005	58.00
2.95672	58.00
2.97338	58.00
2.99005	58.00
3.00672	58.00
3.02338	58.00
3.04005	58.00
3.05672	58.00
3.07338	58.00
3.09005	58.00
3.10672	58.00
3.12338	58.00
3.14005	58.00
3.15672	58.00
3.17338	58.00
3.19005	58.00
3.20672	58.00
3.22338	58.00
3.24005	58.00
3.25672	58.00
3.27338	58.00
3.29005	58.00
3.30672	58.00
3.32338	58.00
3.34005	58.00
3.35672	58.00
3.37338	58.00
3.39005	58.00
3.40672	58.00
3.42338	58.00
3.44005	58.00
3.45672	58.00
3.47338	58.00
3.49005	58.00
3.50672	58.00
3.52338	58.00
3.54005	58.00
3.55672	58.00
3.57338	58.00
3.59005	58.00
3.60672	58.00
3.62338	58.00
3.64005	58.00
3.65672	58.00
3.67338	58.00
3.69005	58.00
3.70672	58.00
3.72338	58.00
3.74005	58.00
3.75672	58.00
3.77338	58.00
3.79005	58.00
3.80672	58.00
3.82338	58.00
3.84005	58.00
3.85672	58.00
3.87338	58.00
3.89005	58.00
3.90672	58.00
3.92338	58.00
3.94005	58.00
3.95672	58.00
3.97338	58.00
3.99005	58.00

[Status Trace (Carrier Gas Flow)]
Interval(msec)	1000
# of Points	240
Start Time(min)	0.007
End Time(min)	3.990
Intensity Units	
Intensity Multiplier	1
R.Time (min)	Intensity
0.00672	34.52
0.02338	34.53
0.04005	34.55
0.05672	34.54
0.07338	34.51
0.09005	34.52
0.10672	34.52
0.12338	34.52
0.14005	34.52
0.15672	34.52
0.17338	34.52
0.19005	34.52
0.20672	34.52
0.22338	34.52
0.24005	34.52
0.25672	34.52
0.27338	34.52
0.29005	34.52
0.30672	34.52
0.32338	34.52
0.34005	34.52
0.35672	34.52
0.37338	34.52
0.39005	34.52
0.40672	34.52
0.42338	34.52
0.44005	34.52
0.45672	34.52
0.47338	34.52
0.49005	34.52
0.50672	34.52
0.52338	34.52
0.54005	34.52
0.55672	34.52
0.57338	34.52
0.59005	34.52
0.60672	34.52
0.62338	34.52
0.64005	34.52
0.65672	34.52
0.67338	34.52
0.69005	34.52
0.70672	34.52
0.72338	34.52
0.74005	34.52
0.75672	34.52
0.77338	34.52
0.79005	34.52
0.80672	34.52
0.82338	34.52
0.84005	34.52
0.85672	34.52
0.87338	34.52
0.89005	34.52
0.90672	34.52
0.92338	34.52
0.94005	34.52
0.95672	34.52
0.97338	34.52
0.99005	34.52
1.00672	34.52
1.02338	34.52
1.04005	34.52
1.05672	34.52
1.07338	34.52
1.09005	34.52
1.10672	34.52
1.12338	34.52
1.14005	34.52
1.15672	34.52
1.17338	34.52
1.19005	34.52
1.20672	34.52
1.22338	34.52
1.24005	34.52
1.25672	34.52
1.27338	34.52
1.29005	34.52
1.30672	34.52
1.32338	34.52
1.34005	34.52
1.35672	34.52
1.37338	34.52
1.39005	34.52
1.40672	34.52
1.42338	34.52
1.44005	34.52
1.45672	34.52
1.47338	34.52
1.49005	34.52
1.50672	34.52
1.52338	34.52
1.54005	34.52
1.55672	34.52
1.57338	34.52
1.59005	34.52
1.60672	34.52
1.62338	34.52
1.64005	34.52
1.65672	34.52
1.67338	34.52
1.69005	34.52
1.70672	34.52
1.72338	34.52
1.74005	34.52
1.75672	34.52
1.77338	34.52
1.79005	34.52
1.80672	34.52
1.82338	34.52
1.84005	34.52
1.85672	34.52
1.87338	34.52
1.89005	34.52
1.90672	34.52
1.92338	34.52
1.94005	34.52
1.95672	34.52
1.97338	34.52
1.99005	34.52
2.00672	34.52
2.02338	34.52
2.04005	34.52
2.05672	34.52
2.07338	34.52
2.09005	34.52
2.10672	34.52
2.12338	34.52
2.14005	34.52
2.15672	34.52
2.17338	34.52
2.19005	34.52
2.20672	34.52
2.22338	34.52
2.24005	34.52
2.25672	34.52
2.27338	34.52
2.29005	34.52
2.30672	34.52
2.32338	34.52
2.34005	34.52
2.35672	34.52
2.37338	34.52
2.39005	34.53
2.40672	34.52
2.42338	34.52
2.44005	34.53
2.45672	34.51
2.47338	34.52
2.49005	34.51
2.50672	34.48
2.52338	34.52
2.54005	34.52
2.55672	34.52
2.57338	34.52
2.59005	34.52
2.60672	34.52
2.62338	34.52
2.64005	34.52
2.65672	34.52
2.67338	34.52
2.69005	34.52
2.70672	34.52
2.72338	34.52
2.74005	34.52
2.75672	34.52
2.77338	34.52
2.79005	34.52
2.80672	34.52
2.82338	34.52
2.84005	34.52
2.85672	34.52
2.87338	34.52
2.89005	34.52
2.90672	34.52
2.92338	34.51
2.94005	34.52
2.95672	34.51
2.97338	34.53
2.99005	34.51
3.00672	34.52
3.02338	34.52
3.04005	34.52
3.05672	34.52
3.07338	34.52
3.09005	34.52
3.10672	34.52
3.12338	34.52
3.14005	34.52
3.15672	34.52
3.17338	34.52
3.19005	34.52
3.20672	34.52
3.22338	34.52
3.24005	34.52
3.25672	34.52
3.27338	34.52
3.29005	34.52
3.30672	34.52
3.32338	34.52
3.34005	34.52
3.35672	34.52
3.37338	34.52
3.39005	34.52
3.40672	34.52
3.42338	34.52
3.44005	34.52
3.45672	34.52
3.47338	34.52
3.49005	34.52
3.50672	34.52
3.52338	34.52
3.54005	34.52
3.55672	34.52
3.57338	34.52
3.59005	34.52
3.60672	34.52
3.62338	34.52
3.64005	34.52
3.65672	34.52
3.67338	34.52
3.69005	34.52
3.70672	34.52
3.72338	34.52
3.74005	34.52
3.75672	34.52
3.77338	34.52
3.79005	34.52
3.80672	34.52
3.82338	34.52
3.84005	34.52
3.85672	34.52
3.87338	34.52
3.89005	34.52
3.90672	34.52
3.92338	34.52
3.94005	34.52
3.95672	34.52
3.97338	34.51
3.99005	34.52

[Status Trace (Column Flow)]
Interval(msec)	1000
# of Points	240
Start Time(min)	0.007
End Time(min)	3.990
Intensity Units	
Intensity Multiplier	1
R.Time (min)	Intensity
0.00672	5.49
0.02338	5.21
0.04005	5.36
0.05672	5.60
0.07338	5.68
0.09005	5.50
0.10672	5.49
0.12338	5.49
0.14005	5.49
0.15672	5.49
0.17338	5.49
0.19005	5.49
0.20672	5.49
0.22338	5.49
0.24005	5.49
0.25672	5.49
0.27338	5.49
0.29005	5.49
0.30672	5.49
0.32338	5.49
0.34005	5.49
0.35672	5.49
0.37338	5.49
0.39005	5.49
0.40672	5.49
0.42338	5.49
0.44005	5.49
0.45672	5.49
0.47338	5.49
0.49005	5.49
0.50672	5.49
0.52338	5.49
0.54005	5.49
0.55672	5.49
0.57338	5.49
0.59005	5.49
0.60672	5.49
0.62338	5.49
0.64005	5.49
0.65672	5.49
0.67338	5.49
0.69005	5.49
0.70672	5.49
0.72338	5.49
0.74005	5.49
0.75672	5.49
0.77338	5.49
0.79005	5.49
0.80672	5.49
0.82338	5.49
0.84005	5.49
0.85672	5.49
0.87338	5.49
0.89005	5.49
0.90672	5.49
0.92338	5.49
0.94005	5.49
0.95672	5.49
0.97338	5.49
0.99005	5.49
1.00672	5.49
1.02338	5.49
1.04005	5.49
1.05672	5.49
1.07338	5.49
1.09005	5.49
1.10672	5.49
1.12338	5.49
1.14005	5.49
1.15672	5.49
1.17338	5.49
1.19005	5.49
1.20672	5.49
1.22338	5.49
1.24005	5.49
1.25672	5.49
1.27338	5.49
1.29005	5.49
1.30672	5.49
1.32338	5.49
1.34005	5.49
1.35672	5.49
1.37338	5.49
1.39005	5.49
1.40672	5.49
1.42338	5.49
1.44005	5.49
1.45672	5.49
1.47338	5.49
1.49005	5.49
1.50672	5.49
1.52338	5.49
1.54005	5.49
1.55672	5.49
1.57338	5.49
1.59005	5.49
1.60672	5.49
1.62338	5.49
1.64005	5.48
1.65672	5.47
1.67338	5.46
1.69005	5.45
1.70672	5.44
1.72338	5.43
1.74005	5.42
1.75672	5.41
1.77338	5.40
1.79005	5.39
1.80672	5.38
1.82338	5.37
1.84005	5.36
1.85672	5.35
1.87338	5.34
1.89005	5.33
1.90672	5.32
1.92338	5.31
1.94005	5.30
1.95672	5.29
1.97338	5.28
1.99005	5.27
2.00672	5.26
2.02338	5.25
2.04005	5.24
2.05672	5.23
2.07338	5.22
2.09005	5.21
2.10672	5.20
2.12338	5.19
2.14005	5.18
2.15672	5.18
2.17338	5.17
2.19005	5.16
2.20672	5.15
2.22338	5.14
2.24005	5.13
2.25672	5.12
2.27338	5.11
2.29005	5.10
2.30672	5.09
2.32338	5.08
2.34005	5.07
2.35672	5.07
2.37338	5.06
2.39005	5.06
2.40672	5.06
2.42338	5.06
2.44005	5.06
2.45672	5.06
2.47338	5.06
2.49005	5.05
2.50672	5.05
2.52338	5.05
2.54005	5.05
2.55672	5.06
2.57338	5.05
2.59005	5.05
2.60672	5.05
2.62338	5.05
2.64005	5.05
2.65672	5.05
2.67338	5.05
2.69005	5.05
2.70672	5.05
2.72338	5.05
2.74005	5.05
2.75672	5.05
2.77338	5.05
2.79005	5.05
2.80672	5.05
2.82338	5.05
2.84005	5.05
2.85672	5.05
2.87338	5.05
2.89005	5.05
2.90672	5.05
2.92338	5.05
2.94005	5.05
2.95672	5.05
2.97338	5.05
2.99005	5.05
3.00672	5.05
3.02338	5.05
3.04005	5.05
3.05672	5.05
3.07338	5.05
3.09005	5.05
3.10672	5.05
3.12338	5.05
3.14005	5.05
3.15672	5.05
3.17338	5.05
3.19005	5.05
3.20672	5.05
3.22338	5.05
3.24005	5.05
3.25672	5.05
3.27338	5.05
3.29005	5.05
3.30672	5.05
3.32338	5.05
3.34005	5.05
3.35672	5.05
3.37338	5.05
3.39005	5.05
3.40672	5.05
3.42338	5.05
3.44005	5.05
3.45672	5.05
3.47338	5.05
3.49005	5.05
3.50672	5.05
3.52338	5.05
3.54005	5.05
3.55672	5.05
3.57338	5.05
3.59005	5.05
3.60672	5.05
3.62338	5.05
3.64005	5.05
3.65672	5.05
3.67338	5.05
3.69005	5.05
3.70672	5.05
3.72338	5.05
3.74005	5.05
3.75672	5.05
3.77338	5.05
3.79005	5.05
3.80672	5.05
3.82338	5.05
3.84005	5.05
3.85672	5.05
3.87338	5.05
3.89005	5.05
3.90672	5.05
3.92338	5.05
3.94005	5.05
3.95672	5.05
3.97338	5.05
3.99005	5.05

[Status Trace (Linear Velocity)]
Interval(msec)	1000
# of Points	240
Start Time(min)	0.007
End Time(min)	3.990
Intensity Units	
Intensity Multiplier	1
R.Time (min)	Intensity
0.00672	39.01
0.02338	37.41
0.04005	38.30
0.05672	39.64
0.07338	40.10
0.09005	39.09
0.10672	38.99
0.12338	39.01
0.14005	39.02
0.15672	39.01
0.17338	39.01
0.19005	39.01
0.20672	39.01
0.22338	39.01
0.24005	39.01
0.25672	39.01
0.27338	39.01
0.29005	39.01
0.30672	39.01
0.32338	39.01
0.34005	39.01
0.35672	39.01
0.37338	39.01
0.39005	39.01
0.40672	39.01
0.42338	39.01
0.44005	39.01
0.45672	39.01
0.47338	39.01
0.49005	39.01
0.50672	39.01
0.52338	39.01
0.54005	39.01
0.55672	39.01
0.57338	39.01
0.59005	39.01
0.60672	39.01
0.62338	39.01
0.64005	39.01
0.65672	39.01
0.67338	39.01
0.69005	39.01
0.70672	39.01
0.72338	39.01
0.74005	39.01
0.75672	39.01
0.77338	39.01
0.79005	39.01
0.80672	39.01
0.82338	39.01
0.84005	39.01
0.85672	39.01
0.87338	39.01
0.89005	39.01
0.90672	39.01
0.92338	39.01
0.94005	39.01
0.95672	39.01
0.97338	39.01
0.99005	39.01
1.00672	39.01
1.02338	39.01
1.04005	39.01
1.05672	39.01
1.07338	39.01
1.09005	39.01
1.10672	39.01
1.12338	39.01
1.14005	39.01
1.15672	39.01
1.17338	39.01
1.19005	39.01
1.20672	39.01
1.22338	39.01
1.24005	39.01
1.25672	39.01
1.27338	39.01
1.29005	39.01
1.30672	39.01
1.32338	39.01
1.34005	39.01
1.35672	39.02
1.37338	39.02
1.39005	39.01
1.40672	39.01
1.42338	39.01
1.44005	39.01
1.45672	39.01
1.47338	39.01
1.49005	39.01
1.50672	39.01
1.52338	39.01
1.54005	39.01
1.55672	39.01
1.57338	39.01
1.59005	39.01
1.60672	39.01
1.62338	39.00
1.64005	38.97
1.65672	38.96
1.67338	38.93
1.69005	38.89
1.70672	38.86
1.72338	38.82
1.74005	38.79
1.75672	38.76
1.77338	38.73
1.79005	38.69
1.80672	38.67
1.82338	38.63
1.84005	38.60
1.85672	38.57
1.87338	38.54
1.89005	38.51
1.90672	38.48
1.92338	38.45
1.94005	38.42
1.95672	38.39
1.97338	38.36
1.99005	38.33
2.00672	38.30
2.02338	38.27
2.04005	38.23
2.05672	38.21
2.07338	38.18
2.09005	38.15
2.10672	38.12
2.12338	38.09
2.14005	38.05
2.15672	38.03
2.17338	38.00
2.19005	37.97
2.20672	37.94
2.22338	37.91
2.24005	37.88
2.25672	37.85
2.27338	37.82
2.29005	37.79
2.30672	37.76
2.32338	37.73
2.34005	37.70
2.35672	37.68
2.37338	37.66
2.39005	37.64
2.40672	37.64
2.42338	37.65
2.44005	37.65
2.45672	37.65
2.47338	37.64
2.49005	37.64
2.50672	37.64
2.52338	37.63
2.54005	37.64
2.55672	37.64
2.57338	37.64
2.59005	37.64
2.60672	37.64
2.62338	37.64
2.64005	37.64
2.65672	37.64
2.67338	37.64
2.69005	37.64
2.70672	37.64
2.72338	37.64
2.74005	37.64
2.75672	37.64
2.77338	37.64
2.79005	37.64
2.80672	37.64
2.82338	37.64
2.84005	37.63
2.85672	37.63
2.87338	37.63
2.89005	37.63
2.90672	37.63
2.92338	37.63
2.94005	37.63
2.95672	37.63
2.97338	37.62
2.99005	37.62
3.00672	37.62
3.02338	37.62
3.04005	37.62
3.05672	37.62
3.07338	37.62
3.09005	37.62
3.10672	37.62
3.12338	37.62
3.14005	37.62
3.15672	37.62
3.17338	37.62
3.19005	37.62
3.20672	37.62
3.22338	37.62
3.24005	37.62
3.25672	37.62
3.27338	37.62
3.29005	37.62
3.30672	37.62
3.32338	37.62
3.34005	37.62
3.35672	37.62
3.37338	37.62
3.39005	37.62
3.40672	37.62
3.42338	37.62
3.44005	37.62
3.45672	37.62
3.47338	37.62
3.49005	37.62
3.50672	37.62
3.52338	37.62
3.54005	37.62
3.55672	37.62
3.57338	37.62
3.59005	37.62
3.60672	37.62
3.62338	37.62
3.64005	37.62
3.65672	37.62
3.67338	37.62
3.69005	37.62
3.70672	37.62
3.72338	37.62
3.74005	37.62
3.75672	37.62
3.77338	37.62
3.79005	37.62
3.80672	37.62
3.82338	37.62
3.84005	37.62
3.85672	37.62
3.87338	37.62
3.89005	37.62
3.90672	37.62
3.92338	37.62
3.94005	37.62
3.95672	37.62
3.97338	37.62
3.99005	37.62

