[Header]
Application Name	LabSolutions
Version	5.110
Data File Name	C:\Users\User\Desktop\GC Analyses\Jack\UIC Prairie Sampling\7.9.22\220909_101.gcd
Output Date	9/28/2022
Output Time	11:29:56 AM

[File Information]
Type	Data File
Generated	9/20/2022 12:44:32 PM
Generated by	System Administrator
Modified	9/20/2022 12:49:00 PM
Modified by	System Administrator

[Sample Information]
Operator Name	System Administrator
Acquired	9/20/2022 12:45:00 PM
Sample Type	1:Standard
Level	1
Sample Name	220909_Run
Sample ID	220909_Run
ISTD Amount1	1
ISTD Amount2	1
ISTD Amount3	1
ISTD Amount4	1
ISTD Amount5	1
ISTD Amount6	1
ISTD Amount7	1
ISTD Amount8	1
ISTD Amount9	1
ISTD Amount10	1
ISTD Amount11	1
ISTD Amount12	1
ISTD Amount13	1
ISTD Amount14	1
ISTD Amount15	1
ISTD Amount16	1
ISTD Amount17	1
ISTD Amount18	1
ISTD Amount19	1
ISTD Amount20	1
ISTD Amount21	1
ISTD Amount22	1
ISTD Amount23	1
ISTD Amount24	1
ISTD Amount25	1
ISTD Amount26	1
ISTD Amount27	1
ISTD Amount28	1
ISTD Amount29	1
ISTD Amount30	1
ISTD Amount31	1
ISTD Amount32	1
Sample Amount	1
Dilution Factor	1
Vial#	1
Injection Volume	1
Injection Count	1
Bar Code	

[Original Files]
Data File	C:\Users\User\Desktop\GC Analyses\Jack\220909\220909_101.gcd
Method File	C:\LabSolutions\Data\GHG_4min_2022\ghg3_togas_w_acet_4 min_new_int.gcm
Batch File	
Report Format File	c:\LabSolutions\System\DEFAULT.lsr

[File Description]


[Configuration]
Instrument Name	C0B7VH3-Instrument1
Instrument #	1
Line #	1
# of Detectors	3
Detector ID	DET#1	DET#2	DET#3
Detector Name	FID	PTCD	ECD
# of Channels	1	1	1

[Peak Table(Ch1)]
# of Peaks	3
Peak#	R.Time	I.Time	F.Time	Area	Height	A/H	Conc.	Mark	ID#	Name	k'	Plate #	Plate Ht.	Tailing	Resolution	Sep.Factor	Area Ratio	Height Ratio	Conc. %	Norm Conc.
1	1.476	1.432	1.538	19340	8837	2.188	100.000	   	1	CO	0.000	8755	17.133	1.274	0.000	0.000	0	0	16.667	16.667
2	1.571	1.538	1.622	4628	2373	1.951	100.000	 V 	2	CH4	0.065	11230	13.358	1.170	1.558	0.000	0	0	16.667	16.667
3	2.000	1.945	2.282	1443316	711918	2.027	400.000	   	3	CO2	0.355	17907	8.377	1.210	7.205	5.500	0	0	66.667	66.667

[Peak Table(Ch2)]
# of Peaks	0

[Peak Table(Ch3)]
# of Peaks	3
Peak#	R.Time	I.Time	F.Time	Area	Height	A/H	Conc.	Mark	ID#	Name	k'	Plate #	Plate Ht.	Tailing	Resolution	Sep.Factor	Area Ratio	Height Ratio	Conc. %	Norm Conc.
1	2.594	1.971	2.660	6208	602	10.304	0.000	   			0.000	2176	68.944	0.000	0.000	0.000	0	0	0.000	0.000
2	2.744	2.660	2.821	3150	350	9.011	0.127	 V 	1	N2O	0.058	305	491.109	0.000	0.353	0.000	0	0	12.698	12.698
3	2.884	2.821	3.228	21659	5080	4.263	0.873	 V 	1	N2O	0.112	12396	12.100	0.000	0.381	1.927	0	0	87.302	87.302

[Compound Results(Ch1)]
# of IDs	6
ID#	Name	R.Time	Area	Height	Conc.	Curve	3rd	2nd	1st	Constant	Area Ratio	Height Ratio	Conc. %	Norm Conc.
1	CO	1.476	19340	8837	100.000	Linear	0.000000e+00	0.000000e+00	1.933995e+002	0.000000e+00	0	0	16.667	16.667
2	CH4	1.571	4628	2373	100.000	Linear	0.000000e+00	0.000000e+00	4.627713e+001	0.000000e+00	0	0	16.667	16.667
3	CO2	2.000	1443316	711918	400.000	Linear	0.000000e+00	0.000000e+00	3.608291e+003	0.000000e+00	0	0	66.667	66.667
4	Ethylene	0.000	0	0	0.000	Linear	0.000000e+00	0.000000e+00	0.000000e+00	0.000000e+00	0	0	0.000	0.000
5	Acetylene	0.000	0	0	0.000	Linear	0.000000e+00	0.000000e+00	0.000000e+00	0.000000e+00	0	0	0.000	0.000
6	Ethane	0.000	0	0	0.000	Linear	0.000000e+00	0.000000e+00	0.000000e+00	0.000000e+00	0	0	0.000	0.000

[Compound Results(Ch2)]
# of IDs	5
ID#	Name	R.Time	Area	Height	Conc.	Curve	3rd	2nd	1st	Constant	Area Ratio	Height Ratio	Conc. %	Norm Conc.
1	Hydrogen	0.000	0	0	0.000	Linear	0.000000e+00	0.000000e+00	0.000000e+00	0.000000e+00	0	0	0.000	0.000
2	Oxygen	0.000	0	0	0.000	Linear	0.000000e+00	0.000000e+00	0.000000e+00	0.000000e+00	0	0	0.000	0.000
3	Nitrogen	0.000	0	0	0.000	Linear	0.000000e+00	0.000000e+00	0.000000e+00	0.000000e+00	0	0	0.000	0.000
4	Methane	0.000	0	0	0.000	Linear	0.000000e+00	0.000000e+00	0.000000e+00	0.000000e+00	0	0	0.000	0.000
5	Carbon Monoxide	0.000	0	0	0.000	Linear	0.000000e+00	0.000000e+00	0.000000e+00	0.000000e+00	0	0	0.000	0.000

[Compound Results(Ch3)]
# of IDs	2
ID#	Name	R.Time	Area	Height	Conc.	Curve	3rd	2nd	1st	Constant	Area Ratio	Height Ratio	Conc. %	Norm Conc.
1	N2O	2.884	24810	5430	1.000	Linear	0.000000e+00	0.000000e+00	2.480980e+004	0.000000e+00	0	0	100.000	100.000
2	SF6	0.000	0	0	0.000	Linear	0.000000e+00	0.000000e+00	0.000000e+00	0.000000e+00	0	0	0.000	0.000

[Group Results(Ch1)]
# of Groups	0

[Group Results(Ch2)]
# of Groups	0

[Group Results(Ch3)]
# of Groups	0

[Chromatogram (Ch1)]
Interval(msec)	220
# of Points	1091
Start Time(min)	0.002
End Time(min)	3.998
R.Time (min)	Intensity
0.00167	22
0.00533	18
0.00900	14
0.01267	8
0.01633	5
0.02000	5
0.02367	6
0.02733	9
0.03100	11
0.03467	12
0.03833	9
0.04200	4
0.04567	-1
0.04933	-4
0.05300	-4
0.05667	-2
0.06033	2
0.06400	4
0.06767	5
0.07133	4
0.07500	3
0.07867	-1
0.08233	-5
0.08600	-5
0.08967	-5
0.09333	-7
0.09700	-8
0.10067	-7
0.10433	-7
0.10800	-7
0.11167	-5
0.11533	-4
0.11900	-3
0.12267	-5
0.12633	-10
0.13000	-14
0.13367	-14
0.13733	-10
0.14100	-7
0.14467	-7
0.14833	-8
0.15200	-7
0.15567	-6
0.15933	-5
0.16300	-5
0.16667	-3
0.17033	-8
0.17400	-11
0.17767	-5
0.18133	-4
0.18500	-4
0.18867	-6
0.19233	-11
0.19600	-15
0.19967	-14
0.20333	-12
0.20700	-9
0.21067	-6
0.21433	-3
0.21800	-4
0.22167	-10
0.22533	-16
0.22900	-20
0.23267	-21
0.23633	-21
0.24000	-17
0.24367	-13
0.24733	-8
0.25100	-4
0.25467	-4
0.25833	-7
0.26200	-11
0.26567	-13
0.26933	-13
0.27300	-10
0.27667	-9
0.28033	-11
0.28400	-15
0.28767	-18
0.29133	-18
0.29500	-16
0.29867	-12
0.30233	-9
0.30600	-13
0.30967	-16
0.31333	-17
0.31700	-15
0.32067	-14
0.32433	-17
0.32800	-23
0.33167	-29
0.33533	-33
0.33900	-35
0.34267	-34
0.34633	-34
0.35000	-36
0.35367	-37
0.35733	-36
0.36100	-36
0.36467	-37
0.36833	-39
0.37200	-39
0.37567	-38
0.37933	-36
0.38300	-34
0.38667	-34
0.39033	-34
0.39400	-36
0.39767	-36
0.40133	-38
0.40500	-40
0.40867	-43
0.41233	-46
0.41600	-48
0.41967	-50
0.42333	-47
0.42700	-43
0.43067	-38
0.43433	-33
0.43800	-34
0.44167	-39
0.44533	-47
0.44900	-54
0.45267	-58
0.45633	-60
0.46000	-61
0.46367	-56
0.46733	-48
0.47100	-42
0.47467	-41
0.47833	-44
0.48200	-47
0.48567	-48
0.48933	-51
0.49300	-53
0.49667	-54
0.50033	-52
0.50400	-51
0.50767	-49
0.51133	-49
0.51500	-50
0.51867	-49
0.52233	-47
0.52600	-43
0.52967	-43
0.53333	-49
0.53700	-60
0.54067	-71
0.54433	-76
0.54800	-75
0.55167	-68
0.55533	-57
0.55900	-47
0.56267	-38
0.56633	-32
0.57000	-31
0.57367	-33
0.57733	-37
0.58100	-45
0.58467	-53
0.58833	-59
0.59200	-63
0.59567	-67
0.59933	-71
0.60300	-73
0.60667	-72
0.61033	-68
0.61400	-65
0.61767	-66
0.62133	-69
0.62500	-74
0.62867	-80
0.63233	-85
0.63600	-89
0.63967	-95
0.64333	-99
0.64700	-98
0.65067	-92
0.65433	-85
0.65800	-76
0.66167	-68
0.66533	-64
0.66900	-67
0.67267	-72
0.67633	-74
0.68000	-74
0.68367	-72
0.68733	-67
0.69100	-62
0.69467	-60
0.69833	-60
0.70200	-64
0.70567	-67
0.70933	-71
0.71300	-70
0.71667	-65
0.72033	-59
0.72400	-53
0.72767	-53
0.73133	-55
0.73500	-55
0.73867	-56
0.74233	-59
0.74600	-65
0.74967	-69
0.75333	-69
0.75700	-70
0.76067	-73
0.76433	-75
0.76800	-76
0.77167	-79
0.77533	-77
0.77900	-71
0.78267	-66
0.78633	-63
0.79000	-63
0.79367	-63
0.79733	-67
0.80100	-74
0.80467	-80
0.80833	-87
0.81200	-90
0.81567	-90
0.81933	-87
0.82300	-83
0.82667	-81
0.83033	-84
0.83400	-89
0.83767	-92
0.84133	-91
0.84500	-89
0.84867	-88
0.85233	-88
0.85600	-88
0.85967	-89
0.86333	-91
0.86700	-92
0.87067	-94
0.87433	-96
0.87800	-98
0.88167	-98
0.88533	-94
0.88900	-91
0.89267	-92
0.89633	-95
0.90000	-99
0.90367	-98
0.90733	-92
0.91100	-86
0.91467	-83
0.91833	-83
0.92200	-86
0.92567	-89
0.92933	-91
0.93300	-94
0.93667	-99
0.94033	-102
0.94400	-102
0.94767	-99
0.95133	-96
0.95500	-97
0.95867	-99
0.96233	-100
0.96600	-102
0.96967	-102
0.97333	-97
0.97700	-91
0.98067	-87
0.98433	-85
0.98800	-87
0.99167	-92
0.99533	-96
0.99900	-100
1.00267	-103
1.00633	-103
1.01000	-104
1.01367	-104
1.01733	-105
1.02100	-107
1.02467	-111
1.02833	-119
1.03200	-119
1.03567	-124
1.03933	-120
1.04300	-115
1.04667	-112
1.05033	-109
1.05400	-103
1.05767	-101
1.06133	-102
1.06500	-102
1.06867	-101
1.07233	-98
1.07600	-93
1.07967	-90
1.08333	-91
1.08700	-97
1.09067	-102
1.09433	-107
1.09800	-113
1.10167	-116
1.10533	-115
1.10900	-114
1.11267	-112
1.11633	-111
1.12000	-111
1.12367	-112
1.12733	-112
1.13100	-108
1.13467	-107
1.13833	-109
1.14200	-110
1.14567	-105
1.14933	-97
1.15300	-94
1.15667	-95
1.16033	-99
1.16400	-108
1.16767	-119
1.17133	-128
1.17500	-135
1.17867	-141
1.18233	-146
1.18600	-148
1.18967	-148
1.19333	-145
1.19700	-142
1.20067	-139
1.20433	-136
1.20800	-134
1.21167	-133
1.21533	-133
1.21900	-129
1.22267	-126
1.22633	-124
1.23000	-122
1.23367	-118
1.23733	-114
1.24100	-115
1.24467	-118
1.24833	-119
1.25200	-121
1.25567	-126
1.25933	-134
1.26300	-140
1.26667	-145
1.27033	-146
1.27400	-143
1.27767	-136
1.28133	-132
1.28500	-131
1.28867	-132
1.29233	-133
1.29600	-131
1.29967	-126
1.30333	-125
1.30700	-133
1.31067	-140
1.31433	-142
1.31800	-142
1.32167	-143
1.32533	-145
1.32900	-144
1.33267	-140
1.33633	-138
1.34000	-139
1.34367	-140
1.34733	-137
1.35100	-132
1.35467	-127
1.35833	-123
1.36200	-123
1.36567	-125
1.36933	-128
1.37300	-129
1.37667	-128
1.38033	-127
1.38400	-128
1.38767	-130
1.39133	-130
1.39500	-130
1.39867	-133
1.40233	-139
1.40600	-145
1.40967	-148
1.41333	-149
1.41700	-147
1.42067	-145
1.42433	-144
1.42800	-141
1.43167	-139
1.43533	-140
1.43900	-135
1.44267	-79
1.44633	150
1.45000	676
1.45367	1581
1.45733	2911
1.46100	4520
1.46467	6096
1.46833	7389
1.47200	8273
1.47567	8685
1.47933	8592
1.48300	7992
1.48667	6970
1.49033	5712
1.49400	4433
1.49767	3290
1.50133	2358
1.50500	1639
1.50867	1106
1.51233	723
1.51600	454
1.51967	265
1.52333	133
1.52700	41
1.53067	-24
1.53433	-72
1.53800	-102
1.54167	-101
1.54533	-22
1.54900	197
1.55267	570
1.55633	1027
1.56000	1468
1.56367	1829
1.56733	2081
1.57100	2192
1.57467	2130
1.57833	1890
1.58200	1527
1.58567	1129
1.58933	768
1.59300	477
1.59667	259
1.60033	103
1.60400	-5
1.60767	-78
1.61133	-129
1.61500	-163
1.61867	-184
1.62233	-196
1.62600	-203
1.62967	-203
1.63333	-199
1.63700	-195
1.64067	-193
1.64433	-192
1.64800	-190
1.65167	-184
1.65533	-175
1.65900	-167
1.66267	-166
1.66633	-174
1.67000	-187
1.67367	-201
1.67733	-212
1.68100	-218
1.68467	-215
1.68833	-209
1.69200	-205
1.69567	-203
1.69933	-204
1.70300	-205
1.70667	-205
1.71033	-203
1.71400	-201
1.71767	-198
1.72133	-196
1.72500	-195
1.72867	-196
1.73233	-197
1.73600	-199
1.73967	-200
1.74333	-200
1.74700	-198
1.75067	-198
1.75433	-199
1.75800	-202
1.76167	-204
1.76533	-204
1.76900	-204
1.77267	-206
1.77633	-205
1.78000	-202
1.78367	-197
1.78733	-192
1.79100	-187
1.79467	-183
1.79833	-181
1.80200	-181
1.80567	-182
1.80933	-183
1.81300	-183
1.81667	-186
1.82033	-189
1.82400	-190
1.82767	-186
1.83133	-185
1.83500	-186
1.83867	-187
1.84233	-184
1.84600	-180
1.84967	-177
1.85333	-177
1.85700	-178
1.86067	-179
1.86433	-179
1.86800	-180
1.87167	-178
1.87533	-173
1.87900	-166
1.88267	-163
1.88633	-164
1.89000	-169
1.89367	-174
1.89733	-176
1.90100	-175
1.90467	-177
1.90833	-184
1.91200	-193
1.91567	-201
1.91933	-205
1.92300	-204
1.92667	-198
1.93033	-188
1.93400	-180
1.93767	-175
1.94133	-172
1.94500	-168
1.94867	-162
1.95233	-152
1.95600	-119
1.95967	79
1.96333	1145
1.96700	5671
1.97067	20286
1.97433	56555
1.97800	126711
1.98167	233902
1.98533	366086
1.98900	500465
1.99267	613422
1.99633	687380
2.00000	711784
2.00367	684410
2.00733	612778
2.01100	512865
2.01467	403939
2.01833	302210
2.02200	217109
2.02567	151408
2.02933	103536
2.03300	70043
2.03667	47244
2.04033	31988
2.04400	21877
2.04767	15195
2.05133	10765
2.05500	7805
2.05867	5802
2.06233	4425
2.06600	3462
2.06967	2774
2.07333	2273
2.07700	1902
2.08067	1618
2.08433	1395
2.08800	1215
2.09167	1071
2.09533	955
2.09900	859
2.10267	775
2.10633	700
2.11000	635
2.11367	577
2.11733	525
2.12100	481
2.12467	445
2.12833	417
2.13200	396
2.13567	377
2.13933	358
2.14300	336
2.14667	312
2.15033	287
2.15400	263
2.15767	244
2.16133	230
2.16500	216
2.16867	204
2.17233	193
2.17600	181
2.17967	170
2.18333	161
2.18700	151
2.19067	142
2.19433	135
2.19800	130
2.20167	125
2.20533	121
2.20900	112
2.21267	110
2.21633	115
2.22000	121
2.22367	119
2.22733	113
2.23100	107
2.23467	102
2.23833	93
2.24200	82
2.24567	71
2.24933	60
2.25300	51
2.25667	43
2.26033	34
2.26400	32
2.26767	35
2.27133	41
2.27500	45
2.27867	46
2.28233	42
2.28600	35
2.28967	30
2.29333	27
2.29700	23
2.30067	18
2.30433	15
2.30800	16
2.31167	18
2.31533	20
2.31900	23
2.32267	22
2.32633	18
2.33000	16
2.33367	16
2.33733	17
2.34100	19
2.34467	21
2.34833	19
2.35200	12
2.35567	2
2.35933	-7
2.36300	-11
2.36667	-12
2.37033	-10
2.37400	-10
2.37767	-12
2.38133	-13
2.38500	-14
2.38867	-16
2.39233	-16
2.39600	-15
2.39967	-13
2.40333	-8
2.40700	-4
2.41067	2
2.41433	7
2.41800	12
2.42167	14
2.42533	15
2.42900	15
2.43267	12
2.43633	4
2.44000	-5
2.44367	-13
2.44733	-20
2.45100	-26
2.45467	-30
2.45833	-35
2.46200	-41
2.46567	-42
2.46933	-38
2.47300	-36
2.47667	-34
2.48033	-30
2.48400	-28
2.48767	-26
2.49133	-26
2.49500	-28
2.49867	-31
2.50233	-31
2.50600	-29
2.50967	-30
2.51333	-30
2.51700	-29
2.52067	-28
2.52433	-30
2.52800	-32
2.53167	-31
2.53533	-29
2.53900	-25
2.54267	-22
2.54633	-22
2.55000	-27
2.55367	-31
2.55733	-32
2.56100	-32
2.56467	-32
2.56833	-33
2.57200	-34
2.57567	-34
2.57933	-37
2.58300	-41
2.58667	-46
2.59033	-49
2.59400	-52
2.59767	-55
2.60133	-59
2.60500	-60
2.60867	-57
2.61233	-51
2.61600	-46
2.61967	-45
2.62333	-48
2.62700	-49
2.63067	-49
2.63433	-48
2.63800	-44
2.64167	-42
2.64533	-45
2.64900	-53
2.65267	-64
2.65633	-74
2.66000	-79
2.66367	-75
2.66733	-66
2.67100	-61
2.67467	-60
2.67833	-63
2.68200	-64
2.68567	-62
2.68933	-57
2.69300	-56
2.69667	-58
2.70033	-61
2.70400	-63
2.70767	-62
2.71133	-57
2.71500	-51
2.71867	-48
2.72233	-51
2.72600	-59
2.72967	-70
2.73333	-82
2.73700	-89
2.74067	-93
2.74433	-97
2.74800	-98
2.75167	-97
2.75533	-93
2.75900	-90
2.76267	-88
2.76633	-88
2.77000	-86
2.77367	-85
2.77733	-86
2.78100	-85
2.78467	-79
2.78833	-71
2.79200	-64
2.79567	-58
2.79933	-50
2.80300	-42
2.80667	-39
2.81033	-39
2.81400	-40
2.81767	-42
2.82133	-48
2.82500	-58
2.82867	-67
2.83233	-75
2.83600	-78
2.83967	-79
2.84333	-79
2.84700	-78
2.85067	-74
2.85433	-68
2.85800	-65
2.86167	-67
2.86533	-71
2.86900	-76
2.87267	-76
2.87633	-73
2.88000	-68
2.88367	-66
2.88733	-65
2.89100	-64
2.89467	-64
2.89833	-62
2.90200	-61
2.90567	-58
2.90933	-56
2.91300	-53
2.91667	-51
2.92033	-51
2.92400	-52
2.92767	-56
2.93133	-62
2.93500	-67
2.93867	-71
2.94233	-68
2.94600	-59
2.94967	-52
2.95333	-50
2.95700	-51
2.96067	-57
2.96433	-67
2.96800	-77
2.97167	-84
2.97533	-85
2.97900	-83
2.98267	-81
2.98633	-83
2.99000	-85
2.99367	-82
2.99733	-76
3.00100	-70
3.00467	-67
3.00833	-67
3.01200	-68
3.01567	-71
3.01933	-78
3.02300	-85
3.02667	-88
3.03033	-84
3.03400	-76
3.03767	-67
3.04133	-64
3.04500	-63
3.04867	-62
3.05233	-61
3.05600	-59
3.05967	-58
3.06333	-59
3.06700	-59
3.07067	-59
3.07433	-58
3.07800	-58
3.08167	-62
3.08533	-68
3.08900	-77
3.09267	-85
3.09633	-86
3.10000	-81
3.10367	-72
3.10733	-64
3.11100	-60
3.11467	-62
3.11833	-67
3.12200	-69
3.12567	-70
3.12933	-70
3.13300	-73
3.13667	-78
3.14033	-81
3.14400	-83
3.14767	-82
3.15133	-79
3.15500	-75
3.15867	-72
3.16233	-71
3.16600	-71
3.16967	-75
3.17333	-79
3.17700	-82
3.18067	-83
3.18433	-83
3.18800	-85
3.19167	-86
3.19533	-85
3.19900	-82
3.20267	-75
3.20633	-70
3.21000	-67
3.21367	-68
3.21733	-71
3.22100	-74
3.22467	-78
3.22833	-80
3.23200	-79
3.23567	-76
3.23933	-71
3.24300	-65
3.24667	-60
3.25033	-57
3.25400	-54
3.25767	-53
3.26133	-58
3.26500	-63
3.26867	-68
3.27233	-74
3.27600	-80
3.27967	-85
3.28333	-86
3.28700	-90
3.29067	-101
3.29433	-107
3.29800	-99
3.30167	-88
3.30533	-79
3.30900	-75
3.31267	-74
3.31633	-76
3.32000	-77
3.32367	-80
3.32733	-82
3.33100	-83
3.33467	-83
3.33833	-85
3.34200	-86
3.34567	-88
3.34933	-88
3.35300	-87
3.35667	-84
3.36033	-79
3.36400	-77
3.36767	-75
3.37133	-74
3.37500	-75
3.37867	-78
3.38233	-81
3.38600	-81
3.38967	-80
3.39333	-82
3.39700	-85
3.40067	-89
3.40433	-90
3.40800	-89
3.41167	-88
3.41533	-84
3.41900	-79
3.42267	-76
3.42633	-76
3.43000	-74
3.43367	-69
3.43733	-65
3.44100	-64
3.44467	-66
3.44833	-67
3.45200	-66
3.45567	-64
3.45933	-63
3.46300	-60
3.46667	-60
3.47033	-68
3.47400	-79
3.47767	-87
3.48133	-94
3.48500	-96
3.48867	-92
3.49233	-83
3.49600	-76
3.49967	-73
3.50333	-76
3.50700	-81
3.51067	-84
3.51433	-88
3.51800	-93
3.52167	-93
3.52533	-91
3.52900	-88
3.53267	-84
3.53633	-78
3.54000	-70
3.54367	-61
3.54733	-56
3.55100	-56
3.55467	-58
3.55833	-60
3.56200	-65
3.56567	-68
3.56933	-69
3.57300	-72
3.57667	-73
3.58033	-73
3.58400	-72
3.58767	-70
3.59133	-67
3.59500	-65
3.59867	-66
3.60233	-68
3.60600	-67
3.60967	-65
3.61333	-61
3.61700	-55
3.62067	-51
3.62433	-47
3.62800	-45
3.63167	-43
3.63533	-46
3.63900	-52
3.64267	-59
3.64633	-64
3.65000	-66
3.65367	-67
3.65733	-68
3.66100	-67
3.66467	-65
3.66833	-63
3.67200	-61
3.67567	-60
3.67933	-61
3.68300	-64
3.68667	-64
3.69033	-60
3.69400	-57
3.69767	-56
3.70133	-54
3.70500	-54
3.70867	-54
3.71233	-57
3.71600	-59
3.71967	-58
3.72333	-56
3.72700	-56
3.73067	-56
3.73433	-52
3.73800	-48
3.74167	-45
3.74533	-42
3.74900	-38
3.75267	-37
3.75633	-40
3.76000	-50
3.76367	-61
3.76733	-69
3.77100	-71
3.77467	-71
3.77833	-71
3.78200	-70
3.78567	-65
3.78933	-57
3.79300	-48
3.79667	-40
3.80033	-34
3.80400	-31
3.80767	-30
3.81133	-36
3.81500	-41
3.81867	-43
3.82233	-47
3.82600	-53
3.82967	-56
3.83333	-54
3.83700	-52
3.84067	-52
3.84433	-53
3.84800	-52
3.85167	-49
3.85533	-46
3.85900	-42
3.86267	-38
3.86633	-38
3.87000	-39
3.87367	-43
3.87733	-45
3.88100	-45
3.88467	-42
3.88833	-41
3.89200	-40
3.89567	-40
3.89933	-40
3.90300	-39
3.90667	-36
3.91033	-31
3.91400	-27
3.91767	-27
3.92133	-30
3.92500	-33
3.92867	-33
3.93233	-32
3.93600	-29
3.93967	-24
3.94333	-17
3.94700	-15
3.95067	-18
3.95433	-23
3.95800	-31
3.96167	-41
3.96533	-52
3.96900	-60
3.97267	-59
3.97633	-51
3.98000	-40
3.98367	-32
3.98733	-30
3.99100	-30
3.99467	-29
3.99833	-27

[Chromatogram (Ch2)]
Interval(msec)	220
# of Points	1091
Start Time(min)	0.002
End Time(min)	3.998
R.Time (min)	Intensity
0.00167	-1
0.00533	-0
0.00900	-0
0.01267	-0
0.01633	0
0.02000	0
0.02367	0
0.02733	0
0.03100	1
0.03467	1
0.03833	1
0.04200	1
0.04567	1
0.04933	1
0.05300	1
0.05667	1
0.06033	1
0.06400	1
0.06767	1
0.07133	1
0.07500	2
0.07867	2
0.08233	2
0.08600	2
0.08967	2
0.09333	2
0.09700	2
0.10067	2
0.10433	2
0.10800	2
0.11167	2
0.11533	2
0.11900	2
0.12267	2
0.12633	2
0.13000	2
0.13367	2
0.13733	2
0.14100	2
0.14467	2
0.14833	2
0.15200	1
0.15567	1
0.15933	1
0.16300	1
0.16667	1
0.17033	1
0.17400	0
0.17767	0
0.18133	0
0.18500	0
0.18867	0
0.19233	0
0.19600	1
0.19967	1
0.20333	1
0.20700	1
0.21067	1
0.21433	1
0.21800	1
0.22167	1
0.22533	1
0.22900	1
0.23267	1
0.23633	1
0.24000	0
0.24367	-0
0.24733	-1
0.25100	-1
0.25467	-1
0.25833	-2
0.26200	-2
0.26567	-3
0.26933	-3
0.27300	-3
0.27667	-3
0.28033	-2
0.28400	-2
0.28767	-2
0.29133	-1
0.29500	-1
0.29867	-1
0.30233	-0
0.30600	-0
0.30967	-0
0.31333	-0
0.31700	-0
0.32067	-0
0.32433	-0
0.32800	-0
0.33167	-0
0.33533	-0
0.33900	-0
0.34267	0
0.34633	0
0.35000	0
0.35367	0
0.35733	0
0.36100	0
0.36467	0
0.36833	0
0.37200	0
0.37567	0
0.37933	1
0.38300	1
0.38667	2
0.39033	2
0.39400	3
0.39767	3
0.40133	4
0.40500	4
0.40867	4
0.41233	4
0.41600	5
0.41967	5
0.42333	5
0.42700	5
0.43067	5
0.43433	6
0.43800	6
0.44167	6
0.44533	6
0.44900	6
0.45267	6
0.45633	6
0.46000	6
0.46367	6
0.46733	6
0.47100	5
0.47467	5
0.47833	5
0.48200	5
0.48567	4
0.48933	4
0.49300	4
0.49667	3
0.50033	3
0.50400	3
0.50767	3
0.51133	3
0.51500	2
0.51867	2
0.52233	2
0.52600	2
0.52967	2
0.53333	3
0.53700	3
0.54067	3
0.54433	3
0.54800	3
0.55167	3
0.55533	3
0.55900	4
0.56267	4
0.56633	4
0.57000	3
0.57367	3
0.57733	3
0.58100	3
0.58467	2
0.58833	2
0.59200	2
0.59567	1
0.59933	1
0.60300	1
0.60667	1
0.61033	1
0.61400	1
0.61767	1
0.62133	1
0.62500	1
0.62867	1
0.63233	1
0.63600	1
0.63967	1
0.64333	1
0.64700	1
0.65067	1
0.65433	1
0.65800	1
0.66167	1
0.66533	1
0.66900	1
0.67267	1
0.67633	1
0.68000	1
0.68367	1
0.68733	0
0.69100	-0
0.69467	-0
0.69833	-0
0.70200	-0
0.70567	-0
0.70933	-0
0.71300	-1
0.71667	-1
0.72033	-1
0.72400	-1
0.72767	-1
0.73133	-1
0.73500	-1
0.73867	-2
0.74233	-2
0.74600	-2
0.74967	-2
0.75333	-2
0.75700	-2
0.76067	-2
0.76433	-2
0.76800	-2
0.77167	-2
0.77533	-2
0.77900	-1
0.78267	-1
0.78633	-1
0.79000	-1
0.79367	-1
0.79733	-1
0.80100	-1
0.80467	-1
0.80833	-1
0.81200	-1
0.81567	-0
0.81933	-0
0.82300	0
0.82667	0
0.83033	1
0.83400	1
0.83767	1
0.84133	1
0.84500	2
0.84867	2
0.85233	2
0.85600	2
0.85967	1
0.86333	1
0.86700	1
0.87067	1
0.87433	1
0.87800	1
0.88167	1
0.88533	1
0.88900	1
0.89267	1
0.89633	1
0.90000	1
0.90367	1
0.90733	1
0.91100	1
0.91467	1
0.91833	1
0.92200	1
0.92567	1
0.92933	1
0.93300	1
0.93667	0
0.94033	0
0.94400	0
0.94767	0
0.95133	0
0.95500	0
0.95867	1
0.96233	1
0.96600	1
0.96967	1
0.97333	1
0.97700	2
0.98067	1
0.98433	1
0.98800	1
0.99167	1
0.99533	1
0.99900	1
1.00267	1
1.00633	0
1.01000	-0
1.01367	-0
1.01733	-1
1.02100	-1
1.02467	-1
1.02833	-1
1.03200	-1
1.03567	-1
1.03933	-1
1.04300	-1
1.04667	-1
1.05033	-2
1.05400	-2
1.05767	-1
1.06133	-1
1.06500	-1
1.06867	-1
1.07233	-1
1.07600	-1
1.07967	-1
1.08333	-1
1.08700	-1
1.09067	-1
1.09433	-1
1.09800	-0
1.10167	-0
1.10533	-0
1.10900	0
1.11267	0
1.11633	0
1.12000	0
1.12367	0
1.12733	1
1.13100	1
1.13467	1
1.13833	1
1.14200	1
1.14567	1
1.14933	1
1.15300	1
1.15667	1
1.16033	1
1.16400	1
1.16767	1
1.17133	1
1.17500	1
1.17867	1
1.18233	1
1.18600	1
1.18967	1
1.19333	1
1.19700	1
1.20067	1
1.20433	0
1.20800	0
1.21167	-0
1.21533	-0
1.21900	-1
1.22267	-1
1.22633	-1
1.23000	-1
1.23367	-1
1.23733	-1
1.24100	-1
1.24467	-1
1.24833	-1
1.25200	-1
1.25567	-1
1.25933	-2
1.26300	-2
1.26667	-2
1.27033	-3
1.27400	-3
1.27767	-3
1.28133	-3
1.28500	-4
1.28867	-4
1.29233	-4
1.29600	-4
1.29967	-4
1.30333	-3
1.30700	-3
1.31067	-3
1.31433	-3
1.31800	-2
1.32167	-2
1.32533	-2
1.32900	-1
1.33267	-1
1.33633	-1
1.34000	-0
1.34367	0
1.34733	0
1.35100	0
1.35467	-0
1.35833	-1
1.36200	-1
1.36567	-1
1.36933	-1
1.37300	-1
1.37667	-1
1.38033	-1
1.38400	-1
1.38767	-1
1.39133	-1
1.39500	-1
1.39867	-0
1.40233	-0
1.40600	0
1.40967	1
1.41333	1
1.41700	1
1.42067	1
1.42433	1
1.42800	1
1.43167	0
1.43533	0
1.43900	-0
1.44267	-1
1.44633	-1
1.45000	-1
1.45367	-1
1.45733	-1
1.46100	-1
1.46467	-2
1.46833	-2
1.47200	-2
1.47567	-2
1.47933	-2
1.48300	-1
1.48667	-1
1.49033	-1
1.49400	-0
1.49767	0
1.50133	1
1.50500	1
1.50867	1
1.51233	2
1.51600	2
1.51967	2
1.52333	2
1.52700	2
1.53067	2
1.53433	1
1.53800	1
1.54167	0
1.54533	0
1.54900	0
1.55267	-0
1.55633	-0
1.56000	-0
1.56367	-0
1.56733	-1
1.57100	-1
1.57467	-1
1.57833	-1
1.58200	-1
1.58567	-1
1.58933	-1
1.59300	-1
1.59667	-1
1.60033	-2
1.60400	-2
1.60767	-4
1.61133	-5
1.61500	-7
1.61867	-9
1.62233	-12
1.62600	-15
1.62967	-18
1.63333	-21
1.63700	-25
1.64067	-28
1.64433	-32
1.64800	-35
1.65167	-39
1.65533	-42
1.65900	-46
1.66267	-50
1.66633	-54
1.67000	-58
1.67367	-63
1.67733	-69
1.68100	-74
1.68467	-79
1.68833	-83
1.69200	-87
1.69567	-91
1.69933	-94
1.70300	-96
1.70667	-99
1.71033	-101
1.71400	-103
1.71767	-105
1.72133	-106
1.72500	-108
1.72867	-109
1.73233	-110
1.73600	-110
1.73967	-111
1.74333	-112
1.74700	-112
1.75067	-113
1.75433	-113
1.75800	-114
1.76167	-114
1.76533	-115
1.76900	-115
1.77267	-115
1.77633	-115
1.78000	-116
1.78367	-117
1.78733	-118
1.79100	-119
1.79467	-120
1.79833	-121
1.80200	-121
1.80567	-122
1.80933	-122
1.81300	-121
1.81667	-121
1.82033	-120
1.82400	-119
1.82767	-118
1.83133	-118
1.83500	-117
1.83867	-117
1.84233	-117
1.84600	-117
1.84967	-117
1.85333	-118
1.85700	-118
1.86067	-118
1.86433	-118
1.86800	-118
1.87167	-118
1.87533	-118
1.87900	-118
1.88267	-118
1.88633	-118
1.89000	-118
1.89367	-119
1.89733	-119
1.90100	-119
1.90467	-119
1.90833	-118
1.91200	-118
1.91567	-117
1.91933	-117
1.92300	-116
1.92667	-115
1.93033	-115
1.93400	-114
1.93767	-114
1.94133	-115
1.94500	-115
1.94867	-115
1.95233	-115
1.95600	-115
1.95967	-115
1.96333	-115
1.96700	-115
1.97067	-115
1.97433	-115
1.97800	-115
1.98167	-114
1.98533	-114
1.98900	-114
1.99267	-114
1.99633	-114
2.00000	-114
2.00367	-114
2.00733	-114
2.01100	-114
2.01467	-113
2.01833	-113
2.02200	-113
2.02567	-112
2.02933	-111
2.03300	-110
2.03667	-110
2.04033	-110
2.04400	-109
2.04767	-109
2.05133	-109
2.05500	-108
2.05867	-108
2.06233	-108
2.06600	-107
2.06967	-107
2.07333	-106
2.07700	-105
2.08067	-105
2.08433	-105
2.08800	-104
2.09167	-104
2.09533	-103
2.09900	-103
2.10267	-103
2.10633	-103
2.11000	-103
2.11367	-102
2.11733	-102
2.12100	-102
2.12467	-103
2.12833	-103
2.13200	-103
2.13567	-103
2.13933	-102
2.14300	-102
2.14667	-101
2.15033	-101
2.15400	-101
2.15767	-100
2.16133	-100
2.16500	-100
2.16867	-99
2.17233	-99
2.17600	-99
2.17967	-99
2.18333	-98
2.18700	-98
2.19067	-97
2.19433	-96
2.19800	-95
2.20167	-94
2.20533	-94
2.20900	-94
2.21267	-93
2.21633	-93
2.22000	-93
2.22367	-94
2.22733	-94
2.23100	-94
2.23467	-94
2.23833	-95
2.24200	-95
2.24567	-94
2.24933	-94
2.25300	-94
2.25667	-93
2.26033	-93
2.26400	-93
2.26767	-92
2.27133	-91
2.27500	-90
2.27867	-89
2.28233	-89
2.28600	-89
2.28967	-88
2.29333	-88
2.29700	-88
2.30067	-87
2.30433	-87
2.30800	-86
2.31167	-86
2.31533	-86
2.31900	-86
2.32267	-86
2.32633	-86
2.33000	-86
2.33367	-86
2.33733	-86
2.34100	-85
2.34467	-84
2.34833	-82
2.35200	-81
2.35567	-80
2.35933	-80
2.36300	-79
2.36667	-79
2.37033	-79
2.37400	-78
2.37767	-77
2.38133	-75
2.38500	-72
2.38867	-69
2.39233	-65
2.39600	-61
2.39967	-57
2.40333	-52
2.40700	-47
2.41067	-43
2.41433	-38
2.41800	-34
2.42167	-30
2.42533	-27
2.42900	-23
2.43267	-20
2.43633	-18
2.44000	-15
2.44367	-13
2.44733	-12
2.45100	-10
2.45467	-8
2.45833	-7
2.46200	-5
2.46567	-4
2.46933	-2
2.47300	-1
2.47667	-0
2.48033	0
2.48400	1
2.48767	2
2.49133	3
2.49500	4
2.49867	5
2.50233	6
2.50600	6
2.50967	7
2.51333	7
2.51700	8
2.52067	8
2.52433	9
2.52800	9
2.53167	9
2.53533	10
2.53900	10
2.54267	10
2.54633	10
2.55000	10
2.55367	11
2.55733	11
2.56100	11
2.56467	11
2.56833	11
2.57200	12
2.57567	12
2.57933	13
2.58300	13
2.58667	14
2.59033	14
2.59400	14
2.59767	15
2.60133	15
2.60500	15
2.60867	15
2.61233	15
2.61600	16
2.61967	17
2.62333	17
2.62700	18
2.63067	19
2.63433	19
2.63800	19
2.64167	19
2.64533	19
2.64900	19
2.65267	19
2.65633	19
2.66000	20
2.66367	20
2.66733	21
2.67100	22
2.67467	22
2.67833	22
2.68200	22
2.68567	22
2.68933	22
2.69300	21
2.69667	21
2.70033	21
2.70400	21
2.70767	22
2.71133	22
2.71500	22
2.71867	22
2.72233	22
2.72600	23
2.72967	23
2.73333	24
2.73700	24
2.74067	24
2.74433	24
2.74800	25
2.75167	25
2.75533	25
2.75900	25
2.76267	25
2.76633	25
2.77000	25
2.77367	25
2.77733	24
2.78100	24
2.78467	24
2.78833	24
2.79200	25
2.79567	25
2.79933	25
2.80300	25
2.80667	25
2.81033	25
2.81400	25
2.81767	24
2.82133	24
2.82500	24
2.82867	24
2.83233	25
2.83600	25
2.83967	25
2.84333	25
2.84700	24
2.85067	22
2.85433	19
2.85800	13
2.86167	5
2.86533	-7
2.86900	-23
2.87267	-42
2.87633	-66
2.88000	-93
2.88367	-125
2.88733	-160
2.89100	-199
2.89467	-241
2.89833	-285
2.90200	-332
2.90567	-380
2.90933	-429
2.91300	-480
2.91667	-530
2.92033	-580
2.92400	-630
2.92767	-679
2.93133	-727
2.93500	-775
2.93867	-824
2.94233	-878
2.94600	-939
2.94967	-1001
2.95333	-1054
2.95700	-1087
2.96067	-1094
2.96433	-1074
2.96800	-1031
2.97167	-971
2.97533	-899
2.97900	-821
2.98267	-740
2.98633	-661
2.99000	-584
2.99367	-513
2.99733	-448
3.00100	-388
3.00467	-335
3.00833	-288
3.01200	-247
3.01567	-210
3.01933	-179
3.02300	-151
3.02667	-128
3.03033	-108
3.03400	-90
3.03767	-75
3.04133	-63
3.04500	-52
3.04867	-43
3.05233	-35
3.05600	-28
3.05967	-22
3.06333	-17
3.06700	-13
3.07067	-9
3.07433	-6
3.07800	-3
3.08167	-1
3.08533	1
3.08900	3
3.09267	5
3.09633	6
3.10000	7
3.10367	8
3.10733	10
3.11100	11
3.11467	12
3.11833	12
3.12200	13
3.12567	14
3.12933	14
3.13300	15
3.13667	15
3.14033	16
3.14400	16
3.14767	16
3.15133	17
3.15500	17
3.15867	18
3.16233	18
3.16600	18
3.16967	18
3.17333	19
3.17700	19
3.18067	19
3.18433	20
3.18800	21
3.19167	21
3.19533	22
3.19900	23
3.20267	23
3.20633	24
3.21000	25
3.21367	25
3.21733	26
3.22100	26
3.22467	26
3.22833	26
3.23200	27
3.23567	27
3.23933	26
3.24300	26
3.24667	26
3.25033	26
3.25400	26
3.25767	26
3.26133	26
3.26500	26
3.26867	26
3.27233	26
3.27600	26
3.27967	26
3.28333	26
3.28700	26
3.29067	26
3.29433	26
3.29800	26
3.30167	26
3.30533	27
3.30900	27
3.31267	27
3.31633	27
3.32000	27
3.32367	27
3.32733	27
3.33100	28
3.33467	28
3.33833	28
3.34200	28
3.34567	28
3.34933	28
3.35300	28
3.35667	27
3.36033	27
3.36400	27
3.36767	27
3.37133	26
3.37500	26
3.37867	26
3.38233	26
3.38600	25
3.38967	25
3.39333	25
3.39700	24
3.40067	24
3.40433	24
3.40800	24
3.41167	24
3.41533	24
3.41900	24
3.42267	24
3.42633	24
3.43000	25
3.43367	25
3.43733	25
3.44100	25
3.44467	25
3.44833	25
3.45200	25
3.45567	25
3.45933	26
3.46300	26
3.46667	26
3.47033	26
3.47400	26
3.47767	26
3.48133	26
3.48500	26
3.48867	26
3.49233	26
3.49600	26
3.49967	26
3.50333	26
3.50700	27
3.51067	27
3.51433	26
3.51800	26
3.52167	26
3.52533	26
3.52900	26
3.53267	26
3.53633	26
3.54000	26
3.54367	25
3.54733	25
3.55100	25
3.55467	25
3.55833	25
3.56200	25
3.56567	25
3.56933	25
3.57300	25
3.57667	25
3.58033	26
3.58400	26
3.58767	26
3.59133	26
3.59500	26
3.59867	26
3.60233	26
3.60600	26
3.60967	26
3.61333	26
3.61700	26
3.62067	26
3.62433	26
3.62800	26
3.63167	27
3.63533	27
3.63900	26
3.64267	26
3.64633	26
3.65000	26
3.65367	26
3.65733	25
3.66100	25
3.66467	25
3.66833	25
3.67200	25
3.67567	25
3.67933	25
3.68300	25
3.68667	25
3.69033	25
3.69400	26
3.69767	26
3.70133	26
3.70500	26
3.70867	26
3.71233	26
3.71600	26
3.71967	26
3.72333	27
3.72700	27
3.73067	27
3.73433	27
3.73800	27
3.74167	27
3.74533	27
3.74900	27
3.75267	27
3.75633	27
3.76000	27
3.76367	27
3.76733	27
3.77100	27
3.77467	27
3.77833	27
3.78200	27
3.78567	26
3.78933	26
3.79300	26
3.79667	26
3.80033	26
3.80400	26
3.80767	26
3.81133	26
3.81500	26
3.81867	26
3.82233	26
3.82600	25
3.82967	25
3.83333	26
3.83700	26
3.84067	26
3.84433	26
3.84800	25
3.85167	25
3.85533	25
3.85900	25
3.86267	25
3.86633	25
3.87000	25
3.87367	25
3.87733	25
3.88100	25
3.88467	25
3.88833	24
3.89200	24
3.89567	24
3.89933	24
3.90300	25
3.90667	25
3.91033	25
3.91400	25
3.91767	25
3.92133	25
3.92500	25
3.92867	25
3.93233	25
3.93600	24
3.93967	24
3.94333	24
3.94700	24
3.95067	24
3.95433	24
3.95800	24
3.96167	24
3.96533	24
3.96900	24
3.97267	24
3.97633	24
3.98000	24
3.98367	24
3.98733	24
3.99100	24
3.99467	24
3.99833	24

[Chromatogram (Ch3)]
Interval(msec)	220
# of Points	1091
Start Time(min)	0.002
End Time(min)	3.998
R.Time (min)	Intensity
0.00167	0
0.00533	-0
0.00900	-0
0.01267	1
0.01633	2
0.02000	2
0.02367	2
0.02733	1
0.03100	0
0.03467	-1
0.03833	-3
0.04200	-2
0.04567	1
0.04933	3
0.05300	5
0.05667	5
0.06033	7
0.06400	7
0.06767	7
0.07133	7
0.07500	7
0.07867	6
0.08233	6
0.08600	7
0.08967	7
0.09333	7
0.09700	7
0.10067	7
0.10433	8
0.10800	10
0.11167	10
0.11533	9
0.11900	8
0.12267	6
0.12633	8
0.13000	10
0.13367	9
0.13733	9
0.14100	9
0.14467	8
0.14833	8
0.15200	8
0.15567	9
0.15933	9
0.16300	12
0.16667	14
0.17033	12
0.17400	10
0.17767	11
0.18133	10
0.18500	10
0.18867	10
0.19233	12
0.19600	13
0.19967	14
0.20333	14
0.20700	13
0.21067	12
0.21433	11
0.21800	11
0.22167	11
0.22533	10
0.22900	11
0.23267	10
0.23633	10
0.24000	11
0.24367	12
0.24733	11
0.25100	10
0.25467	10
0.25833	11
0.26200	11
0.26567	12
0.26933	12
0.27300	12
0.27667	11
0.28033	10
0.28400	12
0.28767	16
0.29133	18
0.29500	19
0.29867	18
0.30233	18
0.30600	18
0.30967	17
0.31333	14
0.31700	13
0.32067	12
0.32433	11
0.32800	11
0.33167	11
0.33533	11
0.33900	12
0.34267	13
0.34633	13
0.35000	12
0.35367	13
0.35733	19
0.36100	23
0.36467	26
0.36833	26
0.37200	23
0.37567	22
0.37933	22
0.38300	22
0.38667	22
0.39033	22
0.39400	21
0.39767	21
0.40133	21
0.40500	21
0.40867	21
0.41233	20
0.41600	18
0.41967	19
0.42333	20
0.42700	23
0.43067	25
0.43433	27
0.43800	27
0.44167	27
0.44533	28
0.44900	28
0.45267	28
0.45633	27
0.46000	25
0.46367	23
0.46733	23
0.47100	23
0.47467	25
0.47833	26
0.48200	25
0.48567	25
0.48933	26
0.49300	28
0.49667	29
0.50033	29
0.50400	29
0.50767	28
0.51133	28
0.51500	30
0.51867	32
0.52233	34
0.52600	34
0.52967	33
0.53333	32
0.53700	31
0.54067	29
0.54433	29
0.54800	29
0.55167	29
0.55533	30
0.55900	31
0.56267	31
0.56633	30
0.57000	29
0.57367	32
0.57733	32
0.58100	32
0.58467	31
0.58833	31
0.59200	30
0.59567	29
0.59933	28
0.60300	27
0.60667	26
0.61033	27
0.61400	27
0.61767	28
0.62133	29
0.62500	27
0.62867	28
0.63233	30
0.63600	30
0.63967	31
0.64333	31
0.64700	32
0.65067	32
0.65433	33
0.65800	33
0.66167	32
0.66533	32
0.66900	31
0.67267	30
0.67633	27
0.68000	25
0.68367	25
0.68733	30
0.69100	33
0.69467	35
0.69833	34
0.70200	35
0.70567	36
0.70933	36
0.71300	37
0.71667	38
0.72033	38
0.72400	38
0.72767	38
0.73133	38
0.73500	40
0.73867	41
0.74233	43
0.74600	44
0.74967	45
0.75333	45
0.75700	44
0.76067	44
0.76433	44
0.76800	44
0.77167	42
0.77533	38
0.77900	37
0.78267	39
0.78633	39
0.79000	39
0.79367	38
0.79733	38
0.80100	40
0.80467	43
0.80833	46
0.81200	47
0.81567	46
0.81933	45
0.82300	45
0.82667	47
0.83033	46
0.83400	46
0.83767	47
0.84133	47
0.84500	45
0.84867	43
0.85233	42
0.85600	40
0.85967	40
0.86333	38
0.86700	39
0.87067	40
0.87433	40
0.87800	39
0.88167	40
0.88533	42
0.88900	43
0.89267	43
0.89633	44
0.90000	43
0.90367	42
0.90733	44
0.91100	45
0.91467	42
0.91833	38
0.92200	35
0.92567	35
0.92933	36
0.93300	37
0.93667	37
0.94033	38
0.94400	37
0.94767	34
0.95133	34
0.95500	36
0.95867	35
0.96233	35
0.96600	35
0.96967	34
0.97333	34
0.97700	36
0.98067	37
0.98433	38
0.98800	38
0.99167	37
0.99533	36
0.99900	36
1.00267	34
1.00633	32
1.01000	32
1.01367	32
1.01733	33
1.02100	35
1.02467	35
1.02833	36
1.03200	37
1.03567	39
1.03933	39
1.04300	37
1.04667	39
1.05033	43
1.05400	47
1.05767	47
1.06133	45
1.06500	46
1.06867	47
1.07233	47
1.07600	47
1.07967	47
1.08333	48
1.08700	48
1.09067	45
1.09433	44
1.09800	43
1.10167	45
1.10533	49
1.10900	50
1.11267	52
1.11633	52
1.12000	51
1.12367	50
1.12733	48
1.13100	46
1.13467	44
1.13833	44
1.14200	43
1.14567	43
1.14933	43
1.15300	43
1.15667	43
1.16033	43
1.16400	43
1.16767	44
1.17133	43
1.17500	42
1.17867	43
1.18233	46
1.18600	47
1.18967	47
1.19333	48
1.19700	47
1.20067	48
1.20433	47
1.20800	46
1.21167	47
1.21533	47
1.21900	49
1.22267	49
1.22633	47
1.23000	45
1.23367	45
1.23733	44
1.24100	43
1.24467	43
1.24833	45
1.25200	46
1.25567	47
1.25933	48
1.26300	49
1.26667	51
1.27033	51
1.27400	51
1.27767	50
1.28133	50
1.28500	49
1.28867	49
1.29233	51
1.29600	52
1.29967	53
1.30333	52
1.30700	50
1.31067	48
1.31433	47
1.31800	45
1.32167	46
1.32533	47
1.32900	47
1.33267	48
1.33633	48
1.34000	48
1.34367	49
1.34733	50
1.35100	49
1.35467	47
1.35833	46
1.36200	47
1.36567	48
1.36933	49
1.37300	49
1.37667	50
1.38033	50
1.38400	50
1.38767	49
1.39133	47
1.39500	45
1.39867	45
1.40233	45
1.40600	44
1.40967	46
1.41333	46
1.41700	47
1.42067	47
1.42433	47
1.42800	46
1.43167	47
1.43533	47
1.43900	47
1.44267	47
1.44633	46
1.45000	45
1.45367	44
1.45733	42
1.46100	43
1.46467	44
1.46833	43
1.47200	41
1.47567	41
1.47933	42
1.48300	43
1.48667	43
1.49033	43
1.49400	41
1.49767	39
1.50133	39
1.50500	38
1.50867	40
1.51233	41
1.51600	43
1.51967	44
1.52333	46
1.52700	48
1.53067	48
1.53433	45
1.53800	43
1.54167	43
1.54533	43
1.54900	45
1.55267	44
1.55633	44
1.56000	43
1.56367	44
1.56733	45
1.57100	46
1.57467	47
1.57833	48
1.58200	48
1.58567	47
1.58933	48
1.59300	48
1.59667	49
1.60033	49
1.60400	49
1.60767	51
1.61133	51
1.61500	50
1.61867	52
1.62233	54
1.62600	55
1.62967	55
1.63333	54
1.63700	54
1.64067	54
1.64433	53
1.64800	54
1.65167	55
1.65533	55
1.65900	52
1.66267	52
1.66633	54
1.67000	57
1.67367	60
1.67733	63
1.68100	64
1.68467	61
1.68833	61
1.69200	61
1.69567	63
1.69933	66
1.70300	64
1.70667	63
1.71033	63
1.71400	64
1.71767	66
1.72133	71
1.72500	74
1.72867	76
1.73233	78
1.73600	79
1.73967	78
1.74333	77
1.74700	75
1.75067	74
1.75433	73
1.75800	72
1.76167	73
1.76533	75
1.76900	76
1.77267	78
1.77633	79
1.78000	79
1.78367	78
1.78733	81
1.79100	82
1.79467	83
1.79833	83
1.80200	83
1.80567	85
1.80933	85
1.81300	85
1.81667	86
1.82033	87
1.82400	89
1.82767	90
1.83133	91
1.83500	92
1.83867	91
1.84233	91
1.84600	92
1.84967	91
1.85333	91
1.85700	91
1.86067	89
1.86433	90
1.86800	91
1.87167	90
1.87533	90
1.87900	89
1.88267	91
1.88633	93
1.89000	95
1.89367	96
1.89733	96
1.90100	96
1.90467	95
1.90833	95
1.91200	96
1.91567	95
1.91933	93
1.92300	92
1.92667	95
1.93033	99
1.93400	102
1.93767	103
1.94133	102
1.94500	101
1.94867	100
1.95233	99
1.95600	100
1.95967	102
1.96333	104
1.96700	105
1.97067	105
1.97433	108
1.97800	111
1.98167	111
1.98533	112
1.98900	115
1.99267	118
1.99633	117
2.00000	118
2.00367	118
2.00733	119
2.01100	118
2.01467	117
2.01833	117
2.02200	118
2.02567	120
2.02933	120
2.03300	121
2.03667	125
2.04033	127
2.04400	129
2.04767	132
2.05133	133
2.05500	134
2.05867	134
2.06233	135
2.06600	133
2.06967	133
2.07333	135
2.07700	138
2.08067	140
2.08433	141
2.08800	141
2.09167	143
2.09533	144
2.09900	147
2.10267	149
2.10633	150
2.11000	153
2.11367	157
2.11733	159
2.12100	160
2.12467	161
2.12833	162
2.13200	164
2.13567	163
2.13933	162
2.14300	164
2.14667	167
2.15033	169
2.15400	172
2.15767	174
2.16133	174
2.16500	175
2.16867	177
2.17233	178
2.17600	177
2.17967	178
2.18333	179
2.18700	179
2.19067	180
2.19433	182
2.19800	183
2.20167	187
2.20533	190
2.20900	192
2.21267	194
2.21633	195
2.22000	196
2.22367	196
2.22733	195
2.23100	194
2.23467	191
2.23833	191
2.24200	195
2.24567	200
2.24933	202
2.25300	202
2.25667	204
2.26033	206
2.26400	208
2.26767	209
2.27133	209
2.27500	207
2.27867	205
2.28233	204
2.28600	208
2.28967	212
2.29333	214
2.29700	214
2.30067	216
2.30433	218
2.30800	218
2.31167	221
2.31533	226
2.31900	229
2.32267	227
2.32633	226
2.33000	225
2.33367	227
2.33733	230
2.34100	233
2.34467	234
2.34833	234
2.35200	235
2.35567	237
2.35933	238
2.36300	240
2.36667	239
2.37033	239
2.37400	240
2.37767	242
2.38133	243
2.38500	242
2.38867	242
2.39233	243
2.39600	245
2.39967	249
2.40333	252
2.40700	252
2.41067	252
2.41433	254
2.41800	254
2.42167	255
2.42533	255
2.42900	258
2.43267	262
2.43633	266
2.44000	268
2.44367	270
2.44733	273
2.45100	272
2.45467	270
2.45833	274
2.46200	287
2.46567	310
2.46933	338
2.47300	369
2.47667	403
2.48033	439
2.48400	476
2.48767	510
2.49133	539
2.49500	565
2.49867	589
2.50233	610
2.50600	632
2.50967	653
2.51333	671
2.51700	687
2.52067	702
2.52433	716
2.52800	729
2.53167	740
2.53533	752
2.53900	763
2.54267	774
2.54633	784
2.55000	792
2.55367	800
2.55733	805
2.56100	812
2.56467	820
2.56833	826
2.57200	827
2.57567	827
2.57933	828
2.58300	831
2.58667	834
2.59033	837
2.59400	838
2.59767	837
2.60133	831
2.60500	821
2.60867	806
2.61233	785
2.61600	757
2.61967	723
2.62333	688
2.62700	657
2.63067	629
2.63433	602
2.63800	577
2.64167	555
2.64533	539
2.64900	529
2.65267	523
2.65633	519
2.66000	517
2.66367	519
2.66733	523
2.67100	527
2.67467	534
2.67833	543
2.68200	551
2.68567	556
2.68933	562
2.69300	567
2.69667	572
2.70033	578
2.70400	586
2.70767	594
2.71133	599
2.71500	603
2.71867	605
2.72233	605
2.72600	606
2.72967	609
2.73333	611
2.73700	613
2.74067	614
2.74433	616
2.74800	616
2.75167	615
2.75533	614
2.75900	615
2.76267	616
2.76633	616
2.77000	615
2.77367	612
2.77733	611
2.78100	611
2.78467	612
2.78833	612
2.79200	611
2.79567	608
2.79933	605
2.80300	602
2.80667	598
2.81033	594
2.81400	592
2.81767	589
2.82133	589
2.82500	590
2.82867	596
2.83233	615
2.83600	662
2.83967	751
2.84333	902
2.84700	1139
2.85067	1474
2.85433	1914
2.85800	2443
2.86167	3029
2.86533	3627
2.86900	4192
2.87267	4678
2.87633	5051
2.88000	5286
2.88367	5376
2.88733	5327
2.89100	5165
2.89467	4915
2.89833	4607
2.90200	4267
2.90567	3913
2.90933	3561
2.91300	3223
2.91667	2907
2.92033	2618
2.92400	2355
2.92767	2121
2.93133	1912
2.93500	1726
2.93867	1563
2.94233	1423
2.94600	1300
2.94967	1193
2.95333	1099
2.95700	1016
2.96067	946
2.96433	885
2.96800	834
2.97167	790
2.97533	749
2.97900	713
2.98267	681
2.98633	654
2.99000	632
2.99367	612
2.99733	594
3.00100	579
3.00467	567
3.00833	556
3.01200	545
3.01567	535
3.01933	528
3.02300	519
3.02667	510
3.03033	505
3.03400	502
3.03767	497
3.04133	493
3.04500	489
3.04867	485
3.05233	481
3.05600	478
3.05967	476
3.06333	473
3.06700	470
3.07067	467
3.07433	465
3.07800	462
3.08167	457
3.08533	454
3.08900	450
3.09267	446
3.09633	444
3.10000	443
3.10367	444
3.10733	442
3.11100	439
3.11467	436
3.11833	432
3.12200	427
3.12567	421
3.12933	417
3.13300	415
3.13667	412
3.14033	410
3.14400	409
3.14767	408
3.15133	407
3.15500	404
3.15867	403
3.16233	402
3.16600	399
3.16967	394
3.17333	390
3.17700	388
3.18067	389
3.18433	391
3.18800	390
3.19167	386
3.19533	383
3.19900	383
3.20267	383
3.20633	380
3.21000	375
3.21367	370
3.21733	369
3.22100	369
3.22467	368
3.22833	367
3.23200	366
3.23567	367
3.23933	365
3.24300	362
3.24667	362
3.25033	361
3.25400	358
3.25767	355
3.26133	351
3.26500	348
3.26867	346
3.27233	344
3.27600	343
3.27967	341
3.28333	337
3.28700	333
3.29067	333
3.29433	333
3.29800	329
3.30167	327
3.30533	325
3.30900	320
3.31267	316
3.31633	314
3.32000	311
3.32367	309
3.32733	306
3.33100	303
3.33467	302
3.33833	300
3.34200	299
3.34567	295
3.34933	289
3.35300	288
3.35667	288
3.36033	286
3.36400	283
3.36767	279
3.37133	276
3.37500	271
3.37867	267
3.38233	267
3.38600	267
3.38967	264
3.39333	259
3.39700	257
3.40067	256
3.40433	254
3.40800	252
3.41167	250
3.41533	249
3.41900	249
3.42267	245
3.42633	241
3.43000	237
3.43367	236
3.43733	236
3.44100	235
3.44467	233
3.44833	232
3.45200	230
3.45567	228
3.45933	226
3.46300	224
3.46667	221
3.47033	219
3.47400	219
3.47767	221
3.48133	219
3.48500	215
3.48867	209
3.49233	204
3.49600	201
3.49967	199
3.50333	198
3.50700	198
3.51067	198
3.51433	196
3.51800	191
3.52167	188
3.52533	188
3.52900	187
3.53267	187
3.53633	184
3.54000	183
3.54367	182
3.54733	179
3.55100	176
3.55467	174
3.55833	174
3.56200	174
3.56567	173
3.56933	171
3.57300	168
3.57667	166
3.58033	165
3.58400	163
3.58767	162
3.59133	162
3.59500	159
3.59867	157
3.60233	156
3.60600	155
3.60967	154
3.61333	154
3.61700	153
3.62067	152
3.62433	152
3.62800	153
3.63167	152
3.63533	152
3.63900	151
3.64267	151
3.64633	150
3.65000	149
3.65367	146
3.65733	145
3.66100	143
3.66467	140
3.66833	137
3.67200	136
3.67567	136
3.67933	138
3.68300	135
3.68667	135
3.69033	135
3.69400	136
3.69767	136
3.70133	137
3.70500	136
3.70867	135
3.71233	133
3.71600	131
3.71967	129
3.72333	127
3.72700	125
3.73067	124
3.73433	122
3.73800	121
3.74167	120
3.74533	119
3.74900	118
3.75267	118
3.75633	118
3.76000	115
3.76367	114
3.76733	114
3.77100	116
3.77467	117
3.77833	116
3.78200	116
3.78567	118
3.78933	118
3.79300	116
3.79667	114
3.80033	113
3.80400	114
3.80767	115
3.81133	115
3.81500	114
3.81867	113
3.82233	111
3.82600	108
3.82967	106
3.83333	105
3.83700	104
3.84067	105
3.84433	107
3.84800	107
3.85167	107
3.85533	106
3.85900	107
3.86267	107
3.86633	107
3.87000	108
3.87367	104
3.87733	102
3.88100	100
3.88467	98
3.88833	98
3.89200	98
3.89567	100
3.89933	102
3.90300	102
3.90667	104
3.91033	106
3.91400	106
3.91767	105
3.92133	103
3.92500	102
3.92867	101
3.93233	100
3.93600	97
3.93967	95
3.94333	93
3.94700	92
3.95067	92
3.95433	93
3.95800	95
3.96167	93
3.96533	93
3.96900	93
3.97267	93
3.97633	95
3.98000	96
3.98367	93
3.98733	91
3.99100	91
3.99467	92
3.99833	91

[Status Trace (Column Oven Temperature)]
Interval(msec)	1000
# of Points	240
Start Time(min)	0.015
End Time(min)	3.998
Intensity Units	
Intensity Multiplier	1
R.Time (min)	Intensity
0.01513	35.01
0.03180	35.01
0.04847	35.00
0.06513	34.99
0.08180	34.99
0.09847	35.00
0.11513	34.99
0.13180	34.99
0.14847	35.00
0.16513	35.01
0.18180	35.02
0.19847	35.01
0.21513	35.01
0.23180	35.01
0.24847	35.03
0.26513	35.04
0.28180	35.03
0.29847	35.04
0.31513	35.04
0.33180	35.04
0.34847	35.04
0.36513	35.04
0.38180	35.03
0.39847	35.01
0.41513	34.99
0.43180	34.99
0.44847	34.97
0.46513	34.97
0.48180	34.95
0.49847	34.95
0.51513	34.95
0.53180	34.95
0.54847	34.94
0.56513	34.94
0.58180	34.95
0.59847	34.96
0.61513	34.96
0.63180	34.96
0.64847	34.96
0.66513	34.96
0.68180	34.96
0.69847	34.98
0.71513	34.99
0.73180	35.00
0.74847	35.01
0.76513	35.00
0.78180	35.00
0.79847	35.00
0.81513	34.99
0.83180	34.98
0.84847	34.99
0.86513	34.99
0.88180	34.99
0.89847	34.98
0.91513	34.98
0.93180	34.98
0.94847	34.98
0.96513	34.98
0.98180	34.97
0.99847	34.97
1.01513	34.98
1.03180	34.98
1.04847	34.99
1.06513	34.99
1.08180	35.00
1.09847	34.99
1.11513	34.98
1.13180	34.97
1.14847	34.97
1.16513	34.98
1.18180	34.97
1.19847	34.97
1.21513	34.97
1.23180	34.98
1.24847	34.98
1.26513	35.01
1.28180	35.02
1.29847	35.02
1.31513	35.01
1.33180	35.01
1.34847	35.01
1.36513	35.01
1.38180	35.01
1.39847	35.01
1.41513	35.00
1.43180	35.01
1.44847	35.02
1.46513	35.02
1.48180	35.02
1.49847	35.01
1.51513	35.00
1.53180	35.00
1.54847	35.00
1.56513	35.01
1.58180	35.01
1.59847	35.03
1.61513	35.11
1.63180	35.26
1.64847	35.47
1.66513	35.75
1.68180	36.11
1.69847	36.46
1.71513	36.81
1.73180	37.15
1.74847	37.48
1.76513	37.81
1.78180	38.15
1.79847	38.50
1.81513	38.81
1.83180	39.13
1.84847	39.44
1.86513	39.78
1.88180	40.11
1.89847	40.45
1.91513	40.77
1.93180	41.11
1.94847	41.44
1.96513	41.77
1.98180	42.09
1.99847	42.43
2.01513	42.76
2.03180	43.07
2.04847	43.41
2.06513	43.72
2.08180	44.04
2.09847	44.37
2.11513	44.69
2.13180	45.03
2.14847	45.34
2.16513	45.68
2.18180	46.02
2.19847	46.33
2.21513	46.64
2.23180	46.97
2.24847	47.32
2.26513	47.64
2.28180	47.96
2.29847	48.28
2.31513	48.63
2.33180	48.96
2.34847	49.24
2.36513	49.52
2.38180	49.66
2.39847	49.70
2.41513	49.69
2.43180	49.69
2.44847	49.69
2.46513	49.71
2.48180	49.72
2.49847	49.73
2.51513	49.75
2.53180	49.78
2.54847	49.79
2.56513	49.81
2.58180	49.80
2.59847	49.81
2.61513	49.82
2.63180	49.83
2.64847	49.84
2.66513	49.84
2.68180	49.85
2.69847	49.86
2.71513	49.86
2.73180	49.85
2.74847	49.85
2.76513	49.86
2.78180	49.87
2.79847	49.87
2.81513	49.88
2.83180	49.90
2.84847	49.90
2.86513	49.92
2.88180	49.93
2.89847	49.94
2.91513	49.96
2.93180	49.98
2.94847	50.00
2.96513	50.01
2.98180	50.02
2.99847	50.03
3.01513	50.04
3.03180	50.06
3.04847	50.07
3.06513	50.09
3.08180	50.09
3.09847	50.09
3.11513	50.10
3.13180	50.11
3.14847	50.11
3.16513	50.11
3.18180	50.10
3.19847	50.08
3.21513	50.05
3.23180	50.03
3.24847	50.02
3.26513	50.02
3.28180	50.00
3.29847	49.99
3.31513	49.98
3.33180	49.98
3.34847	49.97
3.36513	49.97
3.38180	49.98
3.39847	50.01
3.41513	50.02
3.43180	50.02
3.44847	50.02
3.46513	50.02
3.48180	50.01
3.49847	50.02
3.51513	50.01
3.53180	50.02
3.54847	50.03
3.56513	50.03
3.58180	50.03
3.59847	50.03
3.61513	50.04
3.63180	50.04
3.64847	50.05
3.66513	50.06
3.68180	50.06
3.69847	50.06
3.71513	50.06
3.73180	50.05
3.74847	50.04
3.76513	50.03
3.78180	50.03
3.79847	50.03
3.81513	50.04
3.83180	50.04
3.84847	50.04
3.86513	50.05
3.88180	50.06
3.89847	50.06
3.91513	50.06
3.93180	50.07
3.94847	50.08
3.96513	50.09
3.98180	50.11
3.99847	50.11

[Status Trace (Injection Unit Temperature)]
Interval(msec)	1000
# of Points	240
Start Time(min)	0.015
End Time(min)	3.998
Intensity Units	
Intensity Multiplier	1
R.Time (min)	Intensity
0.01513	99.98
0.03180	99.98
0.04847	99.98
0.06513	99.98
0.08180	99.98
0.09847	99.98
0.11513	99.98
0.13180	99.98
0.14847	99.98
0.16513	99.98
0.18180	99.98
0.19847	99.98
0.21513	99.97
0.23180	99.98
0.24847	99.98
0.26513	99.98
0.28180	99.98
0.29847	99.98
0.31513	99.98
0.33180	99.98
0.34847	99.98
0.36513	99.98
0.38180	99.98
0.39847	99.99
0.41513	99.98
0.43180	99.98
0.44847	99.99
0.46513	99.98
0.48180	99.99
0.49847	99.98
0.51513	99.99
0.53180	99.99
0.54847	99.98
0.56513	99.98
0.58180	99.99
0.59847	99.99
0.61513	99.98
0.63180	99.99
0.64847	99.99
0.66513	99.98
0.68180	99.99
0.69847	99.99
0.71513	99.98
0.73180	99.99
0.74847	99.99
0.76513	99.99
0.78180	99.99
0.79847	99.99
0.81513	99.99
0.83180	99.98
0.84847	99.99
0.86513	99.98
0.88180	99.98
0.89847	99.99
0.91513	99.99
0.93180	99.99
0.94847	99.99
0.96513	99.99
0.98180	99.99
0.99847	99.99
1.01513	99.99
1.03180	99.99
1.04847	99.99
1.06513	99.99
1.08180	99.99
1.09847	99.99
1.11513	99.99
1.13180	99.99
1.14847	99.99
1.16513	99.99
1.18180	99.99
1.19847	99.99
1.21513	99.99
1.23180	99.99
1.24847	99.99
1.26513	99.99
1.28180	99.99
1.29847	99.99
1.31513	99.99
1.33180	99.99
1.34847	99.99
1.36513	99.99
1.38180	99.99
1.39847	99.99
1.41513	99.99
1.43180	99.98
1.44847	99.99
1.46513	99.98
1.48180	99.99
1.49847	99.99
1.51513	99.98
1.53180	99.99
1.54847	99.99
1.56513	99.99
1.58180	99.99
1.59847	99.99
1.61513	99.99
1.63180	99.99
1.64847	99.99
1.66513	99.99
1.68180	99.99
1.69847	99.99
1.71513	99.99
1.73180	99.99
1.74847	99.99
1.76513	99.99
1.78180	99.99
1.79847	99.99
1.81513	99.99
1.83180	99.99
1.84847	99.99
1.86513	99.98
1.88180	99.99
1.89847	99.99
1.91513	99.98
1.93180	99.99
1.94847	99.98
1.96513	99.98
1.98180	99.98
1.99847	99.98
2.01513	99.98
2.03180	99.98
2.04847	99.98
2.06513	99.98
2.08180	99.98
2.09847	99.98
2.11513	99.98
2.13180	99.98
2.14847	99.97
2.16513	99.97
2.18180	99.98
2.19847	99.97
2.21513	99.97
2.23180	99.97
2.24847	99.97
2.26513	99.98
2.28180	99.97
2.29847	99.98
2.31513	99.97
2.33180	99.97
2.34847	99.97
2.36513	99.98
2.38180	99.97
2.39847	99.97
2.41513	99.98
2.43180	99.98
2.44847	99.97
2.46513	99.98
2.48180	99.97
2.49847	99.98
2.51513	99.98
2.53180	99.98
2.54847	99.98
2.56513	99.98
2.58180	99.98
2.59847	99.98
2.61513	99.98
2.63180	99.98
2.64847	99.99
2.66513	99.98
2.68180	99.99
2.69847	99.99
2.71513	99.99
2.73180	99.99
2.74847	99.99
2.76513	99.99
2.78180	100.00
2.79847	100.00
2.81513	100.00
2.83180	100.00
2.84847	100.00
2.86513	100.00
2.88180	100.00
2.89847	100.00
2.91513	100.01
2.93180	100.01
2.94847	100.01
2.96513	100.01
2.98180	100.01
2.99847	100.01
3.01513	100.01
3.03180	100.02
3.04847	100.02
3.06513	100.02
3.08180	100.02
3.09847	100.02
3.11513	100.02
3.13180	100.02
3.14847	100.02
3.16513	100.02
3.18180	100.03
3.19847	100.02
3.21513	100.03
3.23180	100.02
3.24847	100.03
3.26513	100.03
3.28180	100.03
3.29847	100.04
3.31513	100.03
3.33180	100.04
3.34847	100.04
3.36513	100.04
3.38180	100.04
3.39847	100.04
3.41513	100.04
3.43180	100.04
3.44847	100.03
3.46513	100.04
3.48180	100.04
3.49847	100.04
3.51513	100.04
3.53180	100.04
3.54847	100.04
3.56513	100.04
3.58180	100.05
3.59847	100.04
3.61513	100.05
3.63180	100.05
3.64847	100.04
3.66513	100.05
3.68180	100.05
3.69847	100.05
3.71513	100.05
3.73180	100.05
3.74847	100.05
3.76513	100.04
3.78180	100.05
3.79847	100.05
3.81513	100.05
3.83180	100.05
3.84847	100.05
3.86513	100.05
3.88180	100.05
3.89847	100.05
3.91513	100.05
3.93180	100.05
3.94847	100.05
3.96513	100.05
3.98180	100.05
3.99847	100.04

[Status Trace (Carrier Gas Pressure)]
Interval(msec)	1000
# of Points	240
Start Time(min)	0.015
End Time(min)	3.998
Intensity Units	
Intensity Multiplier	1
R.Time (min)	Intensity
0.01513	57.13
0.03180	55.55
0.04847	57.99
0.06513	59.87
0.08180	58.73
0.09847	57.98
0.11513	58.00
0.13180	58.01
0.14847	58.01
0.16513	58.00
0.18180	58.00
0.19847	58.00
0.21513	58.00
0.23180	58.00
0.24847	58.00
0.26513	58.00
0.28180	58.00
0.29847	58.00
0.31513	58.00
0.33180	58.00
0.34847	58.00
0.36513	58.00
0.38180	58.00
0.39847	58.00
0.41513	58.00
0.43180	58.00
0.44847	58.00
0.46513	58.00
0.48180	58.00
0.49847	58.00
0.51513	58.00
0.53180	58.00
0.54847	58.00
0.56513	58.00
0.58180	58.00
0.59847	58.00
0.61513	58.00
0.63180	58.00
0.64847	58.00
0.66513	58.00
0.68180	58.00
0.69847	58.00
0.71513	58.00
0.73180	58.00
0.74847	58.00
0.76513	58.00
0.78180	58.00
0.79847	58.00
0.81513	58.00
0.83180	58.00
0.84847	58.00
0.86513	58.00
0.88180	58.00
0.89847	58.00
0.91513	58.00
0.93180	58.00
0.94847	58.00
0.96513	58.00
0.98180	58.00
0.99847	58.00
1.01513	58.00
1.03180	58.00
1.04847	58.00
1.06513	58.00
1.08180	58.00
1.09847	58.00
1.11513	58.00
1.13180	58.00
1.14847	58.00
1.16513	58.00
1.18180	58.00
1.19847	58.00
1.21513	58.00
1.23180	58.00
1.24847	58.00
1.26513	58.00
1.28180	58.00
1.29847	58.00
1.31513	58.00
1.33180	58.00
1.34847	58.00
1.36513	58.00
1.38180	58.00
1.39847	58.00
1.41513	58.00
1.43180	58.00
1.44847	58.00
1.46513	58.00
1.48180	58.00
1.49847	58.00
1.51513	58.00
1.53180	58.00
1.54847	58.00
1.56513	58.00
1.58180	58.00
1.59847	58.00
1.61513	58.00
1.63180	58.00
1.64847	58.00
1.66513	58.01
1.68180	58.01
1.69847	58.00
1.71513	58.00
1.73180	58.00
1.74847	58.00
1.76513	58.00
1.78180	58.00
1.79847	58.00
1.81513	58.00
1.83180	58.00
1.84847	58.00
1.86513	58.00
1.88180	58.00
1.89847	58.00
1.91513	58.00
1.93180	58.00
1.94847	58.00
1.96513	58.00
1.98180	58.00
1.99847	58.00
2.01513	58.00
2.03180	58.00
2.04847	58.00
2.06513	58.00
2.08180	58.00
2.09847	58.00
2.11513	58.00
2.13180	58.00
2.14847	58.00
2.16513	58.00
2.18180	58.00
2.19847	58.00
2.21513	58.00
2.23180	58.00
2.24847	58.00
2.26513	58.00
2.28180	58.00
2.29847	58.00
2.31513	58.00
2.33180	58.00
2.34847	58.00
2.36513	58.00
2.38180	58.00
2.39847	57.99
2.41513	58.00
2.43180	58.00
2.44847	58.00
2.46513	58.00
2.48180	58.00
2.49847	58.00
2.51513	57.99
2.53180	57.99
2.54847	58.00
2.56513	58.00
2.58180	58.00
2.59847	58.00
2.61513	58.00
2.63180	58.00
2.64847	58.00
2.66513	58.00
2.68180	58.00
2.69847	58.00
2.71513	58.00
2.73180	58.00
2.74847	58.00
2.76513	58.00
2.78180	58.00
2.79847	58.00
2.81513	58.00
2.83180	58.00
2.84847	58.00
2.86513	58.00
2.88180	58.00
2.89847	58.00
2.91513	58.00
2.93180	58.00
2.94847	58.00
2.96513	58.00
2.98180	58.00
2.99847	58.00
3.01513	58.00
3.03180	58.00
3.04847	58.00
3.06513	58.00
3.08180	58.00
3.09847	58.00
3.11513	58.00
3.13180	58.00
3.14847	58.00
3.16513	58.00
3.18180	58.00
3.19847	58.00
3.21513	58.00
3.23180	58.00
3.24847	58.00
3.26513	58.00
3.28180	58.00
3.29847	58.00
3.31513	58.00
3.33180	58.00
3.34847	58.00
3.36513	58.00
3.38180	58.00
3.39847	58.00
3.41513	58.00
3.43180	58.00
3.44847	58.00
3.46513	58.00
3.48180	58.00
3.49847	58.00
3.51513	58.00
3.53180	58.00
3.54847	58.00
3.56513	58.00
3.58180	58.00
3.59847	58.00
3.61513	58.00
3.63180	58.00
3.64847	58.00
3.66513	58.00
3.68180	58.00
3.69847	58.00
3.71513	58.00
3.73180	58.00
3.74847	58.00
3.76513	58.00
3.78180	58.00
3.79847	58.00
3.81513	58.00
3.83180	58.00
3.84847	58.00
3.86513	58.00
3.88180	58.00
3.89847	58.00
3.91513	58.00
3.93180	58.00
3.94847	58.00
3.96513	58.00
3.98180	58.00
3.99847	58.00

[Status Trace (Carrier Gas Flow)]
Interval(msec)	1000
# of Points	240
Start Time(min)	0.015
End Time(min)	3.998
Intensity Units	
Intensity Multiplier	1
R.Time (min)	Intensity
0.01513	33.90
0.03180	34.53
0.04847	34.55
0.06513	34.53
0.08180	34.50
0.09847	34.52
0.11513	34.52
0.13180	34.52
0.14847	34.52
0.16513	34.52
0.18180	34.52
0.19847	34.52
0.21513	34.52
0.23180	34.52
0.24847	34.52
0.26513	34.52
0.28180	34.52
0.29847	34.52
0.31513	34.52
0.33180	34.52
0.34847	34.52
0.36513	34.52
0.38180	34.52
0.39847	34.52
0.41513	34.52
0.43180	34.52
0.44847	34.52
0.46513	34.52
0.48180	34.52
0.49847	34.52
0.51513	34.52
0.53180	34.52
0.54847	34.52
0.56513	34.52
0.58180	34.52
0.59847	34.52
0.61513	34.52
0.63180	34.52
0.64847	34.52
0.66513	34.52
0.68180	34.52
0.69847	34.52
0.71513	34.52
0.73180	34.52
0.74847	34.52
0.76513	34.52
0.78180	34.52
0.79847	34.52
0.81513	34.52
0.83180	34.52
0.84847	34.52
0.86513	34.52
0.88180	34.52
0.89847	34.52
0.91513	34.52
0.93180	34.52
0.94847	34.52
0.96513	34.52
0.98180	34.52
0.99847	34.52
1.01513	34.52
1.03180	34.52
1.04847	34.52
1.06513	34.52
1.08180	34.52
1.09847	34.52
1.11513	34.52
1.13180	34.52
1.14847	34.52
1.16513	34.52
1.18180	34.52
1.19847	34.52
1.21513	34.52
1.23180	34.52
1.24847	34.52
1.26513	34.52
1.28180	34.52
1.29847	34.52
1.31513	34.52
1.33180	34.52
1.34847	34.52
1.36513	34.52
1.38180	34.52
1.39847	34.52
1.41513	34.52
1.43180	34.52
1.44847	34.52
1.46513	34.52
1.48180	34.52
1.49847	34.52
1.51513	34.52
1.53180	34.52
1.54847	34.52
1.56513	34.52
1.58180	34.52
1.59847	34.52
1.61513	34.52
1.63180	34.52
1.64847	34.52
1.66513	34.52
1.68180	34.52
1.69847	34.52
1.71513	34.52
1.73180	34.52
1.74847	34.52
1.76513	34.52
1.78180	34.52
1.79847	34.52
1.81513	34.52
1.83180	34.52
1.84847	34.52
1.86513	34.52
1.88180	34.52
1.89847	34.52
1.91513	34.52
1.93180	34.52
1.94847	34.52
1.96513	34.52
1.98180	34.52
1.99847	34.52
2.01513	34.52
2.03180	34.52
2.04847	34.52
2.06513	34.52
2.08180	34.52
2.09847	34.52
2.11513	34.52
2.13180	34.52
2.14847	34.52
2.16513	34.52
2.18180	34.52
2.19847	34.52
2.21513	34.52
2.23180	34.52
2.24847	34.52
2.26513	34.52
2.28180	34.52
2.29847	34.52
2.31513	34.52
2.33180	34.52
2.34847	34.52
2.36513	34.52
2.38180	34.52
2.39847	34.52
2.41513	34.52
2.43180	34.52
2.44847	34.52
2.46513	34.52
2.48180	34.52
2.49847	34.52
2.51513	34.52
2.53180	34.52
2.54847	34.52
2.56513	34.52
2.58180	34.52
2.59847	34.52
2.61513	34.52
2.63180	34.52
2.64847	34.52
2.66513	34.52
2.68180	34.52
2.69847	34.52
2.71513	34.52
2.73180	34.52
2.74847	34.52
2.76513	34.52
2.78180	34.52
2.79847	34.52
2.81513	34.52
2.83180	34.52
2.84847	34.52
2.86513	34.52
2.88180	34.52
2.89847	34.52
2.91513	34.52
2.93180	34.52
2.94847	34.52
2.96513	34.52
2.98180	34.52
2.99847	34.52
3.01513	34.52
3.03180	34.52
3.04847	34.52
3.06513	34.52
3.08180	34.52
3.09847	34.52
3.11513	34.52
3.13180	34.52
3.14847	34.52
3.16513	34.52
3.18180	34.52
3.19847	34.52
3.21513	34.52
3.23180	34.52
3.24847	34.52
3.26513	34.52
3.28180	34.52
3.29847	34.52
3.31513	34.52
3.33180	34.52
3.34847	34.52
3.36513	34.52
3.38180	34.52
3.39847	34.52
3.41513	34.52
3.43180	34.52
3.44847	34.52
3.46513	34.52
3.48180	34.52
3.49847	34.52
3.51513	34.52
3.53180	34.52
3.54847	34.52
3.56513	34.52
3.58180	34.52
3.59847	34.52
3.61513	34.52
3.63180	34.52
3.64847	34.52
3.66513	34.52
3.68180	34.52
3.69847	34.52
3.71513	34.52
3.73180	34.52
3.74847	34.52
3.76513	34.52
3.78180	34.52
3.79847	34.52
3.81513	34.52
3.83180	34.52
3.84847	34.52
3.86513	34.52
3.88180	34.52
3.89847	34.52
3.91513	34.52
3.93180	34.52
3.94847	34.52
3.96513	34.52
3.98180	34.52
3.99847	34.52

[Status Trace (Column Flow)]
Interval(msec)	1000
# of Points	240
Start Time(min)	0.015
End Time(min)	3.998
Intensity Units	
Intensity Multiplier	1
R.Time (min)	Intensity
0.01513	5.40
0.03180	5.22
0.04847	5.50
0.06513	5.72
0.08180	5.58
0.09847	5.50
0.11513	5.50
0.13180	5.50
0.14847	5.50
0.16513	5.50
0.18180	5.50
0.19847	5.50
0.21513	5.50
0.23180	5.50
0.24847	5.50
0.26513	5.50
0.28180	5.50
0.29847	5.50
0.31513	5.50
0.33180	5.50
0.34847	5.50
0.36513	5.50
0.38180	5.50
0.39847	5.50
0.41513	5.50
0.43180	5.50
0.44847	5.50
0.46513	5.50
0.48180	5.50
0.49847	5.50
0.51513	5.50
0.53180	5.50
0.54847	5.50
0.56513	5.50
0.58180	5.50
0.59847	5.50
0.61513	5.50
0.63180	5.50
0.64847	5.50
0.66513	5.50
0.68180	5.50
0.69847	5.50
0.71513	5.50
0.73180	5.50
0.74847	5.50
0.76513	5.50
0.78180	5.50
0.79847	5.50
0.81513	5.50
0.83180	5.50
0.84847	5.50
0.86513	5.50
0.88180	5.50
0.89847	5.50
0.91513	5.50
0.93180	5.50
0.94847	5.50
0.96513	5.50
0.98180	5.50
0.99847	5.50
1.01513	5.50
1.03180	5.50
1.04847	5.50
1.06513	5.50
1.08180	5.50
1.09847	5.50
1.11513	5.50
1.13180	5.50
1.14847	5.50
1.16513	5.50
1.18180	5.50
1.19847	5.50
1.21513	5.50
1.23180	5.50
1.24847	5.50
1.26513	5.50
1.28180	5.50
1.29847	5.50
1.31513	5.50
1.33180	5.50
1.34847	5.50
1.36513	5.50
1.38180	5.50
1.39847	5.50
1.41513	5.50
1.43180	5.50
1.44847	5.50
1.46513	5.50
1.48180	5.50
1.49847	5.50
1.51513	5.50
1.53180	5.50
1.54847	5.50
1.56513	5.50
1.58180	5.50
1.59847	5.50
1.61513	5.50
1.63180	5.49
1.64847	5.49
1.66513	5.48
1.68180	5.47
1.69847	5.45
1.71513	5.44
1.73180	5.43
1.74847	5.42
1.76513	5.41
1.78180	5.40
1.79847	5.39
1.81513	5.38
1.83180	5.37
1.84847	5.36
1.86513	5.35
1.88180	5.34
1.89847	5.33
1.91513	5.32
1.93180	5.31
1.94847	5.30
1.96513	5.29
1.98180	5.28
1.99847	5.27
2.01513	5.26
2.03180	5.25
2.04847	5.24
2.06513	5.24
2.08180	5.23
2.09847	5.22
2.11513	5.21
2.13180	5.20
2.14847	5.19
2.16513	5.18
2.18180	5.17
2.19847	5.16
2.21513	5.15
2.23180	5.14
2.24847	5.13
2.26513	5.12
2.28180	5.11
2.29847	5.11
2.31513	5.10
2.33180	5.09
2.34847	5.08
2.36513	5.07
2.38180	5.07
2.39847	5.07
2.41513	5.07
2.43180	5.07
2.44847	5.07
2.46513	5.07
2.48180	5.07
2.49847	5.07
2.51513	5.06
2.53180	5.06
2.54847	5.06
2.56513	5.06
2.58180	5.06
2.59847	5.06
2.61513	5.06
2.63180	5.06
2.64847	5.06
2.66513	5.06
2.68180	5.06
2.69847	5.06
2.71513	5.06
2.73180	5.06
2.74847	5.06
2.76513	5.06
2.78180	5.06
2.79847	5.06
2.81513	5.06
2.83180	5.06
2.84847	5.06
2.86513	5.06
2.88180	5.06
2.89847	5.06
2.91513	5.06
2.93180	5.06
2.94847	5.06
2.96513	5.06
2.98180	5.06
2.99847	5.06
3.01513	5.06
3.03180	5.06
3.04847	5.06
3.06513	5.06
3.08180	5.06
3.09847	5.06
3.11513	5.06
3.13180	5.06
3.14847	5.06
3.16513	5.05
3.18180	5.06
3.19847	5.06
3.21513	5.06
3.23180	5.06
3.24847	5.06
3.26513	5.06
3.28180	5.06
3.29847	5.06
3.31513	5.06
3.33180	5.06
3.34847	5.06
3.36513	5.06
3.38180	5.06
3.39847	5.06
3.41513	5.06
3.43180	5.06
3.44847	5.06
3.46513	5.06
3.48180	5.06
3.49847	5.06
3.51513	5.06
3.53180	5.06
3.54847	5.06
3.56513	5.06
3.58180	5.06
3.59847	5.06
3.61513	5.06
3.63180	5.06
3.64847	5.06
3.66513	5.06
3.68180	5.06
3.69847	5.06
3.71513	5.06
3.73180	5.06
3.74847	5.06
3.76513	5.06
3.78180	5.06
3.79847	5.06
3.81513	5.06
3.83180	5.06
3.84847	5.06
3.86513	5.06
3.88180	5.06
3.89847	5.06
3.91513	5.06
3.93180	5.06
3.94847	5.06
3.96513	5.06
3.98180	5.06
3.99847	5.05

[Status Trace (Linear Velocity)]
Interval(msec)	1000
# of Points	240
Start Time(min)	0.015
End Time(min)	3.998
Intensity Units	
Intensity Multiplier	1
R.Time (min)	Intensity
0.01513	38.44
0.03180	37.40
0.04847	39.01
0.06513	40.23
0.08180	39.49
0.09847	39.00
0.11513	39.01
0.13180	39.02
0.14847	39.02
0.16513	39.01
0.18180	39.01
0.19847	39.01
0.21513	39.01
0.23180	39.01
0.24847	39.01
0.26513	39.01
0.28180	39.01
0.29847	39.01
0.31513	39.01
0.33180	39.01
0.34847	39.01
0.36513	39.01
0.38180	39.01
0.39847	39.01
0.41513	39.01
0.43180	39.01
0.44847	39.01
0.46513	39.01
0.48180	39.02
0.49847	39.02
0.51513	39.02
0.53180	39.02
0.54847	39.02
0.56513	39.02
0.58180	39.02
0.59847	39.02
0.61513	39.02
0.63180	39.02
0.64847	39.02
0.66513	39.02
0.68180	39.01
0.69847	39.01
0.71513	39.01
0.73180	39.01
0.74847	39.01
0.76513	39.01
0.78180	39.01
0.79847	39.01
0.81513	39.01
0.83180	39.01
0.84847	39.01
0.86513	39.01
0.88180	39.01
0.89847	39.01
0.91513	39.01
0.93180	39.01
0.94847	39.01
0.96513	39.01
0.98180	39.01
0.99847	39.01
1.01513	39.01
1.03180	39.01
1.04847	39.01
1.06513	39.01
1.08180	39.01
1.09847	39.01
1.11513	39.01
1.13180	39.01
1.14847	39.02
1.16513	39.01
1.18180	39.01
1.19847	39.01
1.21513	39.01
1.23180	39.01
1.24847	39.01
1.26513	39.01
1.28180	39.01
1.29847	39.01
1.31513	39.01
1.33180	39.01
1.34847	39.01
1.36513	39.01
1.38180	39.01
1.39847	39.01
1.41513	39.01
1.43180	39.01
1.44847	39.01
1.46513	39.01
1.48180	39.01
1.49847	39.01
1.51513	39.01
1.53180	39.01
1.54847	39.01
1.56513	39.01
1.58180	39.01
1.59847	39.01
1.61513	39.00
1.63180	38.99
1.64847	38.97
1.66513	38.94
1.68180	38.91
1.69847	38.87
1.71513	38.84
1.73180	38.81
1.74847	38.77
1.76513	38.74
1.78180	38.71
1.79847	38.68
1.81513	38.65
1.83180	38.62
1.84847	38.59
1.86513	38.56
1.88180	38.53
1.89847	38.49
1.91513	38.47
1.93180	38.43
1.94847	38.40
1.96513	38.37
1.98180	38.34
1.99847	38.31
2.01513	38.28
2.03180	38.25
2.04847	38.22
2.06513	38.19
2.08180	38.16
2.09847	38.13
2.11513	38.10
2.13180	38.07
2.14847	38.04
2.16513	38.01
2.18180	37.98
2.19847	37.95
2.21513	37.93
2.23180	37.90
2.24847	37.87
2.26513	37.84
2.28180	37.81
2.29847	37.78
2.31513	37.75
2.33180	37.72
2.34847	37.69
2.36513	37.67
2.38180	37.65
2.39847	37.65
2.41513	37.65
2.43180	37.65
2.44847	37.65
2.46513	37.65
2.48180	37.65
2.49847	37.65
2.51513	37.64
2.53180	37.64
2.54847	37.65
2.56513	37.64
2.58180	37.64
2.59847	37.64
2.61513	37.64
2.63180	37.64
2.64847	37.64
2.66513	37.64
2.68180	37.64
2.69847	37.64
2.71513	37.64
2.73180	37.64
2.74847	37.64
2.76513	37.64
2.78180	37.64
2.79847	37.64
2.81513	37.64
2.83180	37.64
2.84847	37.64
2.86513	37.63
2.88180	37.63
2.89847	37.63
2.91513	37.63
2.93180	37.63
2.94847	37.63
2.96513	37.63
2.98180	37.63
2.99847	37.62
3.01513	37.62
3.03180	37.62
3.04847	37.62
3.06513	37.62
3.08180	37.62
3.09847	37.62
3.11513	37.62
3.13180	37.62
3.14847	37.62
3.16513	37.62
3.18180	37.62
3.19847	37.62
3.21513	37.62
3.23180	37.63
3.24847	37.63
3.26513	37.63
3.28180	37.63
3.29847	37.63
3.31513	37.63
3.33180	37.63
3.34847	37.63
3.36513	37.63
3.38180	37.63
3.39847	37.63
3.41513	37.63
3.43180	37.63
3.44847	37.63
3.46513	37.63
3.48180	37.63
3.49847	37.63
3.51513	37.63
3.53180	37.63
3.54847	37.62
3.56513	37.63
3.58180	37.62
3.59847	37.62
3.61513	37.62
3.63180	37.62
3.64847	37.62
3.66513	37.62
3.68180	37.62
3.69847	37.62
3.71513	37.62
3.73180	37.62
3.74847	37.62
3.76513	37.62
3.78180	37.63
3.79847	37.63
3.81513	37.62
3.83180	37.62
3.84847	37.62
3.86513	37.62
3.88180	37.62
3.89847	37.62
3.91513	37.62
3.93180	37.62
3.94847	37.62
3.96513	37.62
3.98180	37.62
3.99847	37.62

