[Header]
Application Name	LabSolutions
Version	5.110
Data File Name	C:\Users\User\Desktop\GC Analyses\Jack\UIC Prairie Sampling\7.9.22\220909_096.gcd
Output Date	9/28/2022
Output Time	11:29:55 AM

[File Information]
Type	Data File
Generated	9/20/2022 12:06:42 PM
Generated by	System Administrator
Modified	9/20/2022 12:11:26 PM
Modified by	System Administrator

[Sample Information]
Operator Name	System Administrator
Acquired	9/20/2022 12:07:25 PM
Sample Type	1:Standard
Level	1
Sample Name	220909_Run
Sample ID	220909_Run
ISTD Amount1	1
ISTD Amount2	1
ISTD Amount3	1
ISTD Amount4	1
ISTD Amount5	1
ISTD Amount6	1
ISTD Amount7	1
ISTD Amount8	1
ISTD Amount9	1
ISTD Amount10	1
ISTD Amount11	1
ISTD Amount12	1
ISTD Amount13	1
ISTD Amount14	1
ISTD Amount15	1
ISTD Amount16	1
ISTD Amount17	1
ISTD Amount18	1
ISTD Amount19	1
ISTD Amount20	1
ISTD Amount21	1
ISTD Amount22	1
ISTD Amount23	1
ISTD Amount24	1
ISTD Amount25	1
ISTD Amount26	1
ISTD Amount27	1
ISTD Amount28	1
ISTD Amount29	1
ISTD Amount30	1
ISTD Amount31	1
ISTD Amount32	1
Sample Amount	1
Dilution Factor	1
Vial#	1
Injection Volume	1
Injection Count	1
Bar Code	

[Original Files]
Data File	C:\Users\User\Desktop\GC Analyses\Jack\220909\220909_096.gcd
Method File	C:\LabSolutions\Data\GHG_4min_2022\ghg3_togas_w_acet_4 min_new_int.gcm
Batch File	
Report Format File	c:\LabSolutions\System\DEFAULT.lsr

[File Description]


[Configuration]
Instrument Name	C0B7VH3-Instrument1
Instrument #	1
Line #	1
# of Detectors	3
Detector ID	DET#1	DET#2	DET#3
Detector Name	FID	PTCD	ECD
# of Channels	1	1	1

[Peak Table(Ch1)]
# of Peaks	3
Peak#	R.Time	I.Time	F.Time	Area	Height	A/H	Conc.	Mark	ID#	Name	k'	Plate #	Plate Ht.	Tailing	Resolution	Sep.Factor	Area Ratio	Height Ratio	Conc. %	Norm Conc.
1	1.476	1.421	1.538	19259	8728	2.207	100.000	   	1	CO	0.000	8627	17.387	1.268	0.000	0.000	0	0	16.667	16.667
2	1.571	1.538	1.626	5328	2719	1.960	100.000	 V 	2	CH4	0.065	11211	13.380	1.200	1.551	0.000	0	0	16.667	16.667
3	2.000	1.952	2.271	1259732	619946	2.032	400.000	   	3	CO2	0.355	17670	8.489	1.220	7.178	5.500	0	0	66.667	66.667

[Peak Table(Ch2)]
# of Peaks	0

[Peak Table(Ch3)]
# of Peaks	2
Peak#	R.Time	I.Time	F.Time	Area	Height	A/H	Conc.	Mark	ID#	Name	k'	Plate #	Plate Ht.	Tailing	Resolution	Sep.Factor	Area Ratio	Height Ratio	Conc. %	Norm Conc.
1	2.594	1.846	2.656	5901	267	22.104	0.000	   			0.000	374	400.750	0.542	0.000	0.000	0	0	0.000	0.000
2	2.884	2.656	3.258	23815	5734	4.153	1.000	 V 	1	N2O	0.112	12885	11.642	1.543	0.908	0.000	0	0	100.000	100.000

[Compound Results(Ch1)]
# of IDs	6
ID#	Name	R.Time	Area	Height	Conc.	Curve	3rd	2nd	1st	Constant	Area Ratio	Height Ratio	Conc. %	Norm Conc.
1	CO	1.476	19259	8728	100.000	Linear	0.000000e+00	0.000000e+00	1.925942e+002	0.000000e+00	0	0	16.667	16.667
2	CH4	1.571	5328	2719	100.000	Linear	0.000000e+00	0.000000e+00	5.328367e+001	0.000000e+00	0	0	16.667	16.667
3	CO2	2.000	1259732	619946	400.000	Linear	0.000000e+00	0.000000e+00	3.149329e+003	0.000000e+00	0	0	66.667	66.667
4	Ethylene	0.000	0	0	0.000	Linear	0.000000e+00	0.000000e+00	0.000000e+00	0.000000e+00	0	0	0.000	0.000
5	Acetylene	0.000	0	0	0.000	Linear	0.000000e+00	0.000000e+00	0.000000e+00	0.000000e+00	0	0	0.000	0.000
6	Ethane	0.000	0	0	0.000	Linear	0.000000e+00	0.000000e+00	0.000000e+00	0.000000e+00	0	0	0.000	0.000

[Compound Results(Ch2)]
# of IDs	5
ID#	Name	R.Time	Area	Height	Conc.	Curve	3rd	2nd	1st	Constant	Area Ratio	Height Ratio	Conc. %	Norm Conc.
1	Hydrogen	0.000	0	0	0.000	Linear	0.000000e+00	0.000000e+00	0.000000e+00	0.000000e+00	0	0	0.000	0.000
2	Oxygen	0.000	0	0	0.000	Linear	0.000000e+00	0.000000e+00	0.000000e+00	0.000000e+00	0	0	0.000	0.000
3	Nitrogen	0.000	0	0	0.000	Linear	0.000000e+00	0.000000e+00	0.000000e+00	0.000000e+00	0	0	0.000	0.000
4	Methane	0.000	0	0	0.000	Linear	0.000000e+00	0.000000e+00	0.000000e+00	0.000000e+00	0	0	0.000	0.000
5	Carbon Monoxide	0.000	0	0	0.000	Linear	0.000000e+00	0.000000e+00	0.000000e+00	0.000000e+00	0	0	0.000	0.000

[Compound Results(Ch3)]
# of IDs	2
ID#	Name	R.Time	Area	Height	Conc.	Curve	3rd	2nd	1st	Constant	Area Ratio	Height Ratio	Conc. %	Norm Conc.
1	N2O	2.884	23815	5734	1.000	Linear	0.000000e+00	0.000000e+00	2.381508e+004	0.000000e+00	0	0	100.000	100.000
2	SF6	0.000	0	0	0.000	Linear	0.000000e+00	0.000000e+00	0.000000e+00	0.000000e+00	0	0	0.000	0.000

[Group Results(Ch1)]
# of Groups	0

[Group Results(Ch2)]
# of Groups	0

[Group Results(Ch3)]
# of Groups	0

[Chromatogram (Ch1)]
Interval(msec)	220
# of Points	1091
Start Time(min)	0.002
End Time(min)	3.998
R.Time (min)	Intensity
0.00167	10
0.00533	9
0.00900	9
0.01267	12
0.01633	17
0.02000	22
0.02367	28
0.02733	35
0.03100	40
0.03467	36
0.03833	29
0.04200	20
0.04567	12
0.04933	5
0.05300	-1
0.05667	-0
0.06033	4
0.06400	10
0.06767	16
0.07133	24
0.07500	29
0.07867	33
0.08233	33
0.08600	31
0.08967	24
0.09333	17
0.09700	13
0.10067	11
0.10433	10
0.10800	12
0.11167	11
0.11533	7
0.11900	4
0.12267	4
0.12633	7
0.13000	7
0.13367	7
0.13733	7
0.14100	9
0.14467	9
0.14833	12
0.15200	18
0.15567	18
0.15933	17
0.16300	16
0.16667	15
0.17033	14
0.17400	16
0.17767	19
0.18133	18
0.18500	15
0.18867	11
0.19233	7
0.19600	4
0.19967	3
0.20333	3
0.20700	5
0.21067	8
0.21433	8
0.21800	3
0.22167	0
0.22533	-3
0.22900	-7
0.23267	-8
0.23633	-8
0.24000	-7
0.24367	-4
0.24733	-1
0.25100	-3
0.25467	-7
0.25833	-10
0.26200	-12
0.26567	-13
0.26933	-13
0.27300	-8
0.27667	-1
0.28033	1
0.28400	-3
0.28767	-7
0.29133	-12
0.29500	-14
0.29867	-10
0.30233	-4
0.30600	-0
0.30967	-0
0.31333	-5
0.31700	-11
0.32067	-14
0.32433	-15
0.32800	-18
0.33167	-20
0.33533	-20
0.33900	-18
0.34267	-13
0.34633	-5
0.35000	3
0.35367	7
0.35733	5
0.36100	2
0.36467	-3
0.36833	-8
0.37200	-11
0.37567	-11
0.37933	-8
0.38300	-3
0.38667	2
0.39033	6
0.39400	8
0.39767	5
0.40133	-2
0.40500	-10
0.40867	-18
0.41233	-22
0.41600	-25
0.41967	-30
0.42333	-32
0.42700	-28
0.43067	-20
0.43433	-13
0.43800	-10
0.44167	-10
0.44533	-12
0.44900	-17
0.45267	-23
0.45633	-27
0.46000	-31
0.46367	-31
0.46733	-30
0.47100	-27
0.47467	-24
0.47833	-21
0.48200	-18
0.48567	-15
0.48933	-15
0.49300	-15
0.49667	-13
0.50033	-9
0.50400	-7
0.50767	-5
0.51133	-4
0.51500	-3
0.51867	-3
0.52233	-5
0.52600	-10
0.52967	-19
0.53333	-29
0.53700	-32
0.54067	-30
0.54433	-28
0.54800	-29
0.55167	-30
0.55533	-7
0.55900	33
0.56267	53
0.56633	52
0.57000	37
0.57367	19
0.57733	2
0.58100	-12
0.58467	-19
0.58833	-20
0.59200	-17
0.59567	-12
0.59933	-7
0.60300	-3
0.60667	-2
0.61033	-2
0.61400	-4
0.61767	-9
0.62133	-16
0.62500	-24
0.62867	-29
0.63233	-30
0.63600	-31
0.63967	-34
0.64333	-33
0.64700	-33
0.65067	-35
0.65433	-35
0.65800	-35
0.66167	-33
0.66533	-28
0.66900	-27
0.67267	-33
0.67633	-42
0.68000	-52
0.68367	-59
0.68733	-63
0.69100	-63
0.69467	-61
0.69833	-55
0.70200	-48
0.70567	-42
0.70933	-36
0.71300	-30
0.71667	-25
0.72033	-21
0.72400	-21
0.72767	-24
0.73133	-30
0.73500	-35
0.73867	-39
0.74233	-42
0.74600	-45
0.74967	-47
0.75333	-45
0.75700	-42
0.76067	-37
0.76433	-29
0.76800	-25
0.77167	-28
0.77533	-34
0.77900	-39
0.78267	-40
0.78633	-39
0.79000	-38
0.79367	-40
0.79733	-43
0.80100	-47
0.80467	-46
0.80833	-43
0.81200	-42
0.81567	-44
0.81933	-49
0.82300	-44
0.82667	-37
0.83033	-36
0.83400	-38
0.83767	-41
0.84133	-46
0.84500	-50
0.84867	-49
0.85233	-47
0.85600	-47
0.85967	-46
0.86333	-47
0.86700	-48
0.87067	-47
0.87433	-45
0.87800	-43
0.88167	-40
0.88533	-36
0.88900	-34
0.89267	-29
0.89633	-25
0.90000	-24
0.90367	-26
0.90733	-29
0.91100	-33
0.91467	-36
0.91833	-39
0.92200	-42
0.92567	-46
0.92933	-49
0.93300	-51
0.93667	-55
0.94033	-57
0.94400	-57
0.94767	-59
0.95133	-63
0.95500	-66
0.95867	-64
0.96233	-57
0.96600	-51
0.96967	-46
0.97333	-45
0.97700	-46
0.98067	-47
0.98433	-48
0.98800	-51
0.99167	-55
0.99533	-57
0.99900	-59
1.00267	-62
1.00633	-64
1.01000	-64
1.01367	-59
1.01733	-46
1.02100	-32
1.02467	-23
1.02833	-25
1.03200	-35
1.03567	-42
1.03933	-49
1.04300	-58
1.04667	-62
1.05033	-61
1.05400	-59
1.05767	-59
1.06133	-62
1.06500	-63
1.06867	-59
1.07233	-55
1.07600	-55
1.07967	-56
1.08333	-55
1.08700	-53
1.09067	-50
1.09433	-52
1.09800	-58
1.10167	-62
1.10533	-64
1.10900	-66
1.11267	-65
1.11633	-63
1.12000	-62
1.12367	-64
1.12733	-64
1.13100	-64
1.13467	-64
1.13833	-68
1.14200	-72
1.14567	-74
1.14933	-75
1.15300	-75
1.15667	-68
1.16033	-61
1.16400	-59
1.16767	-59
1.17133	-58
1.17500	-56
1.17867	-55
1.18233	-55
1.18600	-52
1.18967	-48
1.19333	-43
1.19700	-43
1.20067	-47
1.20433	-53
1.20800	-61
1.21167	-69
1.21533	-74
1.21900	-76
1.22267	-75
1.22633	-72
1.23000	-67
1.23367	-64
1.23733	-64
1.24100	-63
1.24467	-62
1.24833	-60
1.25200	-60
1.25567	-60
1.25933	-57
1.26300	-51
1.26667	-44
1.27033	-41
1.27400	-40
1.27767	-39
1.28133	-38
1.28500	-39
1.28867	-43
1.29233	-47
1.29600	-52
1.29967	-57
1.30333	-61
1.30700	-63
1.31067	-63
1.31433	-64
1.31800	-66
1.32167	-65
1.32533	-66
1.32900	-70
1.33267	-70
1.33633	-71
1.34000	-74
1.34367	-77
1.34733	-83
1.35100	-91
1.35467	-97
1.35833	-99
1.36200	-93
1.36567	-85
1.36933	-78
1.37300	-74
1.37667	-73
1.38033	-74
1.38400	-79
1.38767	-81
1.39133	-83
1.39500	-85
1.39867	-85
1.40233	-79
1.40600	-74
1.40967	-73
1.41333	-78
1.41700	-82
1.42067	-79
1.42433	-71
1.42800	-61
1.43167	-53
1.43533	-51
1.43900	-49
1.44267	-0
1.44633	228
1.45000	767
1.45367	1686
1.45733	3018
1.46100	4604
1.46467	6143
1.46833	7397
1.47200	8245
1.47567	8639
1.47933	8541
1.48300	7950
1.48667	6953
1.49033	5723
1.49400	4470
1.49767	3350
1.50133	2431
1.50500	1719
1.50867	1187
1.51233	799
1.51600	522
1.51967	325
1.52333	188
1.52700	97
1.53067	36
1.53433	-8
1.53800	-37
1.54167	-32
1.54533	63
1.54900	323
1.55267	762
1.55633	1294
1.56000	1804
1.56367	2214
1.56733	2493
1.57100	2612
1.57467	2535
1.57833	2261
1.58200	1849
1.58567	1393
1.58933	973
1.59300	637
1.59667	393
1.60033	225
1.60400	111
1.60767	34
1.61133	-20
1.61500	-59
1.61867	-88
1.62233	-109
1.62600	-118
1.62967	-122
1.63333	-120
1.63700	-119
1.64067	-119
1.64433	-118
1.64800	-116
1.65167	-117
1.65533	-121
1.65900	-126
1.66267	-129
1.66633	-131
1.67000	-134
1.67367	-137
1.67733	-136
1.68100	-135
1.68467	-135
1.68833	-138
1.69200	-141
1.69567	-144
1.69933	-146
1.70300	-146
1.70667	-145
1.71033	-141
1.71400	-134
1.71767	-126
1.72133	-117
1.72500	-113
1.72867	-112
1.73233	-114
1.73600	-117
1.73967	-120
1.74333	-118
1.74700	-111
1.75067	-100
1.75433	-90
1.75800	-84
1.76167	-86
1.76533	-95
1.76900	-110
1.77267	-120
1.77633	-124
1.78000	-127
1.78367	-127
1.78733	-127
1.79100	-127
1.79467	-128
1.79833	-128
1.80200	-127
1.80567	-125
1.80933	-121
1.81300	-117
1.81667	-114
1.82033	-111
1.82400	-109
1.82767	-105
1.83133	-102
1.83500	-100
1.83867	-100
1.84233	-98
1.84600	-94
1.84967	-88
1.85333	-84
1.85700	-85
1.86067	-92
1.86433	-100
1.86800	-107
1.87167	-113
1.87533	-114
1.87900	-111
1.88267	-104
1.88633	-98
1.89000	-96
1.89367	-97
1.89733	-100
1.90100	-104
1.90467	-106
1.90833	-104
1.91200	-100
1.91567	-96
1.91933	-94
1.92300	-93
1.92667	-92
1.93033	-94
1.93400	-99
1.93767	-102
1.94133	-104
1.94500	-104
1.94867	-101
1.95233	-97
1.95600	-73
1.95967	91
1.96333	972
1.96700	4705
1.97067	16795
1.97433	46946
1.97800	105723
1.98167	196523
1.98533	310025
1.98900	427061
1.99267	527244
1.99633	594751
2.00000	619879
2.00367	600052
2.00733	540787
2.01100	455333
2.01467	360491
2.01833	270844
2.02200	195188
2.02567	136405
2.02933	93379
2.03300	63187
2.03667	42607
2.04033	28834
2.04400	19714
2.04767	13693
2.05133	9703
2.05500	7038
2.05867	5238
2.06233	4004
2.06600	3143
2.06967	2528
2.07333	2079
2.07700	1744
2.08067	1489
2.08433	1289
2.08800	1128
2.09167	996
2.09533	890
2.09900	807
2.10267	735
2.10633	673
2.11000	622
2.11367	579
2.11733	544
2.12100	515
2.12467	486
2.12833	457
2.13200	430
2.13567	407
2.13933	392
2.14300	381
2.14667	366
2.15033	346
2.15400	321
2.15767	298
2.16133	280
2.16500	264
2.16867	253
2.17233	244
2.17600	235
2.17967	227
2.18333	222
2.18700	219
2.19067	218
2.19433	216
2.19800	211
2.20167	205
2.20533	200
2.20900	196
2.21267	192
2.21633	189
2.22000	187
2.22367	181
2.22733	173
2.23100	166
2.23467	161
2.23833	158
2.24200	152
2.24567	146
2.24933	138
2.25300	130
2.25667	122
2.26033	116
2.26400	110
2.26767	107
2.27133	105
2.27500	104
2.27867	101
2.28233	102
2.28600	105
2.28967	107
2.29333	106
2.29700	104
2.30067	104
2.30433	106
2.30800	109
2.31167	112
2.31533	117
2.31900	121
2.32267	120
2.32633	115
2.33000	109
2.33367	105
2.33733	101
2.34100	97
2.34467	91
2.34833	85
2.35200	82
2.35567	83
2.35933	85
2.36300	84
2.36667	82
2.37033	84
2.37400	88
2.37767	92
2.38133	94
2.38500	93
2.38867	92
2.39233	89
2.39600	87
2.39967	86
2.40333	83
2.40700	81
2.41067	84
2.41433	89
2.41800	92
2.42167	94
2.42533	91
2.42900	87
2.43267	86
2.43633	89
2.44000	94
2.44367	94
2.44733	91
2.45100	86
2.45467	83
2.45833	82
2.46200	82
2.46567	81
2.46933	77
2.47300	73
2.47667	71
2.48033	70
2.48400	72
2.48767	73
2.49133	71
2.49500	66
2.49867	60
2.50233	59
2.50600	61
2.50967	62
2.51333	61
2.51700	58
2.52067	57
2.52433	58
2.52800	62
2.53167	70
2.53533	80
2.53900	85
2.54267	86
2.54633	83
2.55000	79
2.55367	72
2.55733	65
2.56100	60
2.56467	58
2.56833	58
2.57200	57
2.57567	50
2.57933	43
2.58300	38
2.58667	35
2.59033	38
2.59400	44
2.59767	46
2.60133	47
2.60500	50
2.60867	54
2.61233	55
2.61600	52
2.61967	50
2.62333	50
2.62700	53
2.63067	55
2.63433	56
2.63800	54
2.64167	49
2.64533	44
2.64900	38
2.65267	33
2.65633	29
2.66000	29
2.66367	30
2.66733	31
2.67100	32
2.67467	33
2.67833	37
2.68200	45
2.68567	51
2.68933	51
2.69300	42
2.69667	34
2.70033	32
2.70400	32
2.70767	33
2.71133	34
2.71500	33
2.71867	34
2.72233	36
2.72600	34
2.72967	26
2.73333	18
2.73700	13
2.74067	15
2.74433	21
2.74800	30
2.75167	35
2.75533	40
2.75900	40
2.76267	38
2.76633	32
2.77000	26
2.77367	25
2.77733	27
2.78100	30
2.78467	33
2.78833	37
2.79200	38
2.79567	40
2.79933	39
2.80300	36
2.80667	33
2.81033	29
2.81400	25
2.81767	20
2.82133	21
2.82500	26
2.82867	27
2.83233	28
2.83600	27
2.83967	26
2.84333	29
2.84700	33
2.85067	37
2.85433	36
2.85800	33
2.86167	32
2.86533	27
2.86900	20
2.87267	15
2.87633	14
2.88000	13
2.88367	15
2.88733	21
2.89100	28
2.89467	32
2.89833	32
2.90200	29
2.90567	26
2.90933	24
2.91300	23
2.91667	24
2.92033	25
2.92400	24
2.92767	22
2.93133	22
2.93500	24
2.93867	26
2.94233	29
2.94600	32
2.94967	34
2.95333	31
2.95700	28
2.96067	26
2.96433	24
2.96800	21
2.97167	18
2.97533	17
2.97900	19
2.98267	24
2.98633	33
2.99000	38
2.99367	38
2.99733	35
3.00100	35
3.00467	35
3.00833	36
3.01200	36
3.01567	37
3.01933	38
3.02300	37
3.02667	31
3.03033	25
3.03400	20
3.03767	19
3.04133	21
3.04500	23
3.04867	23
3.05233	21
3.05600	18
3.05967	16
3.06333	17
3.06700	21
3.07067	27
3.07433	32
3.07800	36
3.08167	38
3.08533	37
3.08900	34
3.09267	29
3.09633	23
3.10000	17
3.10367	11
3.10733	4
3.11100	1
3.11467	5
3.11833	14
3.12200	24
3.12567	35
3.12933	41
3.13300	38
3.13667	32
3.14033	29
3.14400	27
3.14767	23
3.15133	20
3.15500	21
3.15867	25
3.16233	28
3.16600	28
3.16967	25
3.17333	22
3.17700	21
3.18067	19
3.18433	12
3.18800	6
3.19167	1
3.19533	-1
3.19900	-2
3.20267	1
3.20633	5
3.21000	11
3.21367	17
3.21733	23
3.22100	29
3.22467	33
3.22833	33
3.23200	30
3.23567	28
3.23933	24
3.24300	20
3.24667	19
3.25033	21
3.25400	25
3.25767	26
3.26133	26
3.26500	26
3.26867	26
3.27233	26
3.27600	23
3.27967	20
3.28333	19
3.28700	17
3.29067	15
3.29433	14
3.29800	17
3.30167	22
3.30533	25
3.30900	26
3.31267	27
3.31633	27
3.32000	28
3.32367	31
3.32733	34
3.33100	33
3.33467	29
3.33833	27
3.34200	25
3.34567	22
3.34933	18
3.35300	18
3.35667	20
3.36033	23
3.36400	24
3.36767	22
3.37133	19
3.37500	18
3.37867	20
3.38233	25
3.38600	30
3.38967	35
3.39333	34
3.39700	31
3.40067	29
3.40433	27
3.40800	24
3.41167	19
3.41533	16
3.41900	13
3.42267	11
3.42633	11
3.43000	11
3.43367	13
3.43733	15
3.44100	17
3.44467	15
3.44833	16
3.45200	20
3.45567	22
3.45933	24
3.46300	28
3.46667	30
3.47033	27
3.47400	23
3.47767	22
3.48133	23
3.48500	25
3.48867	28
3.49233	30
3.49600	29
3.49967	28
3.50333	27
3.50700	29
3.51067	28
3.51433	29
3.51800	34
3.52167	39
3.52533	41
3.52900	39
3.53267	28
3.53633	-2
3.54000	-3
3.54367	-2
3.54733	-4
3.55100	-7
3.55467	-5
3.55833	-3
3.56200	-0
3.56567	4
3.56933	7
3.57300	10
3.57667	9
3.58033	5
3.58400	5
3.58767	8
3.59133	14
3.59500	27
3.59867	39
3.60233	45
3.60600	41
3.60967	35
3.61333	26
3.61700	17
3.62067	10
3.62433	7
3.62800	9
3.63167	14
3.63533	16
3.63900	18
3.64267	20
3.64633	20
3.65000	16
3.65367	15
3.65733	20
3.66100	26
3.66467	28
3.66833	28
3.67200	26
3.67567	23
3.67933	18
3.68300	11
3.68667	7
3.69033	5
3.69400	5
3.69767	5
3.70133	7
3.70500	9
3.70867	13
3.71233	15
3.71600	14
3.71967	12
3.72333	9
3.72700	3
3.73067	-0
3.73433	1
3.73800	2
3.74167	3
3.74533	4
3.74900	8
3.75267	13
3.75633	20
3.76000	24
3.76367	24
3.76733	23
3.77100	24
3.77467	23
3.77833	20
3.78200	19
3.78567	17
3.78933	14
3.79300	11
3.79667	11
3.80033	13
3.80400	12
3.80767	9
3.81133	9
3.81500	12
3.81867	16
3.82233	19
3.82600	20
3.82967	17
3.83333	11
3.83700	7
3.84067	7
3.84433	9
3.84800	13
3.85167	18
3.85533	23
3.85900	25
3.86267	26
3.86633	24
3.87000	19
3.87367	16
3.87733	17
3.88100	21
3.88467	25
3.88833	26
3.89200	25
3.89567	22
3.89933	19
3.90300	13
3.90667	7
3.91033	4
3.91400	5
3.91767	6
3.92133	7
3.92500	6
3.92867	4
3.93233	3
3.93600	2
3.93967	6
3.94333	13
3.94700	20
3.95067	25
3.95433	28
3.95800	29
3.96167	27
3.96533	20
3.96900	15
3.97267	12
3.97633	8
3.98000	4
3.98367	2
3.98733	2
3.99100	3
3.99467	4
3.99833	5

[Chromatogram (Ch2)]
Interval(msec)	220
# of Points	1091
Start Time(min)	0.002
End Time(min)	3.998
R.Time (min)	Intensity
0.00167	-1
0.00533	-2
0.00900	-2
0.01267	-2
0.01633	-2
0.02000	-3
0.02367	-3
0.02733	-3
0.03100	-3
0.03467	-3
0.03833	-2
0.04200	-2
0.04567	-2
0.04933	-2
0.05300	-1
0.05667	-1
0.06033	-1
0.06400	-1
0.06767	-1
0.07133	-1
0.07500	-1
0.07867	-1
0.08233	-1
0.08600	-1
0.08967	-1
0.09333	-1
0.09700	-0
0.10067	0
0.10433	0
0.10800	0
0.11167	1
0.11533	1
0.11900	1
0.12267	1
0.12633	1
0.13000	1
0.13367	1
0.13733	2
0.14100	2
0.14467	2
0.14833	2
0.15200	2
0.15567	2
0.15933	2
0.16300	2
0.16667	2
0.17033	2
0.17400	2
0.17767	2
0.18133	2
0.18500	2
0.18867	2
0.19233	2
0.19600	2
0.19967	2
0.20333	2
0.20700	2
0.21067	2
0.21433	2
0.21800	2
0.22167	2
0.22533	2
0.22900	1
0.23267	1
0.23633	1
0.24000	1
0.24367	1
0.24733	1
0.25100	1
0.25467	0
0.25833	-0
0.26200	-1
0.26567	-1
0.26933	-2
0.27300	-3
0.27667	-3
0.28033	-3
0.28400	-3
0.28767	-3
0.29133	-3
0.29500	-2
0.29867	-2
0.30233	-1
0.30600	-1
0.30967	-1
0.31333	-1
0.31700	-0
0.32067	0
0.32433	0
0.32800	1
0.33167	1
0.33533	1
0.33900	1
0.34267	2
0.34633	2
0.35000	3
0.35367	3
0.35733	4
0.36100	4
0.36467	4
0.36833	4
0.37200	4
0.37567	4
0.37933	4
0.38300	5
0.38667	5
0.39033	5
0.39400	5
0.39767	4
0.40133	4
0.40500	3
0.40867	3
0.41233	3
0.41600	2
0.41967	2
0.42333	1
0.42700	1
0.43067	1
0.43433	1
0.43800	1
0.44167	1
0.44533	1
0.44900	1
0.45267	1
0.45633	1
0.46000	0
0.46367	0
0.46733	0
0.47100	1
0.47467	1
0.47833	1
0.48200	1
0.48567	1
0.48933	0
0.49300	-0
0.49667	-0
0.50033	-1
0.50400	-1
0.50767	-1
0.51133	-1
0.51500	-1
0.51867	-1
0.52233	-2
0.52600	-2
0.52967	-2
0.53333	-1
0.53700	-1
0.54067	-1
0.54433	-1
0.54800	-1
0.55167	-2
0.55533	-2
0.55900	-1
0.56267	-1
0.56633	-1
0.57000	-1
0.57367	-0
0.57733	0
0.58100	1
0.58467	1
0.58833	1
0.59200	2
0.59567	2
0.59933	2
0.60300	2
0.60667	2
0.61033	3
0.61400	3
0.61767	3
0.62133	3
0.62500	3
0.62867	3
0.63233	3
0.63600	2
0.63967	3
0.64333	3
0.64700	3
0.65067	3
0.65433	3
0.65800	3
0.66167	3
0.66533	3
0.66900	2
0.67267	2
0.67633	2
0.68000	2
0.68367	1
0.68733	1
0.69100	1
0.69467	0
0.69833	-1
0.70200	-1
0.70567	-2
0.70933	-3
0.71300	-3
0.71667	-4
0.72033	-4
0.72400	-4
0.72767	-4
0.73133	-3
0.73500	-3
0.73867	-3
0.74233	-3
0.74600	-3
0.74967	-3
0.75333	-2
0.75700	-2
0.76067	-2
0.76433	-2
0.76800	-2
0.77167	-1
0.77533	-1
0.77900	-1
0.78267	-1
0.78633	-0
0.79000	0
0.79367	0
0.79733	0
0.80100	1
0.80467	1
0.80833	1
0.81200	1
0.81567	1
0.81933	1
0.82300	1
0.82667	1
0.83033	1
0.83400	1
0.83767	1
0.84133	1
0.84500	1
0.84867	1
0.85233	2
0.85600	2
0.85967	2
0.86333	2
0.86700	2
0.87067	2
0.87433	1
0.87800	1
0.88167	1
0.88533	1
0.88900	0
0.89267	0
0.89633	0
0.90000	0
0.90367	-0
0.90733	0
0.91100	0
0.91467	-0
0.91833	-0
0.92200	-0
0.92567	-0
0.92933	-1
0.93300	-1
0.93667	-1
0.94033	-1
0.94400	-1
0.94767	-1
0.95133	-1
0.95500	-2
0.95867	-2
0.96233	-2
0.96600	-2
0.96967	-2
0.97333	-2
0.97700	-2
0.98067	-2
0.98433	-1
0.98800	-2
0.99167	-2
0.99533	-2
0.99900	-2
1.00267	-2
1.00633	-2
1.01000	-2
1.01367	-2
1.01733	-2
1.02100	-2
1.02467	-2
1.02833	-1
1.03200	-1
1.03567	-1
1.03933	-1
1.04300	-1
1.04667	-1
1.05033	-1
1.05400	-1
1.05767	-1
1.06133	-1
1.06500	-1
1.06867	-1
1.07233	-1
1.07600	-1
1.07967	-0
1.08333	0
1.08700	0
1.09067	1
1.09433	1
1.09800	1
1.10167	2
1.10533	2
1.10900	2
1.11267	2
1.11633	2
1.12000	2
1.12367	2
1.12733	2
1.13100	1
1.13467	1
1.13833	1
1.14200	1
1.14567	0
1.14933	0
1.15300	-0
1.15667	-0
1.16033	-0
1.16400	-0
1.16767	-0
1.17133	-1
1.17500	-1
1.17867	-1
1.18233	-1
1.18600	-1
1.18967	-1
1.19333	-1
1.19700	-1
1.20067	-1
1.20433	-2
1.20800	-2
1.21167	-2
1.21533	-2
1.21900	-2
1.22267	-2
1.22633	-2
1.23000	-1
1.23367	-1
1.23733	-1
1.24100	-0
1.24467	-0
1.24833	-0
1.25200	-0
1.25567	0
1.25933	0
1.26300	0
1.26667	0
1.27033	0
1.27400	0
1.27767	0
1.28133	0
1.28500	-0
1.28867	-0
1.29233	-0
1.29600	-0
1.29967	-0
1.30333	-0
1.30700	-0
1.31067	0
1.31433	0
1.31800	0
1.32167	0
1.32533	0
1.32900	0
1.33267	-0
1.33633	-0
1.34000	-1
1.34367	-1
1.34733	-1
1.35100	-1
1.35467	-2
1.35833	-2
1.36200	-2
1.36567	-2
1.36933	-2
1.37300	-2
1.37667	-2
1.38033	-2
1.38400	-2
1.38767	-2
1.39133	-2
1.39500	-2
1.39867	-2
1.40233	-2
1.40600	-1
1.40967	-1
1.41333	-1
1.41700	-1
1.42067	-1
1.42433	-1
1.42800	-1
1.43167	-1
1.43533	-1
1.43900	-1
1.44267	-1
1.44633	-1
1.45000	-1
1.45367	-1
1.45733	-1
1.46100	-1
1.46467	-1
1.46833	-2
1.47200	-2
1.47567	-2
1.47933	-2
1.48300	-2
1.48667	-2
1.49033	-1
1.49400	-1
1.49767	-1
1.50133	-1
1.50500	-1
1.50867	-1
1.51233	-1
1.51600	-1
1.51967	-1
1.52333	-1
1.52700	-0
1.53067	-0
1.53433	-0
1.53800	-0
1.54167	-1
1.54533	-1
1.54900	-1
1.55267	-1
1.55633	-1
1.56000	-1
1.56367	-2
1.56733	-2
1.57100	-2
1.57467	-2
1.57833	-2
1.58200	-2
1.58567	-2
1.58933	-3
1.59300	-3
1.59667	-4
1.60033	-5
1.60400	-5
1.60767	-7
1.61133	-8
1.61500	-10
1.61867	-12
1.62233	-15
1.62600	-17
1.62967	-20
1.63333	-23
1.63700	-27
1.64067	-30
1.64433	-34
1.64800	-37
1.65167	-41
1.65533	-44
1.65900	-48
1.66267	-52
1.66633	-56
1.67000	-60
1.67367	-65
1.67733	-70
1.68100	-75
1.68467	-80
1.68833	-85
1.69200	-89
1.69567	-93
1.69933	-97
1.70300	-99
1.70667	-102
1.71033	-104
1.71400	-106
1.71767	-107
1.72133	-109
1.72500	-110
1.72867	-111
1.73233	-111
1.73600	-112
1.73967	-112
1.74333	-112
1.74700	-112
1.75067	-113
1.75433	-113
1.75800	-114
1.76167	-115
1.76533	-115
1.76900	-116
1.77267	-117
1.77633	-117
1.78000	-118
1.78367	-118
1.78733	-118
1.79100	-118
1.79467	-118
1.79833	-118
1.80200	-118
1.80567	-119
1.80933	-119
1.81300	-118
1.81667	-119
1.82033	-119
1.82400	-119
1.82767	-119
1.83133	-119
1.83500	-119
1.83867	-120
1.84233	-120
1.84600	-121
1.84967	-122
1.85333	-122
1.85700	-122
1.86067	-122
1.86433	-122
1.86800	-122
1.87167	-122
1.87533	-122
1.87900	-122
1.88267	-122
1.88633	-122
1.89000	-122
1.89367	-122
1.89733	-121
1.90100	-121
1.90467	-121
1.90833	-120
1.91200	-120
1.91567	-119
1.91933	-119
1.92300	-118
1.92667	-118
1.93033	-119
1.93400	-119
1.93767	-119
1.94133	-118
1.94500	-118
1.94867	-117
1.95233	-117
1.95600	-117
1.95967	-117
1.96333	-116
1.96700	-116
1.97067	-116
1.97433	-115
1.97800	-115
1.98167	-115
1.98533	-114
1.98900	-114
1.99267	-113
1.99633	-113
2.00000	-114
2.00367	-114
2.00733	-114
2.01100	-114
2.01467	-113
2.01833	-113
2.02200	-113
2.02567	-113
2.02933	-112
2.03300	-112
2.03667	-112
2.04033	-112
2.04400	-111
2.04767	-111
2.05133	-110
2.05500	-110
2.05867	-109
2.06233	-109
2.06600	-108
2.06967	-108
2.07333	-107
2.07700	-107
2.08067	-106
2.08433	-106
2.08800	-106
2.09167	-106
2.09533	-106
2.09900	-106
2.10267	-106
2.10633	-106
2.11000	-105
2.11367	-105
2.11733	-104
2.12100	-104
2.12467	-104
2.12833	-104
2.13200	-103
2.13567	-103
2.13933	-102
2.14300	-102
2.14667	-102
2.15033	-102
2.15400	-102
2.15767	-101
2.16133	-101
2.16500	-100
2.16867	-99
2.17233	-99
2.17600	-99
2.17967	-98
2.18333	-98
2.18700	-97
2.19067	-97
2.19433	-97
2.19800	-97
2.20167	-97
2.20533	-97
2.20900	-97
2.21267	-97
2.21633	-97
2.22000	-97
2.22367	-97
2.22733	-97
2.23100	-97
2.23467	-97
2.23833	-97
2.24200	-96
2.24567	-96
2.24933	-96
2.25300	-97
2.25667	-97
2.26033	-97
2.26400	-96
2.26767	-96
2.27133	-95
2.27500	-95
2.27867	-94
2.28233	-94
2.28600	-93
2.28967	-92
2.29333	-91
2.29700	-91
2.30067	-90
2.30433	-90
2.30800	-89
2.31167	-88
2.31533	-88
2.31900	-87
2.32267	-87
2.32633	-87
2.33000	-87
2.33367	-87
2.33733	-88
2.34100	-88
2.34467	-87
2.34833	-86
2.35200	-86
2.35567	-85
2.35933	-84
2.36300	-82
2.36667	-81
2.37033	-79
2.37400	-77
2.37767	-75
2.38133	-72
2.38500	-69
2.38867	-65
2.39233	-62
2.39600	-58
2.39967	-53
2.40333	-49
2.40700	-45
2.41067	-40
2.41433	-36
2.41800	-32
2.42167	-29
2.42533	-25
2.42900	-22
2.43267	-19
2.43633	-17
2.44000	-15
2.44367	-14
2.44733	-12
2.45100	-10
2.45467	-8
2.45833	-6
2.46200	-5
2.46567	-3
2.46933	-2
2.47300	-1
2.47667	1
2.48033	2
2.48400	3
2.48767	4
2.49133	4
2.49500	5
2.49867	5
2.50233	6
2.50600	6
2.50967	7
2.51333	7
2.51700	7
2.52067	8
2.52433	8
2.52800	8
2.53167	9
2.53533	10
2.53900	10
2.54267	11
2.54633	11
2.55000	11
2.55367	11
2.55733	11
2.56100	12
2.56467	12
2.56833	13
2.57200	14
2.57567	14
2.57933	14
2.58300	14
2.58667	15
2.59033	15
2.59400	15
2.59767	15
2.60133	16
2.60500	16
2.60867	16
2.61233	16
2.61600	16
2.61967	16
2.62333	16
2.62700	16
2.63067	16
2.63433	16
2.63800	17
2.64167	17
2.64533	17
2.64900	17
2.65267	17
2.65633	17
2.66000	18
2.66367	18
2.66733	19
2.67100	19
2.67467	19
2.67833	20
2.68200	20
2.68567	19
2.68933	19
2.69300	19
2.69667	19
2.70033	20
2.70400	20
2.70767	21
2.71133	21
2.71500	21
2.71867	21
2.72233	22
2.72600	22
2.72967	23
2.73333	23
2.73700	23
2.74067	24
2.74433	24
2.74800	24
2.75167	25
2.75533	25
2.75900	25
2.76267	25
2.76633	25
2.77000	25
2.77367	25
2.77733	24
2.78100	24
2.78467	23
2.78833	23
2.79200	23
2.79567	23
2.79933	23
2.80300	23
2.80667	23
2.81033	23
2.81400	23
2.81767	23
2.82133	23
2.82500	23
2.82867	24
2.83233	24
2.83600	24
2.83967	23
2.84333	23
2.84700	22
2.85067	20
2.85433	16
2.85800	10
2.86167	1
2.86533	-11
2.86900	-27
2.87267	-47
2.87633	-71
2.88000	-100
2.88367	-132
2.88733	-168
2.89100	-208
2.89467	-250
2.89833	-295
2.90200	-343
2.90567	-391
2.90933	-441
2.91300	-492
2.91667	-543
2.92033	-595
2.92400	-646
2.92767	-696
2.93133	-746
2.93500	-796
2.93867	-847
2.94233	-903
2.94600	-965
2.94967	-1028
2.95333	-1081
2.95700	-1114
2.96067	-1120
2.96433	-1099
2.96800	-1055
2.97167	-993
2.97533	-919
2.97900	-839
2.98267	-757
2.98633	-676
2.99000	-598
2.99367	-525
2.99733	-458
3.00100	-398
3.00467	-343
3.00833	-295
3.01200	-253
3.01567	-216
3.01933	-184
3.02300	-156
3.02667	-132
3.03033	-111
3.03400	-94
3.03767	-78
3.04133	-65
3.04500	-54
3.04867	-45
3.05233	-37
3.05600	-30
3.05967	-24
3.06333	-18
3.06700	-14
3.07067	-10
3.07433	-7
3.07800	-4
3.08167	-1
3.08533	1
3.08900	2
3.09267	4
3.09633	5
3.10000	6
3.10367	7
3.10733	8
3.11100	9
3.11467	10
3.11833	10
3.12200	11
3.12567	12
3.12933	12
3.13300	13
3.13667	13
3.14033	14
3.14400	14
3.14767	14
3.15133	14
3.15500	15
3.15867	15
3.16233	15
3.16600	16
3.16967	16
3.17333	17
3.17700	17
3.18067	17
3.18433	18
3.18800	18
3.19167	18
3.19533	18
3.19900	18
3.20267	18
3.20633	19
3.21000	19
3.21367	19
3.21733	19
3.22100	19
3.22467	19
3.22833	19
3.23200	19
3.23567	19
3.23933	19
3.24300	19
3.24667	19
3.25033	19
3.25400	19
3.25767	19
3.26133	20
3.26500	20
3.26867	20
3.27233	21
3.27600	21
3.27967	21
3.28333	22
3.28700	22
3.29067	23
3.29433	23
3.29800	23
3.30167	23
3.30533	23
3.30900	24
3.31267	24
3.31633	24
3.32000	24
3.32367	25
3.32733	25
3.33100	25
3.33467	25
3.33833	25
3.34200	25
3.34567	25
3.34933	25
3.35300	25
3.35667	25
3.36033	25
3.36400	25
3.36767	26
3.37133	26
3.37500	26
3.37867	26
3.38233	26
3.38600	26
3.38967	26
3.39333	26
3.39700	26
3.40067	26
3.40433	26
3.40800	26
3.41167	26
3.41533	26
3.41900	26
3.42267	26
3.42633	26
3.43000	26
3.43367	26
3.43733	26
3.44100	26
3.44467	26
3.44833	26
3.45200	25
3.45567	25
3.45933	25
3.46300	25
3.46667	25
3.47033	25
3.47400	25
3.47767	25
3.48133	25
3.48500	25
3.48867	25
3.49233	25
3.49600	25
3.49967	25
3.50333	25
3.50700	25
3.51067	25
3.51433	25
3.51800	24
3.52167	24
3.52533	24
3.52900	24
3.53267	24
3.53633	24
3.54000	24
3.54367	25
3.54733	25
3.55100	25
3.55467	25
3.55833	25
3.56200	25
3.56567	25
3.56933	25
3.57300	25
3.57667	25
3.58033	25
3.58400	25
3.58767	25
3.59133	25
3.59500	25
3.59867	25
3.60233	25
3.60600	25
3.60967	25
3.61333	25
3.61700	25
3.62067	25
3.62433	25
3.62800	25
3.63167	25
3.63533	25
3.63900	25
3.64267	25
3.64633	24
3.65000	24
3.65367	24
3.65733	24
3.66100	24
3.66467	24
3.66833	24
3.67200	24
3.67567	24
3.67933	24
3.68300	24
3.68667	24
3.69033	24
3.69400	24
3.69767	24
3.70133	24
3.70500	24
3.70867	24
3.71233	24
3.71600	24
3.71967	25
3.72333	25
3.72700	25
3.73067	26
3.73433	26
3.73800	26
3.74167	26
3.74533	26
3.74900	26
3.75267	26
3.75633	26
3.76000	26
3.76367	26
3.76733	26
3.77100	26
3.77467	26
3.77833	26
3.78200	26
3.78567	26
3.78933	26
3.79300	26
3.79667	26
3.80033	26
3.80400	26
3.80767	26
3.81133	26
3.81500	26
3.81867	26
3.82233	26
3.82600	26
3.82967	26
3.83333	26
3.83700	26
3.84067	26
3.84433	26
3.84800	26
3.85167	26
3.85533	26
3.85900	25
3.86267	25
3.86633	25
3.87000	25
3.87367	25
3.87733	24
3.88100	24
3.88467	24
3.88833	24
3.89200	25
3.89567	25
3.89933	25
3.90300	26
3.90667	26
3.91033	26
3.91400	27
3.91767	27
3.92133	27
3.92500	27
3.92867	27
3.93233	27
3.93600	26
3.93967	26
3.94333	26
3.94700	26
3.95067	26
3.95433	26
3.95800	26
3.96167	26
3.96533	26
3.96900	26
3.97267	26
3.97633	26
3.98000	27
3.98367	27
3.98733	27
3.99100	27
3.99467	26
3.99833	26

[Chromatogram (Ch3)]
Interval(msec)	220
# of Points	1091
Start Time(min)	0.002
End Time(min)	3.998
R.Time (min)	Intensity
0.00167	-0
0.00533	-1
0.00900	-1
0.01267	-2
0.01633	-4
0.02000	-5
0.02367	-4
0.02733	-3
0.03100	-5
0.03467	-5
0.03833	-3
0.04200	-2
0.04567	-2
0.04933	-1
0.05300	-0
0.05667	-1
0.06033	-3
0.06400	-4
0.06767	-5
0.07133	-5
0.07500	-6
0.07867	-5
0.08233	-3
0.08600	-1
0.08967	-1
0.09333	-2
0.09700	-4
0.10067	-4
0.10433	-2
0.10800	0
0.11167	1
0.11533	-0
0.11900	-1
0.12267	-2
0.12633	-4
0.13000	-3
0.13367	-2
0.13733	-3
0.14100	-3
0.14467	-2
0.14833	0
0.15200	2
0.15567	1
0.15933	-1
0.16300	-3
0.16667	-3
0.17033	-1
0.17400	0
0.17767	-0
0.18133	-1
0.18500	0
0.18867	1
0.19233	1
0.19600	-0
0.19967	0
0.20333	-1
0.20700	-3
0.21067	-2
0.21433	-0
0.21800	-1
0.22167	-1
0.22533	0
0.22900	0
0.23267	-1
0.23633	-2
0.24000	-2
0.24367	-1
0.24733	-2
0.25100	-1
0.25467	-1
0.25833	-1
0.26200	-3
0.26567	-3
0.26933	-1
0.27300	0
0.27667	-1
0.28033	0
0.28400	1
0.28767	2
0.29133	1
0.29500	-1
0.29867	-3
0.30233	-6
0.30600	-6
0.30967	-6
0.31333	-5
0.31700	-3
0.32067	-2
0.32433	-1
0.32800	-1
0.33167	-3
0.33533	-4
0.33900	-4
0.34267	-3
0.34633	-3
0.35000	-4
0.35367	-4
0.35733	-3
0.36100	-5
0.36467	-5
0.36833	-3
0.37200	-2
0.37567	-0
0.37933	1
0.38300	2
0.38667	1
0.39033	0
0.39400	-0
0.39767	-1
0.40133	-2
0.40500	-2
0.40867	-3
0.41233	-2
0.41600	-2
0.41967	-1
0.42333	-2
0.42700	-1
0.43067	0
0.43433	0
0.43800	-1
0.44167	-3
0.44533	-2
0.44900	-1
0.45267	-2
0.45633	-2
0.46000	-2
0.46367	-3
0.46733	-3
0.47100	-3
0.47467	-2
0.47833	-2
0.48200	-2
0.48567	-1
0.48933	-0
0.49300	-1
0.49667	0
0.50033	-0
0.50400	-2
0.50767	-2
0.51133	0
0.51500	-0
0.51867	-1
0.52233	-1
0.52600	-0
0.52967	-1
0.53333	-2
0.53700	-2
0.54067	-4
0.54433	-4
0.54800	-3
0.55167	-3
0.55533	-6
0.55900	-7
0.56267	-4
0.56633	-2
0.57000	-4
0.57367	-6
0.57733	-8
0.58100	-8
0.58467	-7
0.58833	-5
0.59200	-4
0.59567	-3
0.59933	-3
0.60300	-2
0.60667	-1
0.61033	-4
0.61400	-5
0.61767	-5
0.62133	-6
0.62500	-6
0.62867	-6
0.63233	-7
0.63600	-6
0.63967	-3
0.64333	-1
0.64700	-3
0.65067	-3
0.65433	-4
0.65800	-5
0.66167	-4
0.66533	-5
0.66900	-5
0.67267	-2
0.67633	-1
0.68000	-2
0.68367	-3
0.68733	-4
0.69100	-5
0.69467	-5
0.69833	-5
0.70200	-8
0.70567	-7
0.70933	-8
0.71300	-10
0.71667	-11
0.72033	-8
0.72400	-6
0.72767	-6
0.73133	-4
0.73500	-1
0.73867	-1
0.74233	-2
0.74600	-2
0.74967	-2
0.75333	-0
0.75700	1
0.76067	1
0.76433	-0
0.76800	-0
0.77167	-1
0.77533	-1
0.77900	-2
0.78267	-2
0.78633	-3
0.79000	-3
0.79367	-4
0.79733	-5
0.80100	-6
0.80467	-7
0.80833	-7
0.81200	-8
0.81567	-9
0.81933	-9
0.82300	-9
0.82667	-10
0.83033	-9
0.83400	-7
0.83767	-7
0.84133	-5
0.84500	-4
0.84867	-4
0.85233	-4
0.85600	-3
0.85967	-3
0.86333	-3
0.86700	-3
0.87067	-5
0.87433	-6
0.87800	-8
0.88167	-10
0.88533	-10
0.88900	-9
0.89267	-6
0.89633	-3
0.90000	-3
0.90367	-3
0.90733	-4
0.91100	-6
0.91467	-7
0.91833	-6
0.92200	-5
0.92567	-4
0.92933	-3
0.93300	-3
0.93667	-3
0.94033	-5
0.94400	-6
0.94767	-7
0.95133	-6
0.95500	-7
0.95867	-7
0.96233	-7
0.96600	-7
0.96967	-9
0.97333	-8
0.97700	-5
0.98067	-4
0.98433	-4
0.98800	-4
0.99167	-6
0.99533	-8
0.99900	-9
1.00267	-10
1.00633	-10
1.01000	-10
1.01367	-11
1.01733	-12
1.02100	-15
1.02467	-14
1.02833	-14
1.03200	-13
1.03567	-13
1.03933	-13
1.04300	-13
1.04667	-11
1.05033	-9
1.05400	-6
1.05767	-4
1.06133	-5
1.06500	-7
1.06867	-9
1.07233	-12
1.07600	-14
1.07967	-13
1.08333	-12
1.08700	-12
1.09067	-13
1.09433	-13
1.09800	-13
1.10167	-13
1.10533	-14
1.10900	-13
1.11267	-13
1.11633	-13
1.12000	-12
1.12367	-14
1.12733	-14
1.13100	-11
1.13467	-12
1.13833	-12
1.14200	-13
1.14567	-14
1.14933	-15
1.15300	-14
1.15667	-11
1.16033	-10
1.16400	-11
1.16767	-10
1.17133	-10
1.17500	-10
1.17867	-10
1.18233	-11
1.18600	-12
1.18967	-11
1.19333	-8
1.19700	-7
1.20067	-9
1.20433	-10
1.20800	-8
1.21167	-6
1.21533	-8
1.21900	-10
1.22267	-9
1.22633	-10
1.23000	-12
1.23367	-13
1.23733	-12
1.24100	-13
1.24467	-14
1.24833	-13
1.25200	-12
1.25567	-10
1.25933	-9
1.26300	-9
1.26667	-9
1.27033	-12
1.27400	-13
1.27767	-15
1.28133	-16
1.28500	-13
1.28867	-10
1.29233	-11
1.29600	-11
1.29967	-11
1.30333	-14
1.30700	-17
1.31067	-18
1.31433	-18
1.31800	-16
1.32167	-13
1.32533	-11
1.32900	-11
1.33267	-12
1.33633	-12
1.34000	-12
1.34367	-11
1.34733	-10
1.35100	-10
1.35467	-9
1.35833	-10
1.36200	-10
1.36567	-10
1.36933	-10
1.37300	-12
1.37667	-14
1.38033	-14
1.38400	-14
1.38767	-13
1.39133	-12
1.39500	-12
1.39867	-12
1.40233	-11
1.40600	-11
1.40967	-9
1.41333	-10
1.41700	-12
1.42067	-12
1.42433	-14
1.42800	-16
1.43167	-16
1.43533	-13
1.43900	-10
1.44267	-10
1.44633	-10
1.45000	-11
1.45367	-13
1.45733	-12
1.46100	-11
1.46467	-10
1.46833	-11
1.47200	-10
1.47567	-12
1.47933	-13
1.48300	-14
1.48667	-14
1.49033	-15
1.49400	-14
1.49767	-14
1.50133	-13
1.50500	-14
1.50867	-14
1.51233	-13
1.51600	-11
1.51967	-12
1.52333	-13
1.52700	-15
1.53067	-15
1.53433	-14
1.53800	-13
1.54167	-15
1.54533	-16
1.54900	-17
1.55267	-18
1.55633	-18
1.56000	-15
1.56367	-13
1.56733	-12
1.57100	-11
1.57467	-11
1.57833	-11
1.58200	-12
1.58567	-14
1.58933	-16
1.59300	-14
1.59667	-13
1.60033	-12
1.60400	-12
1.60767	-13
1.61133	-14
1.61500	-10
1.61867	-7
1.62233	-7
1.62600	-7
1.62967	-7
1.63333	-6
1.63700	-7
1.64067	-6
1.64433	-8
1.64800	-9
1.65167	-8
1.65533	-8
1.65900	-7
1.66267	-4
1.66633	-3
1.67000	-2
1.67367	-2
1.67733	-4
1.68100	-6
1.68467	-5
1.68833	-6
1.69200	-5
1.69567	-3
1.69933	-2
1.70300	-3
1.70667	-2
1.71033	-1
1.71400	1
1.71767	3
1.72133	6
1.72500	9
1.72867	8
1.73233	7
1.73600	8
1.73967	9
1.74333	11
1.74700	15
1.75067	16
1.75433	18
1.75800	17
1.76167	15
1.76533	16
1.76900	18
1.77267	19
1.77633	18
1.78000	19
1.78367	20
1.78733	19
1.79100	18
1.79467	21
1.79833	23
1.80200	24
1.80567	24
1.80933	26
1.81300	27
1.81667	27
1.82033	27
1.82400	29
1.82767	29
1.83133	28
1.83500	28
1.83867	28
1.84233	29
1.84600	32
1.84967	37
1.85333	41
1.85700	41
1.86067	38
1.86433	37
1.86800	35
1.87167	34
1.87533	33
1.87900	33
1.88267	35
1.88633	38
1.89000	40
1.89367	41
1.89733	39
1.90100	41
1.90467	43
1.90833	43
1.91200	43
1.91567	44
1.91933	44
1.92300	42
1.92667	40
1.93033	40
1.93400	41
1.93767	42
1.94133	45
1.94500	47
1.94867	48
1.95233	51
1.95600	53
1.95967	54
1.96333	55
1.96700	58
1.97067	61
1.97433	64
1.97800	66
1.98167	68
1.98533	69
1.98900	68
1.99267	68
1.99633	69
2.00000	70
2.00367	70
2.00733	70
2.01100	71
2.01467	72
2.01833	72
2.02200	72
2.02567	72
2.02933	74
2.03300	77
2.03667	80
2.04033	82
2.04400	84
2.04767	84
2.05133	83
2.05500	84
2.05867	86
2.06233	89
2.06600	93
2.06967	96
2.07333	96
2.07700	97
2.08067	100
2.08433	101
2.08800	101
2.09167	101
2.09533	103
2.09900	104
2.10267	106
2.10633	109
2.11000	110
2.11367	110
2.11733	112
2.12100	114
2.12467	116
2.12833	117
2.13200	117
2.13567	119
2.13933	120
2.14300	121
2.14667	121
2.15033	123
2.15400	125
2.15767	128
2.16133	128
2.16500	127
2.16867	127
2.17233	130
2.17600	133
2.17967	135
2.18333	136
2.18700	138
2.19067	139
2.19433	140
2.19800	141
2.20167	142
2.20533	143
2.20900	143
2.21267	145
2.21633	146
2.22000	148
2.22367	150
2.22733	153
2.23100	155
2.23467	157
2.23833	158
2.24200	159
2.24567	159
2.24933	160
2.25300	163
2.25667	166
2.26033	169
2.26400	171
2.26767	171
2.27133	171
2.27500	170
2.27867	170
2.28233	172
2.28600	175
2.28967	176
2.29333	178
2.29700	179
2.30067	181
2.30433	182
2.30800	185
2.31167	187
2.31533	189
2.31900	192
2.32267	196
2.32633	199
2.33000	201
2.33367	203
2.33733	204
2.34100	205
2.34467	204
2.34833	202
2.35200	201
2.35567	204
2.35933	208
2.36300	209
2.36667	212
2.37033	215
2.37400	216
2.37767	217
2.38133	218
2.38500	220
2.38867	221
2.39233	220
2.39600	220
2.39967	222
2.40333	224
2.40700	225
2.41067	226
2.41433	227
2.41800	231
2.42167	236
2.42533	240
2.42900	242
2.43267	243
2.43633	245
2.44000	245
2.44367	246
2.44733	248
2.45100	249
2.45467	248
2.45833	245
2.46200	240
2.46567	234
2.46933	231
2.47300	231
2.47667	232
2.48033	236
2.48400	241
2.48767	247
2.49133	250
2.49500	252
2.49867	254
2.50233	255
2.50600	255
2.50967	257
2.51333	259
2.51700	263
2.52067	266
2.52433	268
2.52800	271
2.53167	273
2.53533	276
2.53900	278
2.54267	278
2.54633	278
2.55000	280
2.55367	283
2.55733	285
2.56100	287
2.56467	289
2.56833	290
2.57200	289
2.57567	288
2.57933	290
2.58300	293
2.58667	297
2.59033	300
2.59400	301
2.59767	301
2.60133	297
2.60500	289
2.60867	279
2.61233	263
2.61600	242
2.61967	214
2.62333	183
2.62700	153
2.63067	124
2.63433	99
2.63800	78
2.64167	63
2.64533	54
2.64900	48
2.65267	43
2.65633	40
2.66000	42
2.66367	47
2.66733	53
2.67100	59
2.67467	67
2.67833	74
2.68200	82
2.68567	91
2.68933	100
2.69300	104
2.69667	109
2.70033	117
2.70400	124
2.70767	129
2.71133	136
2.71500	145
2.71867	153
2.72233	159
2.72600	163
2.72967	166
2.73333	168
2.73700	172
2.74067	176
2.74433	181
2.74800	187
2.75167	189
2.75533	192
2.75900	197
2.76267	202
2.76633	208
2.77000	214
2.77367	216
2.77733	218
2.78100	219
2.78467	218
2.78833	218
2.79200	218
2.79567	217
2.79933	216
2.80300	217
2.80667	220
2.81033	222
2.81400	223
2.81767	221
2.82133	219
2.82500	217
2.82867	223
2.83233	246
2.83600	303
2.83967	411
2.84333	597
2.84700	883
2.85067	1288
2.85433	1810
2.85800	2429
2.86167	3105
2.86533	3795
2.86900	4444
2.87267	4997
2.87633	5416
2.88000	5676
2.88367	5770
2.88733	5704
2.89100	5513
2.89467	5221
2.89833	4861
2.90200	4466
2.90567	4056
2.90933	3652
2.91300	3262
2.91667	2898
2.92033	2565
2.92400	2264
2.92767	1993
2.93133	1749
2.93500	1533
2.93867	1344
2.94233	1179
2.94600	1035
2.94967	910
2.95333	801
2.95700	704
2.96067	621
2.96433	548
2.96800	486
2.97167	432
2.97533	387
2.97900	348
2.98267	314
2.98633	286
2.99000	260
2.99367	239
2.99733	220
3.00100	202
3.00467	186
3.00833	174
3.01200	162
3.01567	151
3.01933	144
3.02300	138
3.02667	131
3.03033	124
3.03400	119
3.03767	115
3.04133	112
3.04500	109
3.04867	104
3.05233	99
3.05600	96
3.05967	92
3.06333	88
3.06700	85
3.07067	82
3.07433	80
3.07800	79
3.08167	79
3.08533	79
3.08900	78
3.09267	74
3.09633	70
3.10000	68
3.10367	69
3.10733	70
3.11100	70
3.11467	71
3.11833	70
3.12200	67
3.12567	65
3.12933	62
3.13300	59
3.13667	56
3.14033	56
3.14400	54
3.14767	56
3.15133	54
3.15500	53
3.15867	54
3.16233	54
3.16600	53
3.16967	52
3.17333	51
3.17700	52
3.18067	52
3.18433	51
3.18800	49
3.19167	48
3.19533	48
3.19900	45
3.20267	42
3.20633	41
3.21000	41
3.21367	42
3.21733	42
3.22100	44
3.22467	45
3.22833	46
3.23200	46
3.23567	46
3.23933	45
3.24300	43
3.24667	41
3.25033	39
3.25400	37
3.25767	36
3.26133	34
3.26500	33
3.26867	33
3.27233	33
3.27600	32
3.27967	31
3.28333	30
3.28700	28
3.29067	26
3.29433	25
3.29800	24
3.30167	25
3.30533	23
3.30900	21
3.31267	20
3.31633	17
3.32000	16
3.32367	15
3.32733	14
3.33100	13
3.33467	11
3.33833	10
3.34200	10
3.34567	8
3.34933	6
3.35300	4
3.35667	3
3.36033	1
3.36400	1
3.36767	1
3.37133	1
3.37500	-0
3.37867	-2
3.38233	-4
3.38600	-7
3.38967	-10
3.39333	-12
3.39700	-14
3.40067	-14
3.40433	-14
3.40800	-14
3.41167	-14
3.41533	-15
3.41900	-14
3.42267	-15
3.42633	-17
3.43000	-16
3.43367	-17
3.43733	-19
3.44100	-20
3.44467	-22
3.44833	-21
3.45200	-22
3.45567	-26
3.45933	-28
3.46300	-26
3.46667	-26
3.47033	-27
3.47400	-28
3.47767	-31
3.48133	-33
3.48500	-36
3.48867	-38
3.49233	-37
3.49600	-37
3.49967	-36
3.50333	-36
3.50700	-35
3.51067	-34
3.51433	-36
3.51800	-40
3.52167	-43
3.52533	-42
3.52900	-41
3.53267	-41
3.53633	-43
3.54000	-45
3.54367	-47
3.54733	-49
3.55100	-49
3.55467	-50
3.55833	-49
3.56200	-50
3.56567	-51
3.56933	-52
3.57300	-53
3.57667	-55
3.58033	-56
3.58400	-56
3.58767	-55
3.59133	-54
3.59500	-56
3.59867	-56
3.60233	-56
3.60600	-54
3.60967	-53
3.61333	-53
3.61700	-55
3.62067	-57
3.62433	-61
3.62800	-63
3.63167	-64
3.63533	-65
3.63900	-66
3.64267	-66
3.64633	-65
3.65000	-65
3.65367	-65
3.65733	-66
3.66100	-67
3.66467	-68
3.66833	-70
3.67200	-73
3.67567	-71
3.67933	-68
3.68300	-67
3.68667	-69
3.69033	-74
3.69400	-79
3.69767	-82
3.70133	-84
3.70500	-83
3.70867	-81
3.71233	-77
3.71600	-75
3.71967	-76
3.72333	-77
3.72700	-79
3.73067	-81
3.73433	-83
3.73800	-86
3.74167	-88
3.74533	-88
3.74900	-86
3.75267	-84
3.75633	-83
3.76000	-84
3.76367	-86
3.76733	-88
3.77100	-88
3.77467	-90
3.77833	-92
3.78200	-94
3.78567	-94
3.78933	-93
3.79300	-92
3.79667	-90
3.80033	-87
3.80400	-85
3.80767	-85
3.81133	-88
3.81500	-89
3.81867	-90
3.82233	-89
3.82600	-91
3.82967	-91
3.83333	-92
3.83700	-91
3.84067	-93
3.84433	-94
3.84800	-98
3.85167	-103
3.85533	-104
3.85900	-102
3.86267	-96
3.86633	-91
3.87000	-92
3.87367	-94
3.87733	-93
3.88100	-93
3.88467	-93
3.88833	-95
3.89200	-95
3.89567	-95
3.89933	-96
3.90300	-96
3.90667	-97
3.91033	-98
3.91400	-98
3.91767	-96
3.92133	-95
3.92500	-96
3.92867	-98
3.93233	-100
3.93600	-101
3.93967	-98
3.94333	-98
3.94700	-99
3.95067	-98
3.95433	-99
3.95800	-100
3.96167	-100
3.96533	-101
3.96900	-103
3.97267	-104
3.97633	-103
3.98000	-101
3.98367	-102
3.98733	-104
3.99100	-106
3.99467	-106
3.99833	-107

[Status Trace (Column Oven Temperature)]
Interval(msec)	1000
# of Points	240
Start Time(min)	0.003
End Time(min)	3.986
Intensity Units	
Intensity Multiplier	1
R.Time (min)	Intensity
0.00272	35.01
0.01938	35.03
0.03605	35.03
0.05272	35.04
0.06938	35.05
0.08605	35.04
0.10272	35.04
0.11938	35.03
0.13605	35.02
0.15272	35.01
0.16938	35.00
0.18605	34.99
0.20272	34.99
0.21938	34.99
0.23605	34.99
0.25272	35.00
0.26938	35.03
0.28605	35.03
0.30272	35.03
0.31938	35.03
0.33605	35.01
0.35272	35.00
0.36938	34.98
0.38605	34.98
0.40272	34.98
0.41938	34.98
0.43605	34.98
0.45272	34.98
0.46938	34.97
0.48605	34.98
0.50272	34.98
0.51938	34.99
0.53605	35.00
0.55272	35.01
0.56938	35.01
0.58605	34.99
0.60272	34.98
0.61938	34.97
0.63605	34.96
0.65272	34.95
0.66938	34.95
0.68605	34.97
0.70272	34.98
0.71938	35.00
0.73605	35.00
0.75272	35.01
0.76938	35.01
0.78605	35.01
0.80272	35.00
0.81938	34.98
0.83605	34.97
0.85272	34.97
0.86938	34.97
0.88605	34.97
0.90272	34.97
0.91938	34.97
0.93605	34.97
0.95272	34.98
0.96938	34.98
0.98605	35.00
1.00272	34.99
1.01938	35.00
1.03605	35.00
1.05272	35.00
1.06938	35.00
1.08605	34.99
1.10272	34.98
1.11938	34.98
1.13605	34.98
1.15272	34.99
1.16938	34.99
1.18605	35.00
1.20272	35.01
1.21938	35.00
1.23605	34.99
1.25272	34.99
1.26938	34.98
1.28605	34.96
1.30272	34.96
1.31938	34.96
1.33605	34.97
1.35272	34.99
1.36938	35.00
1.38605	34.99
1.40272	34.99
1.41938	35.00
1.43605	34.99
1.45272	35.00
1.46938	35.00
1.48605	35.00
1.50272	34.99
1.51938	34.99
1.53605	34.98
1.55272	34.99
1.56938	34.99
1.58605	34.99
1.60272	35.03
1.61938	35.14
1.63605	35.31
1.65272	35.53
1.66938	35.84
1.68605	36.22
1.70272	36.56
1.71938	36.91
1.73605	37.23
1.75272	37.55
1.76938	37.90
1.78605	38.22
1.80272	38.55
1.81938	38.89
1.83605	39.22
1.85272	39.56
1.86938	39.89
1.88605	40.22
1.90272	40.54
1.91938	40.86
1.93605	41.20
1.95272	41.52
1.96938	41.86
1.98605	42.16
2.00272	42.49
2.01938	42.81
2.03605	43.14
2.05272	43.46
2.06938	43.78
2.08605	44.11
2.10272	44.44
2.11938	44.77
2.13605	45.09
2.15272	45.43
2.16938	45.75
2.18605	46.07
2.20272	46.41
2.21938	46.73
2.23605	47.05
2.25272	47.40
2.26938	47.71
2.28605	48.04
2.30272	48.37
2.31938	48.70
2.33605	49.06
2.35272	49.36
2.36938	49.57
2.38605	49.65
2.40272	49.65
2.41938	49.64
2.43605	49.66
2.45272	49.67
2.46938	49.68
2.48605	49.70
2.50272	49.71
2.51938	49.75
2.53605	49.75
2.55272	49.78
2.56938	49.78
2.58605	49.79
2.60272	49.80
2.61938	49.83
2.63605	49.83
2.65272	49.85
2.66938	49.84
2.68605	49.87
2.70272	49.87
2.71938	49.87
2.73605	49.86
2.75272	49.84
2.76938	49.86
2.78605	49.89
2.80272	49.90
2.81938	49.91
2.83605	49.91
2.85272	49.93
2.86938	49.92
2.88605	49.93
2.90272	49.93
2.91938	49.95
2.93605	49.96
2.95272	49.97
2.96938	49.99
2.98605	49.99
3.00272	49.99
3.01938	50.00
3.03605	50.01
3.05272	50.02
3.06938	50.02
3.08605	50.03
3.10272	50.04
3.11938	50.05
3.13605	50.05
3.15272	50.06
3.16938	50.06
3.18605	50.07
3.20272	50.07
3.21938	50.08
3.23605	50.09
3.25272	50.11
3.26938	50.11
3.28605	50.10
3.30272	50.09
3.31938	50.08
3.33605	50.08
3.35272	50.08
3.36938	50.07
3.38605	50.06
3.40272	50.05
3.41938	50.05
3.43605	50.05
3.45272	50.04
3.46938	50.04
3.48605	50.04
3.50272	50.05
3.51938	50.06
3.53605	50.06
3.55272	50.07
3.56938	50.07
3.58605	50.06
3.60272	50.06
3.61938	50.06
3.63605	50.07
3.65272	50.08
3.66938	50.08
3.68605	50.08
3.70272	50.08
3.71938	50.08
3.73605	50.08
3.75272	50.07
3.76938	50.06
3.78605	50.06
3.80272	50.06
3.81938	50.07
3.83605	50.07
3.85272	50.08
3.86938	50.08
3.88605	50.08
3.90272	50.08
3.91938	50.07
3.93605	50.07
3.95272	50.08
3.96938	50.07
3.98605	50.06

[Status Trace (Injection Unit Temperature)]
Interval(msec)	1000
# of Points	240
Start Time(min)	0.003
End Time(min)	3.986
Intensity Units	
Intensity Multiplier	1
R.Time (min)	Intensity
0.00272	99.98
0.01938	99.99
0.03605	99.99
0.05272	99.98
0.06938	99.99
0.08605	99.99
0.10272	99.98
0.11938	99.99
0.13605	99.98
0.15272	99.98
0.16938	99.99
0.18605	99.98
0.20272	99.99
0.21938	99.98
0.23605	99.99
0.25272	99.99
0.26938	99.99
0.28605	99.99
0.30272	99.99
0.31938	99.99
0.33605	99.99
0.35272	99.99
0.36938	99.99
0.38605	99.98
0.40272	99.99
0.41938	99.99
0.43605	99.99
0.45272	99.99
0.46938	99.99
0.48605	99.99
0.50272	99.99
0.51938	99.99
0.53605	99.99
0.55272	99.99
0.56938	99.99
0.58605	99.99
0.60272	99.99
0.61938	99.99
0.63605	99.99
0.65272	99.99
0.66938	99.99
0.68605	99.99
0.70272	99.99
0.71938	99.99
0.73605	99.99
0.75272	99.99
0.76938	99.99
0.78605	99.99
0.80272	99.99
0.81938	99.99
0.83605	99.99
0.85272	99.99
0.86938	99.99
0.88605	99.99
0.90272	99.99
0.91938	99.99
0.93605	99.99
0.95272	99.99
0.96938	99.99
0.98605	99.99
1.00272	99.99
1.01938	99.99
1.03605	99.99
1.05272	100.00
1.06938	99.99
1.08605	99.99
1.10272	99.99
1.11938	100.00
1.13605	99.99
1.15272	99.99
1.16938	100.00
1.18605	100.00
1.20272	100.00
1.21938	100.00
1.23605	100.00
1.25272	99.99
1.26938	100.00
1.28605	99.99
1.30272	100.00
1.31938	99.99
1.33605	100.00
1.35272	100.00
1.36938	100.00
1.38605	99.99
1.40272	99.99
1.41938	100.00
1.43605	99.99
1.45272	100.00
1.46938	99.99
1.48605	99.99
1.50272	99.99
1.51938	99.99
1.53605	99.99
1.55272	100.00
1.56938	99.99
1.58605	99.99
1.60272	99.99
1.61938	99.99
1.63605	99.99
1.65272	99.99
1.66938	99.99
1.68605	99.99
1.70272	99.99
1.71938	100.00
1.73605	99.99
1.75272	99.99
1.76938	99.99
1.78605	99.99
1.80272	99.99
1.81938	99.99
1.83605	99.99
1.85272	99.99
1.86938	99.99
1.88605	99.99
1.90272	99.99
1.91938	99.99
1.93605	99.98
1.95272	99.99
1.96938	99.99
1.98605	99.99
2.00272	99.99
2.01938	99.98
2.03605	99.98
2.05272	99.98
2.06938	99.99
2.08605	99.98
2.10272	99.98
2.11938	99.98
2.13605	99.98
2.15272	99.98
2.16938	99.98
2.18605	99.98
2.20272	99.98
2.21938	99.98
2.23605	99.98
2.25272	99.98
2.26938	99.98
2.28605	99.98
2.30272	99.98
2.31938	99.98
2.33605	99.98
2.35272	99.98
2.36938	99.98
2.38605	99.97
2.40272	99.98
2.41938	99.98
2.43605	99.98
2.45272	99.97
2.46938	99.98
2.48605	99.98
2.50272	99.98
2.51938	99.98
2.53605	99.98
2.55272	99.98
2.56938	99.98
2.58605	99.98
2.60272	99.98
2.61938	99.98
2.63605	99.98
2.65272	99.98
2.66938	99.98
2.68605	99.99
2.70272	99.99
2.71938	99.99
2.73605	99.98
2.75272	99.99
2.76938	99.99
2.78605	99.99
2.80272	99.99
2.81938	99.99
2.83605	100.00
2.85272	100.00
2.86938	100.00
2.88605	100.00
2.90272	100.00
2.91938	100.01
2.93605	100.00
2.95272	100.01
2.96938	100.01
2.98605	100.01
3.00272	100.01
3.01938	100.01
3.03605	100.01
3.05272	100.01
3.06938	100.01
3.08605	100.02
3.10272	100.01
3.11938	100.02
3.13605	100.02
3.15272	100.02
3.16938	100.02
3.18605	100.02
3.20272	100.02
3.21938	100.02
3.23605	100.03
3.25272	100.03
3.26938	100.03
3.28605	100.03
3.30272	100.03
3.31938	100.03
3.33605	100.03
3.35272	100.03
3.36938	100.03
3.38605	100.04
3.40272	100.03
3.41938	100.03
3.43605	100.03
3.45272	100.04
3.46938	100.03
3.48605	100.04
3.50272	100.04
3.51938	100.04
3.53605	100.04
3.55272	100.04
3.56938	100.04
3.58605	100.04
3.60272	100.04
3.61938	100.04
3.63605	100.04
3.65272	100.05
3.66938	100.05
3.68605	100.05
3.70272	100.04
3.71938	100.04
3.73605	100.05
3.75272	100.04
3.76938	100.05
3.78605	100.04
3.80272	100.05
3.81938	100.05
3.83605	100.05
3.85272	100.05
3.86938	100.05
3.88605	100.05
3.90272	100.05
3.91938	100.05
3.93605	100.05
3.95272	100.05
3.96938	100.05
3.98605	100.05

[Status Trace (Carrier Gas Pressure)]
Interval(msec)	1000
# of Points	240
Start Time(min)	0.003
End Time(min)	3.986
Intensity Units	
Intensity Multiplier	1
R.Time (min)	Intensity
0.00272	58.00
0.01938	56.29
0.03605	56.33
0.05272	58.47
0.06938	59.89
0.08605	58.31
0.10272	57.97
0.11938	58.00
0.13605	58.01
0.15272	58.01
0.16938	58.00
0.18605	58.00
0.20272	58.00
0.21938	58.00
0.23605	58.00
0.25272	58.00
0.26938	58.00
0.28605	58.00
0.30272	58.00
0.31938	58.00
0.33605	58.00
0.35272	58.00
0.36938	58.00
0.38605	58.00
0.40272	58.00
0.41938	58.00
0.43605	58.00
0.45272	58.00
0.46938	58.00
0.48605	58.00
0.50272	58.00
0.51938	58.00
0.53605	58.00
0.55272	58.00
0.56938	58.00
0.58605	58.00
0.60272	58.00
0.61938	58.00
0.63605	58.00
0.65272	58.00
0.66938	58.00
0.68605	58.00
0.70272	58.00
0.71938	58.00
0.73605	58.00
0.75272	58.00
0.76938	58.00
0.78605	58.00
0.80272	58.00
0.81938	58.00
0.83605	58.00
0.85272	58.00
0.86938	58.00
0.88605	58.00
0.90272	58.00
0.91938	58.00
0.93605	58.00
0.95272	58.00
0.96938	58.00
0.98605	58.00
1.00272	58.00
1.01938	58.00
1.03605	58.00
1.05272	58.00
1.06938	58.00
1.08605	58.00
1.10272	58.00
1.11938	58.00
1.13605	58.00
1.15272	58.00
1.16938	58.00
1.18605	58.00
1.20272	58.00
1.21938	58.00
1.23605	58.00
1.25272	58.00
1.26938	58.00
1.28605	58.00
1.30272	58.00
1.31938	58.00
1.33605	58.00
1.35272	58.00
1.36938	58.00
1.38605	58.00
1.40272	58.00
1.41938	58.00
1.43605	58.00
1.45272	58.00
1.46938	58.00
1.48605	58.00
1.50272	58.00
1.51938	58.00
1.53605	58.00
1.55272	58.00
1.56938	58.00
1.58605	58.00
1.60272	58.00
1.61938	58.00
1.63605	58.00
1.65272	58.00
1.66938	58.01
1.68605	58.01
1.70272	58.00
1.71938	58.00
1.73605	58.00
1.75272	58.00
1.76938	58.00
1.78605	58.00
1.80272	58.00
1.81938	58.00
1.83605	58.00
1.85272	58.00
1.86938	58.00
1.88605	58.00
1.90272	58.00
1.91938	58.00
1.93605	58.00
1.95272	58.00
1.96938	58.00
1.98605	58.00
2.00272	58.00
2.01938	58.00
2.03605	58.00
2.05272	58.00
2.06938	58.00
2.08605	58.00
2.10272	58.00
2.11938	58.00
2.13605	58.00
2.15272	58.00
2.16938	58.00
2.18605	58.00
2.20272	58.00
2.21938	58.00
2.23605	58.00
2.25272	58.00
2.26938	58.00
2.28605	58.00
2.30272	58.00
2.31938	58.00
2.33605	58.00
2.35272	58.00
2.36938	58.00
2.38605	57.99
2.40272	57.99
2.41938	58.00
2.43605	58.00
2.45272	58.00
2.46938	58.00
2.48605	58.00
2.50272	57.99
2.51938	58.02
2.53605	57.99
2.55272	58.00
2.56938	58.00
2.58605	58.00
2.60272	58.00
2.61938	58.00
2.63605	58.00
2.65272	58.00
2.66938	58.00
2.68605	58.00
2.70272	58.00
2.71938	58.00
2.73605	58.00
2.75272	58.00
2.76938	58.00
2.78605	58.00
2.80272	58.00
2.81938	58.00
2.83605	58.00
2.85272	58.00
2.86938	58.00
2.88605	58.00
2.90272	58.00
2.91938	58.00
2.93605	58.00
2.95272	58.00
2.96938	58.00
2.98605	58.00
3.00272	58.00
3.01938	58.00
3.03605	58.00
3.05272	58.00
3.06938	58.00
3.08605	58.00
3.10272	58.00
3.11938	58.00
3.13605	58.00
3.15272	58.00
3.16938	58.00
3.18605	58.00
3.20272	58.00
3.21938	58.00
3.23605	58.00
3.25272	58.00
3.26938	58.00
3.28605	58.00
3.30272	58.00
3.31938	58.00
3.33605	58.00
3.35272	58.00
3.36938	58.00
3.38605	58.00
3.40272	58.00
3.41938	58.00
3.43605	58.00
3.45272	58.00
3.46938	58.00
3.48605	58.00
3.50272	58.00
3.51938	58.00
3.53605	58.00
3.55272	58.00
3.56938	58.00
3.58605	58.00
3.60272	58.00
3.61938	58.00
3.63605	58.00
3.65272	58.00
3.66938	58.00
3.68605	58.00
3.70272	58.00
3.71938	58.00
3.73605	58.00
3.75272	58.00
3.76938	58.00
3.78605	58.00
3.80272	58.00
3.81938	58.00
3.83605	58.00
3.85272	58.00
3.86938	58.00
3.88605	58.00
3.90272	58.00
3.91938	58.00
3.93605	58.00
3.95272	58.00
3.96938	58.00
3.98605	58.00

[Status Trace (Carrier Gas Flow)]
Interval(msec)	1000
# of Points	240
Start Time(min)	0.003
End Time(min)	3.986
Intensity Units	
Intensity Multiplier	1
R.Time (min)	Intensity
0.00272	34.52
0.01938	34.61
0.03605	34.55
0.05272	34.56
0.06938	34.49
0.08605	34.50
0.10272	34.50
0.11938	34.53
0.13605	34.52
0.15272	34.51
0.16938	34.51
0.18605	34.52
0.20272	34.52
0.21938	34.51
0.23605	34.52
0.25272	34.53
0.26938	34.52
0.28605	34.52
0.30272	34.52
0.31938	34.53
0.33605	34.52
0.35272	34.52
0.36938	34.50
0.38605	34.50
0.40272	34.52
0.41938	34.52
0.43605	34.50
0.45272	34.53
0.46938	34.52
0.48605	34.53
0.50272	34.51
0.51938	34.53
0.53605	34.52
0.55272	34.53
0.56938	34.53
0.58605	34.50
0.60272	34.50
0.61938	34.50
0.63605	34.52
0.65272	34.50
0.66938	34.53
0.68605	34.52
0.70272	34.51
0.71938	34.52
0.73605	34.52
0.75272	34.51
0.76938	34.53
0.78605	34.52
0.80272	34.52
0.81938	34.52
0.83605	34.52
0.85272	34.52
0.86938	34.52
0.88605	34.51
0.90272	34.52
0.91938	34.52
0.93605	34.51
0.95272	34.52
0.96938	34.52
0.98605	34.52
1.00272	34.52
1.01938	34.51
1.03605	34.52
1.05272	34.52
1.06938	34.52
1.08605	34.52
1.10272	34.52
1.11938	34.52
1.13605	34.52
1.15272	34.52
1.16938	34.52
1.18605	34.52
1.20272	34.52
1.21938	34.52
1.23605	34.52
1.25272	34.52
1.26938	34.52
1.28605	34.51
1.30272	34.52
1.31938	34.52
1.33605	34.52
1.35272	34.52
1.36938	34.52
1.38605	34.52
1.40272	34.52
1.41938	34.52
1.43605	34.52
1.45272	34.52
1.46938	34.52
1.48605	34.52
1.50272	34.52
1.51938	34.52
1.53605	34.52
1.55272	34.52
1.56938	34.52
1.58605	34.52
1.60272	34.52
1.61938	34.52
1.63605	34.52
1.65272	34.52
1.66938	34.52
1.68605	34.52
1.70272	34.52
1.71938	34.52
1.73605	34.52
1.75272	34.52
1.76938	34.52
1.78605	34.52
1.80272	34.52
1.81938	34.52
1.83605	34.52
1.85272	34.52
1.86938	34.52
1.88605	34.52
1.90272	34.52
1.91938	34.52
1.93605	34.52
1.95272	34.52
1.96938	34.52
1.98605	34.52
2.00272	34.52
2.01938	34.52
2.03605	34.52
2.05272	34.52
2.06938	34.52
2.08605	34.52
2.10272	34.52
2.11938	34.52
2.13605	34.52
2.15272	34.52
2.16938	34.52
2.18605	34.52
2.20272	34.52
2.21938	34.52
2.23605	34.52
2.25272	34.52
2.26938	34.52
2.28605	34.52
2.30272	34.53
2.31938	34.52
2.33605	34.52
2.35272	34.50
2.36938	34.51
2.38605	34.51
2.40272	34.52
2.41938	34.52
2.43605	34.52
2.45272	34.52
2.46938	34.52
2.48605	34.52
2.50272	34.54
2.51938	34.52
2.53605	34.52
2.55272	34.52
2.56938	34.52
2.58605	34.51
2.60272	34.52
2.61938	34.52
2.63605	34.52
2.65272	34.52
2.66938	34.52
2.68605	34.52
2.70272	34.52
2.71938	34.52
2.73605	34.52
2.75272	34.52
2.76938	34.52
2.78605	34.52
2.80272	34.52
2.81938	34.52
2.83605	34.52
2.85272	34.52
2.86938	34.52
2.88605	34.52
2.90272	34.52
2.91938	34.52
2.93605	34.52
2.95272	34.52
2.96938	34.52
2.98605	34.52
3.00272	34.52
3.01938	34.52
3.03605	34.52
3.05272	34.52
3.06938	34.52
3.08605	34.52
3.10272	34.52
3.11938	34.52
3.13605	34.52
3.15272	34.52
3.16938	34.52
3.18605	34.52
3.20272	34.52
3.21938	34.52
3.23605	34.52
3.25272	34.52
3.26938	34.52
3.28605	34.52
3.30272	34.52
3.31938	34.52
3.33605	34.52
3.35272	34.53
3.36938	34.51
3.38605	34.52
3.40272	34.52
3.41938	34.51
3.43605	34.52
3.45272	34.52
3.46938	34.52
3.48605	34.53
3.50272	34.51
3.51938	34.52
3.53605	34.50
3.55272	34.52
3.56938	34.51
3.58605	34.52
3.60272	34.53
3.61938	34.52
3.63605	34.52
3.65272	34.52
3.66938	34.52
3.68605	34.52
3.70272	34.52
3.71938	34.52
3.73605	34.52
3.75272	34.52
3.76938	34.52
3.78605	34.52
3.80272	34.52
3.81938	34.52
3.83605	34.52
3.85272	34.52
3.86938	34.52
3.88605	34.52
3.90272	34.52
3.91938	34.52
3.93605	34.52
3.95272	34.52
3.96938	34.52
3.98605	34.52

[Status Trace (Column Flow)]
Interval(msec)	1000
# of Points	240
Start Time(min)	0.003
End Time(min)	3.986
Intensity Units	
Intensity Multiplier	1
R.Time (min)	Intensity
0.00272	5.50
0.01938	5.30
0.03605	5.30
0.05272	5.55
0.06938	5.72
0.08605	5.53
0.10272	5.49
0.11938	5.50
0.13605	5.50
0.15272	5.50
0.16938	5.50
0.18605	5.50
0.20272	5.50
0.21938	5.50
0.23605	5.50
0.25272	5.50
0.26938	5.50
0.28605	5.50
0.30272	5.50
0.31938	5.50
0.33605	5.50
0.35272	5.50
0.36938	5.50
0.38605	5.50
0.40272	5.50
0.41938	5.50
0.43605	5.50
0.45272	5.50
0.46938	5.50
0.48605	5.50
0.50272	5.50
0.51938	5.50
0.53605	5.50
0.55272	5.50
0.56938	5.50
0.58605	5.50
0.60272	5.50
0.61938	5.50
0.63605	5.50
0.65272	5.50
0.66938	5.50
0.68605	5.50
0.70272	5.50
0.71938	5.50
0.73605	5.50
0.75272	5.50
0.76938	5.50
0.78605	5.50
0.80272	5.50
0.81938	5.50
0.83605	5.50
0.85272	5.50
0.86938	5.50
0.88605	5.50
0.90272	5.50
0.91938	5.50
0.93605	5.50
0.95272	5.50
0.96938	5.50
0.98605	5.50
1.00272	5.50
1.01938	5.50
1.03605	5.50
1.05272	5.50
1.06938	5.50
1.08605	5.50
1.10272	5.50
1.11938	5.50
1.13605	5.50
1.15272	5.50
1.16938	5.50
1.18605	5.50
1.20272	5.50
1.21938	5.50
1.23605	5.50
1.25272	5.50
1.26938	5.50
1.28605	5.50
1.30272	5.50
1.31938	5.50
1.33605	5.50
1.35272	5.50
1.36938	5.50
1.38605	5.50
1.40272	5.50
1.41938	5.50
1.43605	5.50
1.45272	5.50
1.46938	5.50
1.48605	5.50
1.50272	5.50
1.51938	5.50
1.53605	5.50
1.55272	5.50
1.56938	5.50
1.58605	5.50
1.60272	5.50
1.61938	5.50
1.63605	5.49
1.65272	5.48
1.66938	5.47
1.68605	5.46
1.70272	5.45
1.71938	5.44
1.73605	5.43
1.75272	5.42
1.76938	5.41
1.78605	5.40
1.80272	5.39
1.81938	5.38
1.83605	5.37
1.85272	5.36
1.86938	5.35
1.88605	5.34
1.90272	5.33
1.91938	5.32
1.93605	5.31
1.95272	5.30
1.96938	5.29
1.98605	5.28
2.00272	5.27
2.01938	5.26
2.03605	5.25
2.05272	5.24
2.06938	5.24
2.08605	5.23
2.10272	5.22
2.11938	5.21
2.13605	5.20
2.15272	5.19
2.16938	5.18
2.18605	5.17
2.20272	5.16
2.21938	5.15
2.23605	5.14
2.25272	5.13
2.26938	5.12
2.28605	5.11
2.30272	5.10
2.31938	5.10
2.33605	5.09
2.35272	5.08
2.36938	5.07
2.38605	5.07
2.40272	5.07
2.41938	5.07
2.43605	5.07
2.45272	5.07
2.46938	5.07
2.48605	5.07
2.50272	5.07
2.51938	5.07
2.53605	5.07
2.55272	5.07
2.56938	5.07
2.58605	5.07
2.60272	5.07
2.61938	5.06
2.63605	5.06
2.65272	5.06
2.66938	5.06
2.68605	5.06
2.70272	5.06
2.71938	5.06
2.73605	5.06
2.75272	5.06
2.76938	5.06
2.78605	5.06
2.80272	5.06
2.81938	5.06
2.83605	5.06
2.85272	5.06
2.86938	5.06
2.88605	5.06
2.90272	5.06
2.91938	5.06
2.93605	5.06
2.95272	5.06
2.96938	5.06
2.98605	5.06
3.00272	5.06
3.01938	5.06
3.03605	5.06
3.05272	5.06
3.06938	5.06
3.08605	5.06
3.10272	5.06
3.11938	5.06
3.13605	5.06
3.15272	5.06
3.16938	5.06
3.18605	5.06
3.20272	5.06
3.21938	5.06
3.23605	5.06
3.25272	5.06
3.26938	5.06
3.28605	5.06
3.30272	5.06
3.31938	5.06
3.33605	5.06
3.35272	5.06
3.36938	5.06
3.38605	5.06
3.40272	5.06
3.41938	5.06
3.43605	5.06
3.45272	5.06
3.46938	5.06
3.48605	5.06
3.50272	5.06
3.51938	5.06
3.53605	5.06
3.55272	5.06
3.56938	5.06
3.58605	5.06
3.60272	5.06
3.61938	5.06
3.63605	5.06
3.65272	5.06
3.66938	5.06
3.68605	5.06
3.70272	5.06
3.71938	5.06
3.73605	5.06
3.75272	5.06
3.76938	5.06
3.78605	5.06
3.80272	5.06
3.81938	5.06
3.83605	5.06
3.85272	5.06
3.86938	5.06
3.88605	5.06
3.90272	5.06
3.91938	5.06
3.93605	5.06
3.95272	5.06
3.96938	5.06
3.98605	5.06

[Status Trace (Linear Velocity)]
Interval(msec)	1000
# of Points	240
Start Time(min)	0.003
End Time(min)	3.986
Intensity Units	
Intensity Multiplier	1
R.Time (min)	Intensity
0.00272	39.01
0.01938	37.89
0.03605	37.91
0.05272	39.32
0.06938	40.25
0.08605	39.21
0.10272	38.99
0.11938	39.01
0.13605	39.02
0.15272	39.01
0.16938	39.01
0.18605	39.01
0.20272	39.01
0.21938	39.01
0.23605	39.01
0.25272	39.01
0.26938	39.01
0.28605	39.01
0.30272	39.01
0.31938	39.01
0.33605	39.01
0.35272	39.01
0.36938	39.01
0.38605	39.01
0.40272	39.01
0.41938	39.01
0.43605	39.01
0.45272	39.01
0.46938	39.01
0.48605	39.01
0.50272	39.01
0.51938	39.01
0.53605	39.01
0.55272	39.01
0.56938	39.01
0.58605	39.01
0.60272	39.01
0.61938	39.01
0.63605	39.02
0.65272	39.02
0.66938	39.02
0.68605	39.01
0.70272	39.01
0.71938	39.01
0.73605	39.01
0.75272	39.01
0.76938	39.01
0.78605	39.01
0.80272	39.01
0.81938	39.01
0.83605	39.01
0.85272	39.01
0.86938	39.01
0.88605	39.01
0.90272	39.01
0.91938	39.01
0.93605	39.01
0.95272	39.01
0.96938	39.01
0.98605	39.01
1.00272	39.01
1.01938	39.01
1.03605	39.01
1.05272	39.01
1.06938	39.01
1.08605	39.01
1.10272	39.01
1.11938	39.01
1.13605	39.01
1.15272	39.01
1.16938	39.01
1.18605	39.01
1.20272	39.01
1.21938	39.01
1.23605	39.01
1.25272	39.01
1.26938	39.01
1.28605	39.02
1.30272	39.02
1.31938	39.02
1.33605	39.01
1.35272	39.01
1.36938	39.01
1.38605	39.01
1.40272	39.01
1.41938	39.01
1.43605	39.01
1.45272	39.01
1.46938	39.01
1.48605	39.01
1.50272	39.01
1.51938	39.01
1.53605	39.01
1.55272	39.01
1.56938	39.01
1.58605	39.01
1.60272	39.01
1.61938	39.00
1.63605	38.98
1.65272	38.96
1.66938	38.93
1.68605	38.90
1.70272	38.86
1.71938	38.83
1.73605	38.80
1.75272	38.77
1.76938	38.74
1.78605	38.70
1.80272	38.67
1.81938	38.64
1.83605	38.61
1.85272	38.58
1.86938	38.55
1.88605	38.52
1.90272	38.49
1.91938	38.46
1.93605	38.42
1.95272	38.39
1.96938	38.36
1.98605	38.34
2.00272	38.31
2.01938	38.28
2.03605	38.25
2.05272	38.22
2.06938	38.19
2.08605	38.16
2.10272	38.13
2.11938	38.10
2.13605	38.07
2.15272	38.04
2.16938	38.01
2.18605	37.98
2.20272	37.95
2.21938	37.92
2.23605	37.89
2.25272	37.86
2.26938	37.83
2.28605	37.80
2.30272	37.77
2.31938	37.74
2.33605	37.71
2.35272	37.68
2.36938	37.66
2.38605	37.65
2.40272	37.65
2.41938	37.66
2.43605	37.66
2.45272	37.66
2.46938	37.66
2.48605	37.65
2.50272	37.65
2.51938	37.67
2.53605	37.64
2.55272	37.65
2.56938	37.65
2.58605	37.65
2.60272	37.65
2.61938	37.64
2.63605	37.64
2.65272	37.64
2.66938	37.64
2.68605	37.64
2.70272	37.64
2.71938	37.64
2.73605	37.64
2.75272	37.64
2.76938	37.64
2.78605	37.64
2.80272	37.64
2.81938	37.64
2.83605	37.64
2.85272	37.63
2.86938	37.63
2.88605	37.63
2.90272	37.63
2.91938	37.63
2.93605	37.63
2.95272	37.63
2.96938	37.63
2.98605	37.63
3.00272	37.63
3.01938	37.63
3.03605	37.63
3.05272	37.63
3.06938	37.63
3.08605	37.63
3.10272	37.62
3.11938	37.62
3.13605	37.62
3.15272	37.62
3.16938	37.62
3.18605	37.62
3.20272	37.62
3.21938	37.62
3.23605	37.62
3.25272	37.62
3.26938	37.62
3.28605	37.62
3.30272	37.62
3.31938	37.62
3.33605	37.62
3.35272	37.62
3.36938	37.62
3.38605	37.62
3.40272	37.62
3.41938	37.62
3.43605	37.62
3.45272	37.62
3.46938	37.62
3.48605	37.62
3.50272	37.62
3.51938	37.62
3.53605	37.62
3.55272	37.62
3.56938	37.62
3.58605	37.62
3.60272	37.62
3.61938	37.62
3.63605	37.62
3.65272	37.62
3.66938	37.62
3.68605	37.62
3.70272	37.62
3.71938	37.62
3.73605	37.62
3.75272	37.62
3.76938	37.62
3.78605	37.62
3.80272	37.62
3.81938	37.62
3.83605	37.62
3.85272	37.62
3.86938	37.62
3.88605	37.62
3.90272	37.62
3.91938	37.62
3.93605	37.62
3.95272	37.62
3.96938	37.62
3.98605	37.62

