[Header]
Application Name	LabSolutions
Version	5.110
Data File Name	C:\Users\User\Desktop\GC Analyses\Jack\UIC Prairie Sampling\7.9.22\220909_040.gcd
Output Date	9/28/2022
Output Time	11:29:51 AM

[File Information]
Type	Data File
Generated	9/13/2022 12:15:10 PM
Generated by	System Administrator
Modified	9/13/2022 12:19:36 PM
Modified by	System Administrator

[Sample Information]
Operator Name	System Administrator
Acquired	9/13/2022 12:15:35 PM
Sample Type	1:Standard
Level	1
Sample Name	220909_Run
Sample ID	220909_Run
ISTD Amount1	1
ISTD Amount2	1
ISTD Amount3	1
ISTD Amount4	1
ISTD Amount5	1
ISTD Amount6	1
ISTD Amount7	1
ISTD Amount8	1
ISTD Amount9	1
ISTD Amount10	1
ISTD Amount11	1
ISTD Amount12	1
ISTD Amount13	1
ISTD Amount14	1
ISTD Amount15	1
ISTD Amount16	1
ISTD Amount17	1
ISTD Amount18	1
ISTD Amount19	1
ISTD Amount20	1
ISTD Amount21	1
ISTD Amount22	1
ISTD Amount23	1
ISTD Amount24	1
ISTD Amount25	1
ISTD Amount26	1
ISTD Amount27	1
ISTD Amount28	1
ISTD Amount29	1
ISTD Amount30	1
ISTD Amount31	1
ISTD Amount32	1
Sample Amount	1
Dilution Factor	1
Vial#	1
Injection Volume	1
Injection Count	1
Bar Code	

[Original Files]
Data File	C:\Users\User\Desktop\GC Analyses\Jack\220909\220909_040.gcd
Method File	C:\LabSolutions\Data\GHG_4min_2022\ghg3_togas_w_acet_4 min_new_int.gcm
Batch File	
Report Format File	c:\LabSolutions\System\DEFAULT.lsr

[File Description]


[Configuration]
Instrument Name	C0B7VH3-Instrument1
Instrument #	1
Line #	1
# of Detectors	3
Detector ID	DET#1	DET#2	DET#3
Detector Name	FID	PTCD	ECD
# of Channels	1	1	1

[Peak Table(Ch1)]
# of Peaks	3
Peak#	R.Time	I.Time	F.Time	Area	Height	A/H	Conc.	Mark	ID#	Name	k'	Plate #	Plate Ht.	Tailing	Resolution	Sep.Factor	Area Ratio	Height Ratio	Conc. %	Norm Conc.
1	1.476	1.435	1.538	16281	7336	2.219	100.000	   	1	CO	0.000	8414	17.828	1.244	0.000	0.000	0	0	16.667	16.667
2	1.571	1.538	1.619	4499	2341	1.922	100.000	 V 	2	CH4	0.065	11971	12.530	1.167	1.566	0.000	0	0	16.667	16.667
3	2.000	1.952	2.264	1197044	591524	2.024	400.000	   	3	CO2	0.355	18068	8.302	1.192	7.336	5.500	0	0	66.667	66.667

[Peak Table(Ch2)]
# of Peaks	0

[Peak Table(Ch3)]
# of Peaks	3
Peak#	R.Time	I.Time	F.Time	Area	Height	A/H	Conc.	Mark	ID#	Name	k'	Plate #	Plate Ht.	Tailing	Resolution	Sep.Factor	Area Ratio	Height Ratio	Conc. %	Norm Conc.
1	2.495	1.311	2.653	10038	313	32.101	0.000	   			0.000	142	1055.532	0.575	0.000	0.000	0	0	0.000	0.000
2	2.880	2.667	3.023	21314	5164	4.128	1.000	   	1	N2O	0.154	12810	11.710	1.789	0.820	0.000	0	0	50.000	50.000
3	3.199	3.023	3.995	32821	934	35.130	1.000	 V 	2	SF6	0.282	202	742.756	0.000	0.637	1.829	0	0	50.000	50.000

[Compound Results(Ch1)]
# of IDs	6
ID#	Name	R.Time	Area	Height	Conc.	Curve	3rd	2nd	1st	Constant	Area Ratio	Height Ratio	Conc. %	Norm Conc.
1	CO	1.476	16281	7336	100.000	Linear	0.000000e+00	0.000000e+00	1.628079e+002	0.000000e+00	0	0	16.667	16.667
2	CH4	1.571	4499	2341	100.000	Linear	0.000000e+00	0.000000e+00	4.499298e+001	0.000000e+00	0	0	16.667	16.667
3	CO2	2.000	1197044	591524	400.000	Linear	0.000000e+00	0.000000e+00	2.992610e+003	0.000000e+00	0	0	66.667	66.667
4	Ethylene	0.000	0	0	0.000	Linear	0.000000e+00	0.000000e+00	0.000000e+00	0.000000e+00	0	0	0.000	0.000
5	Acetylene	0.000	0	0	0.000	Linear	0.000000e+00	0.000000e+00	0.000000e+00	0.000000e+00	0	0	0.000	0.000
6	Ethane	0.000	0	0	0.000	Linear	0.000000e+00	0.000000e+00	0.000000e+00	0.000000e+00	0	0	0.000	0.000

[Compound Results(Ch2)]
# of IDs	5
ID#	Name	R.Time	Area	Height	Conc.	Curve	3rd	2nd	1st	Constant	Area Ratio	Height Ratio	Conc. %	Norm Conc.
1	Hydrogen	0.000	0	0	0.000	Linear	0.000000e+00	0.000000e+00	0.000000e+00	0.000000e+00	0	0	0.000	0.000
2	Oxygen	0.000	0	0	0.000	Linear	0.000000e+00	0.000000e+00	0.000000e+00	0.000000e+00	0	0	0.000	0.000
3	Nitrogen	0.000	0	0	0.000	Linear	0.000000e+00	0.000000e+00	0.000000e+00	0.000000e+00	0	0	0.000	0.000
4	Methane	0.000	0	0	0.000	Linear	0.000000e+00	0.000000e+00	0.000000e+00	0.000000e+00	0	0	0.000	0.000
5	Carbon Monoxide	0.000	0	0	0.000	Linear	0.000000e+00	0.000000e+00	0.000000e+00	0.000000e+00	0	0	0.000	0.000

[Compound Results(Ch3)]
# of IDs	2
ID#	Name	R.Time	Area	Height	Conc.	Curve	3rd	2nd	1st	Constant	Area Ratio	Height Ratio	Conc. %	Norm Conc.
1	N2O	2.880	21314	5164	1.000	Linear	0.000000e+00	0.000000e+00	2.131405e+004	0.000000e+00	0	0	50.000	50.000
2	SF6	3.199	32821	934	1.000	Linear	0.000000e+00	0.000000e+00	3.282113e+004	0.000000e+00	0	0	50.000	50.000

[Group Results(Ch1)]
# of Groups	0

[Group Results(Ch2)]
# of Groups	0

[Group Results(Ch3)]
# of Groups	0

[Chromatogram (Ch1)]
Interval(msec)	220
# of Points	1091
Start Time(min)	0.002
End Time(min)	3.998
R.Time (min)	Intensity
0.00167	-20
0.00533	-16
0.00900	-10
0.01267	-9
0.01633	-10
0.02000	-14
0.02367	-19
0.02733	-22
0.03100	-24
0.03467	-26
0.03833	-26
0.04200	-21
0.04567	-16
0.04933	-15
0.05300	-15
0.05667	-16
0.06033	-20
0.06400	-24
0.06767	-23
0.07133	-21
0.07500	-21
0.07867	-23
0.08233	-21
0.08600	-18
0.08967	-13
0.09333	-8
0.09700	-6
0.10067	-7
0.10433	-9
0.10800	-7
0.11167	-6
0.11533	-7
0.11900	-11
0.12267	-15
0.12633	-20
0.13000	-23
0.13367	-26
0.13733	-30
0.14100	-34
0.14467	-38
0.14833	-42
0.15200	-43
0.15567	-40
0.15933	-35
0.16300	-29
0.16667	-21
0.17033	-15
0.17400	-12
0.17767	-13
0.18133	-16
0.18500	-18
0.18867	-18
0.19233	-15
0.19600	-11
0.19967	-11
0.20333	-12
0.20700	-15
0.21067	-17
0.21433	-17
0.21800	-17
0.22167	-17
0.22533	-18
0.22900	-21
0.23267	-27
0.23633	-35
0.24000	-41
0.24367	-42
0.24733	-41
0.25100	-39
0.25467	-36
0.25833	-34
0.26200	-34
0.26567	-34
0.26933	-35
0.27300	-40
0.27667	-45
0.28033	-47
0.28400	-44
0.28767	-37
0.29133	-33
0.29500	-33
0.29867	-35
0.30233	-37
0.30600	-39
0.30967	-42
0.31333	-42
0.31700	-38
0.32067	-33
0.32433	-29
0.32800	-30
0.33167	-32
0.33533	-29
0.33900	-26
0.34267	-22
0.34633	-22
0.35000	-27
0.35367	-36
0.35733	-42
0.36100	-42
0.36467	-33
0.36833	-23
0.37200	-20
0.37567	-21
0.37933	-25
0.38300	-30
0.38667	-37
0.39033	-42
0.39400	-45
0.39767	-46
0.40133	-45
0.40500	-44
0.40867	-45
0.41233	-47
0.41600	-47
0.41967	-44
0.42333	-41
0.42700	-40
0.43067	-39
0.43433	-39
0.43800	-37
0.44167	-35
0.44533	-32
0.44900	-34
0.45267	-37
0.45633	-41
0.46000	-46
0.46367	-48
0.46733	-46
0.47100	-42
0.47467	-34
0.47833	-28
0.48200	-28
0.48567	-33
0.48933	-40
0.49300	-44
0.49667	-47
0.50033	-51
0.50400	-56
0.50767	-59
0.51133	-55
0.51500	-47
0.51867	-38
0.52233	-30
0.52600	-26
0.52967	-26
0.53333	-28
0.53700	-28
0.54067	-30
0.54433	-35
0.54800	-38
0.55167	-41
0.55533	-41
0.55900	-43
0.56267	-47
0.56633	-48
0.57000	-49
0.57367	-49
0.57733	-45
0.58100	-37
0.58467	-29
0.58833	-28
0.59200	-32
0.59567	-38
0.59933	-45
0.60300	-50
0.60667	-55
0.61033	-59
0.61400	-61
0.61767	-63
0.62133	-61
0.62500	-58
0.62867	-53
0.63233	-46
0.63600	-40
0.63967	-35
0.64333	-28
0.64700	-23
0.65067	-18
0.65433	-16
0.65800	-19
0.66167	-25
0.66533	-31
0.66900	-34
0.67267	-34
0.67633	-37
0.68000	-44
0.68367	-52
0.68733	-58
0.69100	-61
0.69467	-65
0.69833	-71
0.70200	-74
0.70567	-72
0.70933	-68
0.71300	-63
0.71667	-56
0.72033	-51
0.72400	-50
0.72767	-49
0.73133	-51
0.73500	-53
0.73867	-57
0.74233	-63
0.74600	-66
0.74967	-65
0.75333	-62
0.75700	-55
0.76067	-45
0.76433	-37
0.76800	-34
0.77167	-33
0.77533	-37
0.77900	-40
0.78267	-40
0.78633	-41
0.79000	-43
0.79367	-45
0.79733	-45
0.80100	-45
0.80467	-44
0.80833	-48
0.81200	-53
0.81567	-60
0.81933	-68
0.82300	-75
0.82667	-80
0.83033	-81
0.83400	-80
0.83767	-76
0.84133	-73
0.84500	-73
0.84867	-76
0.85233	-78
0.85600	-76
0.85967	-71
0.86333	-67
0.86700	-65
0.87067	-65
0.87433	-67
0.87800	-70
0.88167	-70
0.88533	-69
0.88900	-67
0.89267	-65
0.89633	-64
0.90000	-66
0.90367	-66
0.90733	-66
0.91100	-64
0.91467	-61
0.91833	-59
0.92200	-59
0.92567	-56
0.92933	-56
0.93300	-57
0.93667	-58
0.94033	-59
0.94400	-59
0.94767	-62
0.95133	-67
0.95500	-70
0.95867	-71
0.96233	-69
0.96600	-65
0.96967	-62
0.97333	-59
0.97700	-54
0.98067	-49
0.98433	-47
0.98800	-47
0.99167	-51
0.99533	-59
0.99900	-68
1.00267	-73
1.00633	-77
1.01000	-81
1.01367	-83
1.01733	-81
1.02100	-79
1.02467	-79
1.02833	-79
1.03200	-77
1.03567	-78
1.03933	-81
1.04300	-83
1.04667	-85
1.05033	-85
1.05400	-82
1.05767	-77
1.06133	-73
1.06500	-72
1.06867	-74
1.07233	-76
1.07600	-79
1.07967	-82
1.08333	-83
1.08700	-83
1.09067	-82
1.09433	-81
1.09800	-75
1.10167	-69
1.10533	-63
1.10900	-60
1.11267	-60
1.11633	-55
1.12000	-49
1.12367	-49
1.12733	-55
1.13100	-63
1.13467	-71
1.13833	-79
1.14200	-86
1.14567	-92
1.14933	-101
1.15300	-112
1.15667	-120
1.16033	-126
1.16400	-129
1.16767	-129
1.17133	-124
1.17500	-119
1.17867	-116
1.18233	-113
1.18600	-111
1.18967	-106
1.19333	-102
1.19700	-96
1.20067	-91
1.20433	-86
1.20800	-82
1.21167	-84
1.21533	-88
1.21900	-93
1.22267	-96
1.22633	-94
1.23000	-86
1.23367	-73
1.23733	-63
1.24100	-59
1.24467	-65
1.24833	-77
1.25200	-88
1.25567	-95
1.25933	-101
1.26300	-104
1.26667	-105
1.27033	-104
1.27400	-100
1.27767	-96
1.28133	-101
1.28500	-113
1.28867	-124
1.29233	-134
1.29600	-139
1.29967	-137
1.30333	-132
1.30700	-124
1.31067	-116
1.31433	-111
1.31800	-108
1.32167	-109
1.32533	-112
1.32900	-115
1.33267	-112
1.33633	-107
1.34000	-107
1.34367	-110
1.34733	-111
1.35100	-108
1.35467	-104
1.35833	-99
1.36200	-95
1.36567	-93
1.36933	-94
1.37300	-96
1.37667	-100
1.38033	-104
1.38400	-105
1.38767	-104
1.39133	-105
1.39500	-107
1.39867	-104
1.40233	-97
1.40600	-88
1.40967	-86
1.41333	-90
1.41700	-98
1.42067	-101
1.42433	-101
1.42800	-99
1.43167	-97
1.43533	-98
1.43900	-90
1.44267	-15
1.44633	263
1.45000	846
1.45367	1755
1.45733	2960
1.46100	4293
1.46467	5516
1.46833	6463
1.47200	7049
1.47567	7227
1.47933	6989
1.48300	6371
1.48667	5477
1.49033	4458
1.49400	3459
1.49767	2581
1.50133	1870
1.50500	1322
1.50867	913
1.51233	611
1.51600	389
1.51967	227
1.52333	108
1.52700	23
1.53067	-39
1.53433	-81
1.53800	-104
1.54167	-89
1.54533	21
1.54900	283
1.55267	688
1.55633	1155
1.56000	1587
1.56367	1926
1.56733	2142
1.57100	2203
1.57467	2086
1.57833	1806
1.58200	1429
1.58567	1040
1.58933	698
1.59300	432
1.59667	239
1.60033	106
1.60400	17
1.60767	-47
1.61133	-94
1.61500	-128
1.61867	-152
1.62233	-164
1.62600	-165
1.62967	-160
1.63333	-156
1.63700	-154
1.64067	-156
1.64433	-161
1.64800	-166
1.65167	-168
1.65533	-164
1.65900	-159
1.66267	-162
1.66633	-169
1.67000	-179
1.67367	-184
1.67733	-183
1.68100	-183
1.68467	-183
1.68833	-181
1.69200	-177
1.69567	-171
1.69933	-162
1.70300	-155
1.70667	-153
1.71033	-154
1.71400	-154
1.71767	-157
1.72133	-161
1.72500	-169
1.72867	-176
1.73233	-183
1.73600	-186
1.73967	-183
1.74333	-175
1.74700	-165
1.75067	-161
1.75433	-159
1.75800	-160
1.76167	-164
1.76533	-168
1.76900	-163
1.77267	-153
1.77633	-142
1.78000	-134
1.78367	-130
1.78733	-131
1.79100	-138
1.79467	-145
1.79833	-151
1.80200	-153
1.80567	-154
1.80933	-156
1.81300	-156
1.81667	-155
1.82033	-152
1.82400	-152
1.82767	-156
1.83133	-157
1.83500	-152
1.83867	-146
1.84233	-141
1.84600	-138
1.84967	-136
1.85333	-135
1.85700	-133
1.86067	-132
1.86433	-132
1.86800	-134
1.87167	-139
1.87533	-147
1.87900	-155
1.88267	-162
1.88633	-166
1.89000	-165
1.89367	-163
1.89733	-160
1.90100	-156
1.90467	-153
1.90833	-153
1.91200	-155
1.91567	-156
1.91933	-155
1.92300	-154
1.92667	-155
1.93033	-158
1.93400	-155
1.93767	-148
1.94133	-139
1.94500	-136
1.94867	-136
1.95233	-133
1.95600	-99
1.95967	110
1.96333	1196
1.96700	5612
1.97067	19352
1.97433	52318
1.97800	114128
1.98167	206136
1.98533	317126
1.98900	427957
1.99267	519462
1.99633	576688
2.00000	591415
2.00367	562980
2.00733	498883
2.01100	413469
2.01467	322906
2.01833	239977
2.02200	171599
2.02567	119348
2.02933	81531
2.03300	55182
2.03667	37288
2.04033	25330
2.04400	17409
2.04767	12171
2.05133	8691
2.05500	6355
2.05867	4771
2.06233	3676
2.06600	2901
2.06967	2338
2.07333	1924
2.07700	1611
2.08067	1367
2.08433	1176
2.08800	1025
2.09167	908
2.09533	814
2.09900	734
2.10267	661
2.10633	595
2.11000	538
2.11367	489
2.11733	448
2.12100	411
2.12467	377
2.12833	347
2.13200	323
2.13567	306
2.13933	291
2.14300	272
2.14667	253
2.15033	234
2.15400	220
2.15767	209
2.16133	199
2.16500	189
2.16867	179
2.17233	170
2.17600	163
2.17967	155
2.18333	144
2.18700	130
2.19067	117
2.19433	107
2.19800	103
2.20167	101
2.20533	95
2.20900	86
2.21267	78
2.21633	69
2.22000	58
2.22367	50
2.22733	47
2.23100	45
2.23467	42
2.23833	38
2.24200	36
2.24567	35
2.24933	35
2.25300	33
2.25667	28
2.26033	21
2.26400	18
2.26767	18
2.27133	16
2.27500	15
2.27867	15
2.28233	18
2.28600	19
2.28967	19
2.29333	17
2.29700	10
2.30067	1
2.30433	-6
2.30800	-8
2.31167	-8
2.31533	-7
2.31900	-7
2.32267	-7
2.32633	-6
2.33000	-5
2.33367	-5
2.33733	-7
2.34100	-12
2.34467	-16
2.34833	-18
2.35200	-18
2.35567	-19
2.35933	-22
2.36300	-23
2.36667	-24
2.37033	-27
2.37400	-28
2.37767	-25
2.38133	-21
2.38500	-17
2.38867	-14
2.39233	-12
2.39600	-14
2.39967	-19
2.40333	-25
2.40700	-30
2.41067	-32
2.41433	-30
2.41800	-26
2.42167	-23
2.42533	-23
2.42900	-25
2.43267	-26
2.43633	-25
2.44000	-25
2.44367	-28
2.44733	-33
2.45100	-37
2.45467	-39
2.45833	-39
2.46200	-39
2.46567	-41
2.46933	-42
2.47300	-41
2.47667	-40
2.48033	-37
2.48400	-33
2.48767	-33
2.49133	-35
2.49500	-34
2.49867	-32
2.50233	-28
2.50600	-26
2.50967	-24
2.51333	-24
2.51700	-27
2.52067	-31
2.52433	-37
2.52800	-42
2.53167	-46
2.53533	-46
2.53900	-42
2.54267	-38
2.54633	-35
2.55000	-37
2.55367	-40
2.55733	-44
2.56100	-51
2.56467	-60
2.56833	-67
2.57200	-69
2.57567	-65
2.57933	-61
2.58300	-61
2.58667	-60
2.59033	-62
2.59400	-63
2.59767	-63
2.60133	-61
2.60500	-57
2.60867	-56
2.61233	-57
2.61600	-58
2.61967	-60
2.62333	-64
2.62700	-70
2.63067	-74
2.63433	-75
2.63800	-74
2.64167	-70
2.64533	-65
2.64900	-64
2.65267	-66
2.65633	-68
2.66000	-71
2.66367	-72
2.66733	-72
2.67100	-71
2.67467	-71
2.67833	-71
2.68200	-71
2.68567	-70
2.68933	-72
2.69300	-76
2.69667	-78
2.70033	-79
2.70400	-80
2.70767	-84
2.71133	-87
2.71500	-91
2.71867	-96
2.72233	-99
2.72600	-100
2.72967	-101
2.73333	-101
2.73700	-98
2.74067	-94
2.74433	-92
2.74800	-91
2.75167	-89
2.75533	-83
2.75900	-75
2.76267	-73
2.76633	-76
2.77000	-80
2.77367	-84
2.77733	-83
2.78100	-80
2.78467	-77
2.78833	-77
2.79200	-80
2.79567	-81
2.79933	-83
2.80300	-87
2.80667	-93
2.81033	-98
2.81400	-100
2.81767	-98
2.82133	-95
2.82500	-91
2.82867	-92
2.83233	-94
2.83600	-94
2.83967	-88
2.84333	-80
2.84700	-74
2.85067	-72
2.85433	-77
2.85800	-88
2.86167	-98
2.86533	-104
2.86900	-109
2.87267	-111
2.87633	-110
2.88000	-111
2.88367	-111
2.88733	-109
2.89100	-108
2.89467	-108
2.89833	-107
2.90200	-104
2.90567	-103
2.90933	-101
2.91300	-96
2.91667	-91
2.92033	-90
2.92400	-91
2.92767	-96
2.93133	-101
2.93500	-104
2.93867	-104
2.94233	-102
2.94600	-102
2.94967	-103
2.95333	-103
2.95700	-102
2.96067	-99
2.96433	-92
2.96800	-86
2.97167	-79
2.97533	-76
2.97900	-78
2.98267	-82
2.98633	-87
2.99000	-90
2.99367	-94
2.99733	-98
3.00100	-100
3.00467	-101
3.00833	-101
3.01200	-99
3.01567	-96
3.01933	-92
3.02300	-88
3.02667	-87
3.03033	-90
3.03400	-96
3.03767	-104
3.04133	-109
3.04500	-113
3.04867	-115
3.05233	-114
3.05600	-112
3.05967	-110
3.06333	-111
3.06700	-114
3.07067	-115
3.07433	-113
3.07800	-112
3.08167	-110
3.08533	-109
3.08900	-109
3.09267	-112
3.09633	-115
3.10000	-117
3.10367	-117
3.10733	-113
3.11100	-107
3.11467	-105
3.11833	-108
3.12200	-110
3.12567	-113
3.12933	-117
3.13300	-121
3.13667	-123
3.14033	-121
3.14400	-121
3.14767	-123
3.15133	-124
3.15500	-123
3.15867	-121
3.16233	-119
3.16600	-117
3.16967	-116
3.17333	-114
3.17700	-110
3.18067	-107
3.18433	-105
3.18800	-104
3.19167	-105
3.19533	-104
3.19900	-102
3.20267	-103
3.20633	-108
3.21000	-111
3.21367	-110
3.21733	-110
3.22100	-107
3.22467	-102
3.22833	-99
3.23200	-97
3.23567	-99
3.23933	-104
3.24300	-112
3.24667	-122
3.25033	-131
3.25400	-137
3.25767	-138
3.26133	-137
3.26500	-135
3.26867	-131
3.27233	-128
3.27600	-124
3.27967	-119
3.28333	-117
3.28700	-117
3.29067	-113
3.29433	-109
3.29800	-106
3.30167	-104
3.30533	-106
3.30900	-112
3.31267	-116
3.31633	-117
3.32000	-115
3.32367	-111
3.32733	-109
3.33100	-108
3.33467	-104
3.33833	-99
3.34200	-99
3.34567	-108
3.34933	-119
3.35300	-125
3.35667	-126
3.36033	-125
3.36400	-125
3.36767	-126
3.37133	-125
3.37500	-124
3.37867	-122
3.38233	-122
3.38600	-121
3.38967	-119
3.39333	-118
3.39700	-119
3.40067	-123
3.40433	-122
3.40800	-117
3.41167	-110
3.41533	-106
3.41900	-106
3.42267	-110
3.42633	-114
3.43000	-117
3.43367	-117
3.43733	-114
3.44100	-111
3.44467	-110
3.44833	-108
3.45200	-109
3.45567	-110
3.45933	-109
3.46300	-107
3.46667	-105
3.47033	-106
3.47400	-109
3.47767	-112
3.48133	-115
3.48500	-118
3.48867	-121
3.49233	-124
3.49600	-128
3.49967	-131
3.50333	-130
3.50700	-124
3.51067	-116
3.51433	-108
3.51800	-102
3.52167	-97
3.52533	-97
3.52900	-99
3.53267	-103
3.53633	-107
3.54000	-110
3.54367	-114
3.54733	-122
3.55100	-128
3.55467	-128
3.55833	-125
3.56200	-122
3.56567	-119
3.56933	-114
3.57300	-109
3.57667	-105
3.58033	-106
3.58400	-110
3.58767	-116
3.59133	-122
3.59500	-130
3.59867	-138
3.60233	-141
3.60600	-140
3.60967	-141
3.61333	-142
3.61700	-137
3.62067	-125
3.62433	-113
3.62800	-107
3.63167	-105
3.63533	-106
3.63900	-111
3.64267	-120
3.64633	-131
3.65000	-139
3.65367	-138
3.65733	-134
3.66100	-134
3.66467	-139
3.66833	-146
3.67200	-151
3.67567	-153
3.67933	-148
3.68300	-139
3.68667	-128
3.69033	-120
3.69400	-115
3.69767	-111
3.70133	-109
3.70500	-112
3.70867	-115
3.71233	-118
3.71600	-121
3.71967	-123
3.72333	-122
3.72700	-120
3.73067	-120
3.73433	-123
3.73800	-122
3.74167	-119
3.74533	-115
3.74900	-115
3.75267	-119
3.75633	-123
3.76000	-122
3.76367	-117
3.76733	-112
3.77100	-109
3.77467	-107
3.77833	-105
3.78200	-104
3.78567	-100
3.78933	-96
3.79300	-95
3.79667	-99
3.80033	-106
3.80400	-111
3.80767	-112
3.81133	-109
3.81500	-103
3.81867	-98
3.82233	-98
3.82600	-99
3.82967	-98
3.83333	-94
3.83700	-91
3.84067	-93
3.84433	-99
3.84800	-107
3.85167	-115
3.85533	-118
3.85900	-117
3.86267	-116
3.86633	-115
3.87000	-115
3.87367	-117
3.87733	-119
3.88100	-121
3.88467	-122
3.88833	-121
3.89200	-120
3.89567	-117
3.89933	-115
3.90300	-113
3.90667	-113
3.91033	-117
3.91400	-119
3.91767	-117
3.92133	-112
3.92500	-109
3.92867	-107
3.93233	-104
3.93600	-103
3.93967	-104
3.94333	-104
3.94700	-103
3.95067	-103
3.95433	-102
3.95800	-100
3.96167	-102
3.96533	-109
3.96900	-116
3.97267	-119
3.97633	-121
3.98000	-119
3.98367	-113
3.98733	-103
3.99100	-95
3.99467	-94
3.99833	-95

[Chromatogram (Ch2)]
Interval(msec)	220
# of Points	1091
Start Time(min)	0.002
End Time(min)	3.998
R.Time (min)	Intensity
0.00167	1
0.00533	1
0.00900	1
0.01267	1
0.01633	1
0.02000	0
0.02367	0
0.02733	-0
0.03100	-0
0.03467	-0
0.03833	-0
0.04200	-0
0.04567	-0
0.04933	-0
0.05300	0
0.05667	0
0.06033	1
0.06400	1
0.06767	0
0.07133	0
0.07500	-0
0.07867	-1
0.08233	-1
0.08600	-1
0.08967	-2
0.09333	-2
0.09700	-2
0.10067	-2
0.10433	-2
0.10800	-2
0.11167	-2
0.11533	-1
0.11900	-1
0.12267	-1
0.12633	-1
0.13000	-0
0.13367	-0
0.13733	-0
0.14100	-0
0.14467	-0
0.14833	0
0.15200	0
0.15567	1
0.15933	1
0.16300	1
0.16667	1
0.17033	1
0.17400	1
0.17767	1
0.18133	1
0.18500	1
0.18867	0
0.19233	0
0.19600	0
0.19967	0
0.20333	-0
0.20700	-0
0.21067	-0
0.21433	-1
0.21800	-1
0.22167	-1
0.22533	-0
0.22900	0
0.23267	0
0.23633	0
0.24000	1
0.24367	1
0.24733	1
0.25100	1
0.25467	1
0.25833	1
0.26200	1
0.26567	2
0.26933	2
0.27300	2
0.27667	2
0.28033	2
0.28400	2
0.28767	2
0.29133	2
0.29500	2
0.29867	2
0.30233	2
0.30600	2
0.30967	2
0.31333	2
0.31700	2
0.32067	2
0.32433	2
0.32800	2
0.33167	2
0.33533	1
0.33900	1
0.34267	1
0.34633	1
0.35000	1
0.35367	1
0.35733	0
0.36100	0
0.36467	0
0.36833	-0
0.37200	-1
0.37567	-1
0.37933	-2
0.38300	-2
0.38667	-2
0.39033	-3
0.39400	-3
0.39767	-3
0.40133	-4
0.40500	-4
0.40867	-4
0.41233	-4
0.41600	-4
0.41967	-4
0.42333	-3
0.42700	-3
0.43067	-3
0.43433	-3
0.43800	-3
0.44167	-2
0.44533	-2
0.44900	-2
0.45267	-1
0.45633	-1
0.46000	-1
0.46367	-1
0.46733	-0
0.47100	-0
0.47467	-0
0.47833	-0
0.48200	-0
0.48567	-0
0.48933	-0
0.49300	-0
0.49667	-1
0.50033	-1
0.50400	-1
0.50767	-1
0.51133	-1
0.51500	-1
0.51867	-1
0.52233	-1
0.52600	-1
0.52967	-0
0.53333	-0
0.53700	-0
0.54067	-1
0.54433	-1
0.54800	-1
0.55167	-2
0.55533	-2
0.55900	-3
0.56267	-4
0.56633	-4
0.57000	-5
0.57367	-5
0.57733	-5
0.58100	-5
0.58467	-6
0.58833	-6
0.59200	-6
0.59567	-6
0.59933	-6
0.60300	-5
0.60667	-5
0.61033	-5
0.61400	-5
0.61767	-4
0.62133	-4
0.62500	-4
0.62867	-3
0.63233	-3
0.63600	-2
0.63967	-2
0.64333	-2
0.64700	-2
0.65067	-2
0.65433	-2
0.65800	-2
0.66167	-2
0.66533	-2
0.66900	-2
0.67267	-2
0.67633	-2
0.68000	-2
0.68367	-2
0.68733	-2
0.69100	-2
0.69467	-2
0.69833	-2
0.70200	-3
0.70567	-3
0.70933	-3
0.71300	-3
0.71667	-3
0.72033	-2
0.72400	-2
0.72767	-2
0.73133	-2
0.73500	-2
0.73867	-2
0.74233	-2
0.74600	-2
0.74967	-2
0.75333	-2
0.75700	-2
0.76067	-1
0.76433	-1
0.76800	-1
0.77167	-1
0.77533	-1
0.77900	-0
0.78267	-0
0.78633	0
0.79000	0
0.79367	1
0.79733	1
0.80100	1
0.80467	2
0.80833	2
0.81200	2
0.81567	2
0.81933	2
0.82300	2
0.82667	2
0.83033	2
0.83400	2
0.83767	2
0.84133	2
0.84500	2
0.84867	2
0.85233	2
0.85600	1
0.85967	1
0.86333	1
0.86700	1
0.87067	1
0.87433	1
0.87800	1
0.88167	1
0.88533	1
0.88900	1
0.89267	1
0.89633	1
0.90000	0
0.90367	0
0.90733	0
0.91100	1
0.91467	1
0.91833	0
0.92200	0
0.92567	0
0.92933	0
0.93300	-0
0.93667	-0
0.94033	-1
0.94400	-1
0.94767	-1
0.95133	-2
0.95500	-2
0.95867	-2
0.96233	-2
0.96600	-2
0.96967	-2
0.97333	-2
0.97700	-2
0.98067	-2
0.98433	-2
0.98800	-2
0.99167	-2
0.99533	-2
0.99900	-2
1.00267	-2
1.00633	-2
1.01000	-2
1.01367	-2
1.01733	-2
1.02100	-2
1.02467	-2
1.02833	-2
1.03200	-2
1.03567	-2
1.03933	-1
1.04300	-1
1.04667	-1
1.05033	-1
1.05400	-1
1.05767	-1
1.06133	-1
1.06500	-1
1.06867	-1
1.07233	-1
1.07600	-1
1.07967	-1
1.08333	-0
1.08700	-1
1.09067	-1
1.09433	-1
1.09800	-1
1.10167	-1
1.10533	-1
1.10900	-1
1.11267	-1
1.11633	-1
1.12000	-1
1.12367	-1
1.12733	-1
1.13100	-2
1.13467	-1
1.13833	-1
1.14200	-1
1.14567	-1
1.14933	-1
1.15300	-1
1.15667	-1
1.16033	-1
1.16400	-1
1.16767	-1
1.17133	-1
1.17500	-1
1.17867	-1
1.18233	-1
1.18600	-1
1.18967	-2
1.19333	-2
1.19700	-3
1.20067	-3
1.20433	-3
1.20800	-3
1.21167	-4
1.21533	-4
1.21900	-4
1.22267	-4
1.22633	-4
1.23000	-4
1.23367	-4
1.23733	-4
1.24100	-4
1.24467	-4
1.24833	-4
1.25200	-4
1.25567	-4
1.25933	-5
1.26300	-5
1.26667	-5
1.27033	-5
1.27400	-5
1.27767	-6
1.28133	-6
1.28500	-6
1.28867	-6
1.29233	-6
1.29600	-6
1.29967	-6
1.30333	-5
1.30700	-5
1.31067	-5
1.31433	-4
1.31800	-4
1.32167	-4
1.32533	-3
1.32900	-3
1.33267	-3
1.33633	-3
1.34000	-4
1.34367	-4
1.34733	-5
1.35100	-5
1.35467	-6
1.35833	-6
1.36200	-6
1.36567	-6
1.36933	-6
1.37300	-6
1.37667	-5
1.38033	-5
1.38400	-4
1.38767	-4
1.39133	-4
1.39500	-3
1.39867	-3
1.40233	-3
1.40600	-3
1.40967	-3
1.41333	-3
1.41700	-3
1.42067	-3
1.42433	-3
1.42800	-3
1.43167	-3
1.43533	-4
1.43900	-4
1.44267	-4
1.44633	-4
1.45000	-4
1.45367	-4
1.45733	-3
1.46100	-3
1.46467	-2
1.46833	-2
1.47200	-2
1.47567	-2
1.47933	-2
1.48300	-2
1.48667	-2
1.49033	-3
1.49400	-3
1.49767	-3
1.50133	-3
1.50500	-3
1.50867	-3
1.51233	-4
1.51600	-4
1.51967	-4
1.52333	-4
1.52700	-3
1.53067	-3
1.53433	-3
1.53800	-3
1.54167	-3
1.54533	-3
1.54900	-3
1.55267	-3
1.55633	-3
1.56000	-2
1.56367	-2
1.56733	-2
1.57100	-1
1.57467	-1
1.57833	-1
1.58200	-1
1.58567	-1
1.58933	-1
1.59300	-1
1.59667	-2
1.60033	-3
1.60400	-4
1.60767	-5
1.61133	-7
1.61500	-9
1.61867	-11
1.62233	-14
1.62600	-17
1.62967	-20
1.63333	-23
1.63700	-26
1.64067	-30
1.64433	-34
1.64800	-38
1.65167	-42
1.65533	-46
1.65900	-50
1.66267	-54
1.66633	-58
1.67000	-63
1.67367	-68
1.67733	-74
1.68100	-79
1.68467	-84
1.68833	-89
1.69200	-94
1.69567	-97
1.69933	-101
1.70300	-104
1.70667	-106
1.71033	-108
1.71400	-110
1.71767	-111
1.72133	-112
1.72500	-112
1.72867	-113
1.73233	-113
1.73600	-113
1.73967	-112
1.74333	-112
1.74700	-112
1.75067	-111
1.75433	-111
1.75800	-112
1.76167	-112
1.76533	-113
1.76900	-114
1.77267	-116
1.77633	-117
1.78000	-118
1.78367	-119
1.78733	-120
1.79100	-121
1.79467	-121
1.79833	-121
1.80200	-122
1.80567	-122
1.80933	-123
1.81300	-124
1.81667	-124
1.82033	-124
1.82400	-124
1.82767	-124
1.83133	-124
1.83500	-124
1.83867	-124
1.84233	-123
1.84600	-123
1.84967	-123
1.85333	-122
1.85700	-122
1.86067	-122
1.86433	-122
1.86800	-122
1.87167	-122
1.87533	-122
1.87900	-122
1.88267	-122
1.88633	-122
1.89000	-122
1.89367	-122
1.89733	-122
1.90100	-122
1.90467	-121
1.90833	-121
1.91200	-121
1.91567	-121
1.91933	-121
1.92300	-121
1.92667	-121
1.93033	-120
1.93400	-120
1.93767	-120
1.94133	-120
1.94500	-120
1.94867	-120
1.95233	-120
1.95600	-119
1.95967	-119
1.96333	-118
1.96700	-117
1.97067	-116
1.97433	-116
1.97800	-116
1.98167	-116
1.98533	-117
1.98900	-117
1.99267	-117
1.99633	-117
2.00000	-117
2.00367	-116
2.00733	-116
2.01100	-116
2.01467	-116
2.01833	-115
2.02200	-114
2.02567	-113
2.02933	-113
2.03300	-112
2.03667	-111
2.04033	-111
2.04400	-110
2.04767	-110
2.05133	-109
2.05500	-109
2.05867	-109
2.06233	-109
2.06600	-109
2.06967	-109
2.07333	-110
2.07700	-110
2.08067	-110
2.08433	-109
2.08800	-109
2.09167	-108
2.09533	-108
2.09900	-107
2.10267	-107
2.10633	-106
2.11000	-106
2.11367	-106
2.11733	-106
2.12100	-106
2.12467	-106
2.12833	-106
2.13200	-106
2.13567	-105
2.13933	-105
2.14300	-104
2.14667	-104
2.15033	-104
2.15400	-103
2.15767	-103
2.16133	-102
2.16500	-102
2.16867	-102
2.17233	-102
2.17600	-101
2.17967	-101
2.18333	-100
2.18700	-100
2.19067	-99
2.19433	-99
2.19800	-99
2.20167	-99
2.20533	-99
2.20900	-98
2.21267	-98
2.21633	-98
2.22000	-97
2.22367	-97
2.22733	-97
2.23100	-96
2.23467	-96
2.23833	-96
2.24200	-95
2.24567	-95
2.24933	-95
2.25300	-95
2.25667	-95
2.26033	-95
2.26400	-94
2.26767	-94
2.27133	-93
2.27500	-93
2.27867	-93
2.28233	-93
2.28600	-93
2.28967	-93
2.29333	-92
2.29700	-92
2.30067	-92
2.30433	-91
2.30800	-91
2.31167	-90
2.31533	-90
2.31900	-91
2.32267	-91
2.32633	-92
2.33000	-92
2.33367	-92
2.33733	-91
2.34100	-90
2.34467	-89
2.34833	-88
2.35200	-88
2.35567	-87
2.35933	-86
2.36300	-85
2.36667	-84
2.37033	-82
2.37400	-80
2.37767	-78
2.38133	-75
2.38500	-73
2.38867	-69
2.39233	-66
2.39600	-62
2.39967	-57
2.40333	-52
2.40700	-48
2.41067	-43
2.41433	-39
2.41800	-35
2.42167	-32
2.42533	-29
2.42900	-26
2.43267	-23
2.43633	-21
2.44000	-18
2.44367	-16
2.44733	-14
2.45100	-12
2.45467	-10
2.45833	-8
2.46200	-6
2.46567	-5
2.46933	-4
2.47300	-3
2.47667	-2
2.48033	-1
2.48400	-0
2.48767	1
2.49133	2
2.49500	3
2.49867	3
2.50233	4
2.50600	5
2.50967	6
2.51333	7
2.51700	8
2.52067	9
2.52433	9
2.52800	9
2.53167	9
2.53533	10
2.53900	10
2.54267	10
2.54633	11
2.55000	12
2.55367	13
2.55733	13
2.56100	14
2.56467	14
2.56833	14
2.57200	14
2.57567	13
2.57933	13
2.58300	13
2.58667	13
2.59033	13
2.59400	13
2.59767	13
2.60133	14
2.60500	14
2.60867	14
2.61233	15
2.61600	15
2.61967	15
2.62333	15
2.62700	16
2.63067	16
2.63433	16
2.63800	17
2.64167	17
2.64533	17
2.64900	18
2.65267	18
2.65633	18
2.66000	19
2.66367	20
2.66733	20
2.67100	21
2.67467	21
2.67833	21
2.68200	21
2.68567	20
2.68933	20
2.69300	19
2.69667	19
2.70033	19
2.70400	19
2.70767	20
2.71133	20
2.71500	20
2.71867	21
2.72233	22
2.72600	22
2.72967	23
2.73333	23
2.73700	23
2.74067	24
2.74433	24
2.74800	24
2.75167	24
2.75533	24
2.75900	24
2.76267	24
2.76633	24
2.77000	24
2.77367	24
2.77733	24
2.78100	24
2.78467	24
2.78833	23
2.79200	23
2.79567	23
2.79933	23
2.80300	23
2.80667	23
2.81033	23
2.81400	23
2.81767	23
2.82133	23
2.82500	23
2.82867	23
2.83233	23
2.83600	23
2.83967	23
2.84333	22
2.84700	20
2.85067	16
2.85433	11
2.85800	3
2.86167	-9
2.86533	-24
2.86900	-44
2.87267	-67
2.87633	-95
2.88000	-126
2.88367	-162
2.88733	-201
2.89100	-243
2.89467	-287
2.89833	-334
2.90200	-382
2.90567	-432
2.90933	-482
2.91300	-532
2.91667	-582
2.92033	-632
2.92400	-680
2.92767	-728
2.93133	-775
2.93500	-824
2.93867	-877
2.94233	-936
2.94600	-999
2.94967	-1053
2.95333	-1089
2.95700	-1099
2.96067	-1082
2.96433	-1042
2.96800	-983
2.97167	-912
2.97533	-834
2.97900	-753
2.98267	-673
2.98633	-596
2.99000	-524
2.99367	-458
2.99733	-398
3.00100	-344
3.00467	-296
3.00833	-253
3.01200	-216
3.01567	-183
3.01933	-155
3.02300	-131
3.02667	-110
3.03033	-92
3.03400	-77
3.03767	-63
3.04133	-52
3.04500	-42
3.04867	-34
3.05233	-27
3.05600	-21
3.05967	-16
3.06333	-12
3.06700	-9
3.07067	-6
3.07433	-3
3.07800	-1
3.08167	1
3.08533	3
3.08900	5
3.09267	6
3.09633	8
3.10000	9
3.10367	10
3.10733	11
3.11100	12
3.11467	12
3.11833	13
3.12200	14
3.12567	14
3.12933	15
3.13300	15
3.13667	16
3.14033	16
3.14400	16
3.14767	17
3.15133	17
3.15500	17
3.15867	17
3.16233	17
3.16600	17
3.16967	17
3.17333	18
3.17700	18
3.18067	18
3.18433	19
3.18800	19
3.19167	19
3.19533	19
3.19900	19
3.20267	19
3.20633	19
3.21000	19
3.21367	19
3.21733	20
3.22100	20
3.22467	20
3.22833	20
3.23200	21
3.23567	21
3.23933	21
3.24300	22
3.24667	22
3.25033	23
3.25400	23
3.25767	23
3.26133	24
3.26500	24
3.26867	24
3.27233	24
3.27600	25
3.27967	25
3.28333	25
3.28700	25
3.29067	25
3.29433	25
3.29800	25
3.30167	25
3.30533	25
3.30900	26
3.31267	26
3.31633	26
3.32000	26
3.32367	27
3.32733	27
3.33100	27
3.33467	28
3.33833	28
3.34200	28
3.34567	28
3.34933	29
3.35300	29
3.35667	29
3.36033	29
3.36400	28
3.36767	28
3.37133	28
3.37500	28
3.37867	28
3.38233	28
3.38600	28
3.38967	28
3.39333	28
3.39700	28
3.40067	28
3.40433	28
3.40800	28
3.41167	28
3.41533	28
3.41900	28
3.42267	28
3.42633	28
3.43000	27
3.43367	27
3.43733	27
3.44100	27
3.44467	27
3.44833	27
3.45200	27
3.45567	27
3.45933	27
3.46300	27
3.46667	26
3.47033	26
3.47400	26
3.47767	26
3.48133	26
3.48500	25
3.48867	25
3.49233	25
3.49600	25
3.49967	24
3.50333	24
3.50700	24
3.51067	24
3.51433	24
3.51800	24
3.52167	24
3.52533	24
3.52900	24
3.53267	24
3.53633	24
3.54000	24
3.54367	24
3.54733	24
3.55100	24
3.55467	24
3.55833	24
3.56200	24
3.56567	24
3.56933	24
3.57300	24
3.57667	24
3.58033	24
3.58400	24
3.58767	24
3.59133	24
3.59500	24
3.59867	24
3.60233	24
3.60600	24
3.60967	25
3.61333	25
3.61700	25
3.62067	25
3.62433	26
3.62800	26
3.63167	26
3.63533	26
3.63900	26
3.64267	26
3.64633	26
3.65000	26
3.65367	26
3.65733	26
3.66100	26
3.66467	26
3.66833	26
3.67200	26
3.67567	26
3.67933	25
3.68300	25
3.68667	25
3.69033	25
3.69400	25
3.69767	24
3.70133	24
3.70500	24
3.70867	24
3.71233	24
3.71600	24
3.71967	24
3.72333	24
3.72700	24
3.73067	24
3.73433	24
3.73800	24
3.74167	24
3.74533	24
3.74900	24
3.75267	24
3.75633	24
3.76000	24
3.76367	24
3.76733	24
3.77100	24
3.77467	25
3.77833	25
3.78200	25
3.78567	25
3.78933	25
3.79300	25
3.79667	25
3.80033	25
3.80400	24
3.80767	24
3.81133	24
3.81500	24
3.81867	24
3.82233	24
3.82600	25
3.82967	25
3.83333	25
3.83700	26
3.84067	26
3.84433	26
3.84800	26
3.85167	26
3.85533	26
3.85900	26
3.86267	26
3.86633	27
3.87000	27
3.87367	27
3.87733	27
3.88100	27
3.88467	27
3.88833	27
3.89200	26
3.89567	27
3.89933	27
3.90300	27
3.90667	27
3.91033	27
3.91400	26
3.91767	26
3.92133	26
3.92500	26
3.92867	26
3.93233	26
3.93600	26
3.93967	26
3.94333	26
3.94700	26
3.95067	26
3.95433	25
3.95800	26
3.96167	26
3.96533	26
3.96900	26
3.97267	26
3.97633	26
3.98000	26
3.98367	26
3.98733	26
3.99100	26
3.99467	26
3.99833	26

[Chromatogram (Ch3)]
Interval(msec)	220
# of Points	1091
Start Time(min)	0.002
End Time(min)	3.998
R.Time (min)	Intensity
0.00167	-0
0.00533	-1
0.00900	-3
0.01267	-4
0.01633	-3
0.02000	-0
0.02367	1
0.02733	0
0.03100	-1
0.03467	-0
0.03833	-1
0.04200	-0
0.04567	1
0.04933	1
0.05300	1
0.05667	1
0.06033	0
0.06400	-2
0.06767	-3
0.07133	-1
0.07500	0
0.07867	1
0.08233	3
0.08600	6
0.08967	5
0.09333	5
0.09700	5
0.10067	7
0.10433	6
0.10800	4
0.11167	4
0.11533	5
0.11900	5
0.12267	7
0.12633	7
0.13000	6
0.13367	3
0.13733	1
0.14100	1
0.14467	2
0.14833	3
0.15200	4
0.15567	6
0.15933	7
0.16300	9
0.16667	9
0.17033	6
0.17400	5
0.17767	5
0.18133	7
0.18500	9
0.18867	12
0.19233	14
0.19600	14
0.19967	12
0.20333	9
0.20700	7
0.21067	8
0.21433	8
0.21800	7
0.22167	7
0.22533	6
0.22900	6
0.23267	5
0.23633	3
0.24000	2
0.24367	4
0.24733	6
0.25100	6
0.25467	5
0.25833	4
0.26200	5
0.26567	5
0.26933	5
0.27300	5
0.27667	7
0.28033	7
0.28400	8
0.28767	8
0.29133	9
0.29500	7
0.29867	7
0.30233	7
0.30600	7
0.30967	6
0.31333	9
0.31700	8
0.32067	8
0.32433	7
0.32800	6
0.33167	7
0.33533	7
0.33900	8
0.34267	8
0.34633	8
0.35000	8
0.35367	9
0.35733	12
0.36100	12
0.36467	10
0.36833	8
0.37200	5
0.37567	5
0.37933	6
0.38300	8
0.38667	8
0.39033	6
0.39400	6
0.39767	7
0.40133	10
0.40500	10
0.40867	9
0.41233	11
0.41600	12
0.41967	13
0.42333	12
0.42700	12
0.43067	11
0.43433	10
0.43800	10
0.44167	10
0.44533	11
0.44900	12
0.45267	12
0.45633	13
0.46000	13
0.46367	13
0.46733	10
0.47100	7
0.47467	7
0.47833	6
0.48200	5
0.48567	6
0.48933	7
0.49300	9
0.49667	10
0.50033	11
0.50400	8
0.50767	6
0.51133	5
0.51500	3
0.51867	4
0.52233	7
0.52600	10
0.52967	9
0.53333	9
0.53700	11
0.54067	10
0.54433	9
0.54800	9
0.55167	9
0.55533	8
0.55900	8
0.56267	6
0.56633	9
0.57000	9
0.57367	9
0.57733	10
0.58100	8
0.58467	6
0.58833	4
0.59200	3
0.59567	5
0.59933	7
0.60300	8
0.60667	8
0.61033	9
0.61400	10
0.61767	12
0.62133	14
0.62500	12
0.62867	11
0.63233	10
0.63600	8
0.63967	7
0.64333	8
0.64700	8
0.65067	8
0.65433	8
0.65800	7
0.66167	8
0.66533	9
0.66900	10
0.67267	12
0.67633	11
0.68000	11
0.68367	11
0.68733	12
0.69100	11
0.69467	9
0.69833	9
0.70200	9
0.70567	10
0.70933	9
0.71300	8
0.71667	10
0.72033	11
0.72400	11
0.72767	11
0.73133	11
0.73500	11
0.73867	11
0.74233	12
0.74600	12
0.74967	14
0.75333	14
0.75700	14
0.76067	12
0.76433	13
0.76800	15
0.77167	16
0.77533	15
0.77900	15
0.78267	16
0.78633	16
0.79000	14
0.79367	12
0.79733	11
0.80100	10
0.80467	10
0.80833	11
0.81200	12
0.81567	12
0.81933	12
0.82300	11
0.82667	11
0.83033	10
0.83400	9
0.83767	9
0.84133	10
0.84500	10
0.84867	10
0.85233	12
0.85600	13
0.85967	13
0.86333	15
0.86700	15
0.87067	16
0.87433	17
0.87800	18
0.88167	17
0.88533	16
0.88900	15
0.89267	15
0.89633	13
0.90000	13
0.90367	13
0.90733	12
0.91100	12
0.91467	13
0.91833	12
0.92200	10
0.92567	10
0.92933	12
0.93300	12
0.93667	12
0.94033	11
0.94400	12
0.94767	13
0.95133	13
0.95500	11
0.95867	11
0.96233	13
0.96600	13
0.96967	12
0.97333	14
0.97700	16
0.98067	18
0.98433	19
0.98800	20
0.99167	20
0.99533	21
0.99900	19
1.00267	18
1.00633	17
1.01000	16
1.01367	17
1.01733	17
1.02100	17
1.02467	17
1.02833	15
1.03200	14
1.03567	13
1.03933	15
1.04300	17
1.04667	18
1.05033	19
1.05400	20
1.05767	18
1.06133	18
1.06500	18
1.06867	17
1.07233	15
1.07600	13
1.07967	14
1.08333	13
1.08700	13
1.09067	14
1.09433	18
1.09800	20
1.10167	21
1.10533	21
1.10900	19
1.11267	19
1.11633	18
1.12000	19
1.12367	18
1.12733	17
1.13100	19
1.13467	18
1.13833	17
1.14200	17
1.14567	17
1.14933	18
1.15300	19
1.15667	20
1.16033	20
1.16400	20
1.16767	18
1.17133	18
1.17500	18
1.17867	18
1.18233	20
1.18600	20
1.18967	19
1.19333	19
1.19700	19
1.20067	20
1.20433	19
1.20800	19
1.21167	16
1.21533	14
1.21900	15
1.22267	18
1.22633	18
1.23000	17
1.23367	17
1.23733	18
1.24100	19
1.24467	19
1.24833	20
1.25200	21
1.25567	18
1.25933	18
1.26300	20
1.26667	21
1.27033	21
1.27400	22
1.27767	21
1.28133	21
1.28500	19
1.28867	17
1.29233	16
1.29600	14
1.29967	13
1.30333	13
1.30700	13
1.31067	16
1.31433	19
1.31800	22
1.32167	23
1.32533	24
1.32900	24
1.33267	23
1.33633	23
1.34000	22
1.34367	20
1.34733	19
1.35100	21
1.35467	21
1.35833	20
1.36200	19
1.36567	19
1.36933	21
1.37300	21
1.37667	18
1.38033	17
1.38400	19
1.38767	19
1.39133	18
1.39500	18
1.39867	18
1.40233	20
1.40600	22
1.40967	24
1.41333	23
1.41700	22
1.42067	19
1.42433	17
1.42800	17
1.43167	17
1.43533	19
1.43900	18
1.44267	17
1.44633	19
1.45000	19
1.45367	20
1.45733	21
1.46100	21
1.46467	23
1.46833	23
1.47200	24
1.47567	25
1.47933	23
1.48300	21
1.48667	21
1.49033	20
1.49400	19
1.49767	18
1.50133	16
1.50500	16
1.50867	17
1.51233	19
1.51600	21
1.51967	21
1.52333	21
1.52700	20
1.53067	20
1.53433	21
1.53800	22
1.54167	23
1.54533	22
1.54900	20
1.55267	17
1.55633	17
1.56000	19
1.56367	19
1.56733	20
1.57100	19
1.57467	18
1.57833	18
1.58200	19
1.58567	20
1.58933	19
1.59300	18
1.59667	19
1.60033	22
1.60400	22
1.60767	22
1.61133	24
1.61500	24
1.61867	23
1.62233	19
1.62600	18
1.62967	20
1.63333	23
1.63700	24
1.64067	24
1.64433	22
1.64800	18
1.65167	17
1.65533	17
1.65900	19
1.66267	19
1.66633	22
1.67000	23
1.67367	24
1.67733	23
1.68100	23
1.68467	24
1.68833	26
1.69200	26
1.69567	27
1.69933	28
1.70300	28
1.70667	28
1.71033	27
1.71400	28
1.71767	29
1.72133	28
1.72500	27
1.72867	25
1.73233	26
1.73600	30
1.73967	31
1.74333	30
1.74700	31
1.75067	32
1.75433	32
1.75800	31
1.76167	29
1.76533	29
1.76900	30
1.77267	30
1.77633	29
1.78000	29
1.78367	31
1.78733	33
1.79100	35
1.79467	36
1.79833	36
1.80200	36
1.80567	36
1.80933	38
1.81300	36
1.81667	35
1.82033	37
1.82400	39
1.82767	39
1.83133	41
1.83500	43
1.83867	44
1.84233	47
1.84600	48
1.84967	47
1.85333	45
1.85700	46
1.86067	49
1.86433	51
1.86800	52
1.87167	54
1.87533	56
1.87900	56
1.88267	54
1.88633	51
1.89000	51
1.89367	51
1.89733	51
1.90100	51
1.90467	50
1.90833	48
1.91200	49
1.91567	50
1.91933	52
1.92300	53
1.92667	54
1.93033	54
1.93400	54
1.93767	55
1.94133	58
1.94500	61
1.94867	62
1.95233	63
1.95600	65
1.95967	66
1.96333	67
1.96700	68
1.97067	69
1.97433	68
1.97800	66
1.98167	65
1.98533	64
1.98900	62
1.99267	63
1.99633	65
2.00000	67
2.00367	69
2.00733	71
2.01100	74
2.01467	75
2.01833	75
2.02200	78
2.02567	80
2.02933	81
2.03300	78
2.03667	77
2.04033	78
2.04400	79
2.04767	79
2.05133	79
2.05500	81
2.05867	83
2.06233	84
2.06600	85
2.06967	85
2.07333	84
2.07700	83
2.08067	85
2.08433	87
2.08800	90
2.09167	93
2.09533	94
2.09900	97
2.10267	100
2.10633	101
2.11000	101
2.11367	103
2.11733	104
2.12100	103
2.12467	104
2.12833	106
2.13200	107
2.13567	106
2.13933	108
2.14300	108
2.14667	108
2.15033	110
2.15400	114
2.15767	117
2.16133	119
2.16500	121
2.16867	122
2.17233	125
2.17600	125
2.17967	125
2.18333	126
2.18700	127
2.19067	128
2.19433	129
2.19800	131
2.20167	132
2.20533	134
2.20900	136
2.21267	137
2.21633	137
2.22000	139
2.22367	140
2.22733	142
2.23100	143
2.23467	144
2.23833	146
2.24200	147
2.24567	146
2.24933	146
2.25300	145
2.25667	146
2.26033	147
2.26400	146
2.26767	148
2.27133	150
2.27500	151
2.27867	152
2.28233	154
2.28600	155
2.28967	156
2.29333	157
2.29700	160
2.30067	164
2.30433	166
2.30800	169
2.31167	170
2.31533	170
2.31900	169
2.32267	170
2.32633	171
2.33000	172
2.33367	174
2.33733	174
2.34100	177
2.34467	180
2.34833	183
2.35200	187
2.35567	188
2.35933	190
2.36300	190
2.36667	191
2.37033	189
2.37400	189
2.37767	192
2.38133	196
2.38500	197
2.38867	197
2.39233	197
2.39600	198
2.39967	200
2.40333	201
2.40700	203
2.41067	207
2.41433	209
2.41800	211
2.42167	215
2.42533	219
2.42900	222
2.43267	224
2.43633	225
2.44000	226
2.44367	225
2.44733	226
2.45100	226
2.45467	226
2.45833	226
2.46200	227
2.46567	228
2.46933	227
2.47300	228
2.47667	230
2.48033	232
2.48400	234
2.48767	234
2.49133	234
2.49500	235
2.49867	234
2.50233	233
2.50600	233
2.50967	231
2.51333	228
2.51700	224
2.52067	219
2.52433	216
2.52800	212
2.53167	210
2.53533	209
2.53900	205
2.54267	203
2.54633	202
2.55000	201
2.55367	201
2.55733	198
2.56100	195
2.56467	191
2.56833	190
2.57200	188
2.57567	186
2.57933	185
2.58300	184
2.58667	184
2.59033	185
2.59400	184
2.59767	182
2.60133	176
2.60500	163
2.60867	144
2.61233	121
2.61600	95
2.61967	67
2.62333	37
2.62700	6
2.63067	-20
2.63433	-40
2.63800	-56
2.64167	-71
2.64533	-80
2.64900	-87
2.65267	-90
2.65633	-92
2.66000	-93
2.66367	-93
2.66733	-89
2.67100	-84
2.67467	-77
2.67833	-69
2.68200	-64
2.68567	-58
2.68933	-51
2.69300	-45
2.69667	-41
2.70033	-35
2.70400	-28
2.70767	-22
2.71133	-15
2.71500	-8
2.71867	-2
2.72233	4
2.72600	11
2.72967	18
2.73333	22
2.73700	27
2.74067	32
2.74433	39
2.74800	46
2.75167	52
2.75533	55
2.75900	56
2.76267	57
2.76633	59
2.77000	64
2.77367	68
2.77733	71
2.78100	75
2.78467	81
2.78833	87
2.79200	92
2.79567	96
2.79933	98
2.80300	101
2.80667	104
2.81033	107
2.81400	110
2.81767	114
2.82133	116
2.82500	125
2.82867	147
2.83233	192
2.83600	273
2.83967	413
2.84333	634
2.84700	955
2.85067	1383
2.85433	1908
2.85800	2503
2.86167	3127
2.86533	3733
2.86900	4277
2.87267	4715
2.87633	5012
2.88000	5157
2.88367	5156
2.88733	5031
2.89100	4805
2.89467	4505
2.89833	4161
2.90200	3796
2.90567	3431
2.90933	3076
2.91300	2744
2.91667	2436
2.92033	2155
2.92400	1903
2.92767	1679
2.93133	1481
2.93500	1309
2.93867	1158
2.94233	1027
2.94600	912
2.94967	811
2.95333	724
2.95700	648
2.96067	586
2.96433	532
2.96800	488
2.97167	448
2.97533	413
2.97900	383
2.98267	358
2.98633	339
2.99000	324
2.99367	310
2.99733	298
3.00100	287
3.00467	277
3.00833	271
3.01200	265
3.01567	252
3.01933	241
3.02300	241
3.02667	254
3.03033	281
3.03400	316
3.03767	355
3.04133	397
3.04500	438
3.04867	478
3.05233	520
3.05600	561
3.05967	602
3.06333	638
3.06700	671
3.07067	702
3.07433	730
3.07800	754
3.08167	776
3.08533	797
3.08900	818
3.09267	838
3.09633	855
3.10000	867
3.10367	881
3.10733	895
3.11100	908
3.11467	921
3.11833	935
3.12200	949
3.12567	962
3.12933	974
3.13300	982
3.13667	989
3.14033	995
3.14400	999
3.14767	1005
3.15133	1010
3.15500	1014
3.15867	1016
3.16233	1017
3.16600	1019
3.16967	1022
3.17333	1024
3.17700	1027
3.18067	1031
3.18433	1036
3.18800	1041
3.19167	1045
3.19533	1048
3.19900	1050
3.20267	1049
3.20633	1047
3.21000	1047
3.21367	1049
3.21733	1049
3.22100	1047
3.22467	1046
3.22833	1043
3.23200	1043
3.23567	1044
3.23933	1045
3.24300	1046
3.24667	1047
3.25033	1046
3.25400	1044
3.25767	1041
3.26133	1038
3.26500	1035
3.26867	1036
3.27233	1039
3.27600	1041
3.27967	1041
3.28333	1040
3.28700	1041
3.29067	1043
3.29433	1045
3.29800	1047
3.30167	1048
3.30533	1047
3.30900	1047
3.31267	1048
3.31633	1048
3.32000	1047
3.32367	1047
3.32733	1047
3.33100	1046
3.33467	1044
3.33833	1042
3.34200	1039
3.34567	1040
3.34933	1039
3.35300	1034
3.35667	1032
3.36033	1030
3.36400	1030
3.36767	1031
3.37133	1030
3.37500	1029
3.37867	1026
3.38233	1023
3.38600	1020
3.38967	1019
3.39333	1020
3.39700	1022
3.40067	1023
3.40433	1021
3.40800	1016
3.41167	1012
3.41533	1006
3.41900	1002
3.42267	999
3.42633	998
3.43000	997
3.43367	994
3.43733	994
3.44100	992
3.44467	988
3.44833	986
3.45200	985
3.45567	982
3.45933	978
3.46300	975
3.46667	973
3.47033	970
3.47400	967
3.47767	963
3.48133	958
3.48500	951
3.48867	948
3.49233	949
3.49600	948
3.49967	944
3.50333	939
3.50700	934
3.51067	928
3.51433	923
3.51800	918
3.52167	913
3.52533	907
3.52900	903
3.53267	902
3.53633	900
3.54000	895
3.54367	891
3.54733	885
3.55100	880
3.55467	876
3.55833	871
3.56200	867
3.56567	861
3.56933	855
3.57300	850
3.57667	846
3.58033	841
3.58400	836
3.58767	833
3.59133	829
3.59500	822
3.59867	816
3.60233	812
3.60600	806
3.60967	801
3.61333	798
3.61700	795
3.62067	791
3.62433	787
3.62800	783
3.63167	778
3.63533	773
3.63900	772
3.64267	769
3.64633	764
3.65000	761
3.65367	757
3.65733	753
3.66100	750
3.66467	745
3.66833	740
3.67200	735
3.67567	730
3.67933	726
3.68300	723
3.68667	718
3.69033	713
3.69400	710
3.69767	707
3.70133	703
3.70500	699
3.70867	694
3.71233	689
3.71600	684
3.71967	678
3.72333	672
3.72700	668
3.73067	661
3.73433	655
3.73800	651
3.74167	645
3.74533	639
3.74900	635
3.75267	630
3.75633	627
3.76000	624
3.76367	620
3.76733	616
3.77100	613
3.77467	611
3.77833	607
3.78200	601
3.78567	596
3.78933	591
3.79300	588
3.79667	588
3.80033	588
3.80400	583
3.80767	577
3.81133	575
3.81500	573
3.81867	569
3.82233	565
3.82600	561
3.82967	555
3.83333	550
3.83700	547
3.84067	544
3.84433	541
3.84800	538
3.85167	535
3.85533	532
3.85900	528
3.86267	526
3.86633	524
3.87000	521
3.87367	516
3.87733	510
3.88100	506
3.88467	502
3.88833	499
3.89200	496
3.89567	496
3.89933	494
3.90300	487
3.90667	482
3.91033	477
3.91400	473
3.91767	471
3.92133	469
3.92500	468
3.92867	467
3.93233	467
3.93600	465
3.93967	462
3.94333	460
3.94700	456
3.95067	452
3.95433	448
3.95800	443
3.96167	440
3.96533	438
3.96900	437
3.97267	435
3.97633	432
3.98000	429
3.98367	425
3.98733	423
3.99100	422
3.99467	421
3.99833	417

[Status Trace (Column Oven Temperature)]
Interval(msec)	1000
# of Points	240
Start Time(min)	0.007
End Time(min)	3.990
Intensity Units	
Intensity Multiplier	1
R.Time (min)	Intensity
0.00705	35.01
0.02372	35.01
0.04038	35.01
0.05705	35.01
0.07372	35.01
0.09038	35.02
0.10705	35.03
0.12372	35.03
0.14038	35.02
0.15705	35.02
0.17372	35.02
0.19038	35.01
0.20705	35.00
0.22372	34.99
0.24038	34.98
0.25705	34.98
0.27372	34.97
0.29038	34.98
0.30705	34.96
0.32372	34.96
0.34038	34.96
0.35705	34.97
0.37372	34.98
0.39038	34.99
0.40705	35.00
0.42372	35.00
0.44038	34.98
0.45705	34.98
0.47372	34.98
0.49038	34.98
0.50705	34.97
0.52372	34.97
0.54038	34.98
0.55705	35.00
0.57372	35.01
0.59038	35.02
0.60705	35.02
0.62372	35.02
0.64038	35.02
0.65705	35.02
0.67372	35.03
0.69038	35.03
0.70705	35.03
0.72372	35.04
0.74038	35.03
0.75705	35.03
0.77372	35.02
0.79038	35.01
0.80705	35.00
0.82372	34.97
0.84038	34.97
0.85705	34.97
0.87372	34.96
0.89038	34.96
0.90705	34.95
0.92372	34.96
0.94038	34.97
0.95705	34.97
0.97372	34.97
0.99038	34.97
1.00705	34.98
1.02372	34.98
1.04038	34.97
1.05705	34.97
1.07372	34.96
1.09038	34.95
1.10705	34.95
1.12372	34.96
1.14038	34.96
1.15705	34.96
1.17372	34.96
1.19038	34.96
1.20705	34.96
1.22372	34.97
1.24038	34.98
1.25705	35.00
1.27372	35.01
1.29038	35.01
1.30705	35.01
1.32372	35.00
1.34038	35.01
1.35705	35.02
1.37372	35.02
1.39038	35.01
1.40705	35.00
1.42372	35.00
1.44038	35.00
1.45705	35.01
1.47372	35.01
1.49038	35.01
1.50705	35.01
1.52372	35.01
1.54038	35.00
1.55705	34.99
1.57372	34.98
1.59038	34.99
1.60705	35.03
1.62372	35.15
1.64038	35.34
1.65705	35.59
1.67372	35.93
1.69038	36.31
1.70705	36.68
1.72372	37.02
1.74038	37.32
1.75705	37.63
1.77372	37.99
1.79038	38.32
1.80705	38.66
1.82372	38.99
1.84038	39.32
1.85705	39.65
1.87372	39.98
1.89038	40.32
1.90705	40.64
1.92372	40.96
1.94038	41.31
1.95705	41.63
1.97372	41.95
1.99038	42.28
2.00705	42.61
2.02372	42.92
2.04038	43.25
2.05705	43.56
2.07372	43.89
2.09038	44.21
2.10705	44.53
2.12372	44.88
2.14038	45.20
2.15705	45.52
2.17372	45.85
2.19038	46.17
2.20705	46.50
2.22372	46.83
2.24038	47.17
2.25705	47.49
2.27372	47.82
2.29038	48.14
2.30705	48.46
2.32372	48.82
2.34038	49.14
2.35705	49.43
2.37372	49.63
2.39038	49.72
2.40705	49.71
2.42372	49.72
2.44038	49.72
2.45705	49.72
2.47372	49.73
2.49038	49.75
2.50705	49.76
2.52372	49.79
2.54038	49.80
2.55705	49.80
2.57372	49.83
2.59038	49.84
2.60705	49.84
2.62372	49.86
2.64038	49.85
2.65705	49.84
2.67372	49.85
2.69038	49.88
2.70705	49.88
2.72372	49.87
2.74038	49.87
2.75705	49.87
2.77372	49.88
2.79038	49.90
2.80705	49.91
2.82372	49.92
2.84038	49.93
2.85705	49.96
2.87372	49.97
2.89038	49.99
2.90705	49.99
2.92372	50.00
2.94038	50.01
2.95705	50.02
2.97372	50.03
2.99038	50.04
3.00705	50.03
3.02372	50.02
3.04038	50.02
3.05705	50.03
3.07372	50.03
3.09038	50.05
3.10705	50.06
3.12372	50.07
3.14038	50.07
3.15705	50.09
3.17372	50.09
3.19038	50.10
3.20705	50.10
3.22372	50.11
3.24038	50.10
3.25705	50.10
3.27372	50.10
3.29038	50.08
3.30705	50.07
3.32372	50.04
3.34038	50.03
3.35705	50.02
3.37372	50.01
3.39038	49.99
3.40705	49.97
3.42372	49.97
3.44038	49.98
3.45705	49.98
3.47372	49.98
3.49038	49.99
3.50705	50.00
3.52372	50.01
3.54038	50.02
3.55705	50.03
3.57372	50.03
3.59038	50.04
3.60705	50.04
3.62372	50.03
3.64038	50.03
3.65705	50.04
3.67372	50.04
3.69038	50.05
3.70705	50.05
3.72372	50.06
3.74038	50.07
3.75705	50.07
3.77372	50.08
3.79038	50.08
3.80705	50.09
3.82372	50.09
3.84038	50.08
3.85705	50.06
3.87372	50.05
3.89038	50.05
3.90705	50.05
3.92372	50.06
3.94038	50.06
3.95705	50.06
3.97372	50.06
3.99038	50.06

[Status Trace (Injection Unit Temperature)]
Interval(msec)	1000
# of Points	240
Start Time(min)	0.007
End Time(min)	3.990
Intensity Units	
Intensity Multiplier	1
R.Time (min)	Intensity
0.00705	99.98
0.02372	99.98
0.04038	99.98
0.05705	99.98
0.07372	99.98
0.09038	99.98
0.10705	99.98
0.12372	99.98
0.14038	99.98
0.15705	99.97
0.17372	99.98
0.19038	99.98
0.20705	99.98
0.22372	99.98
0.24038	99.98
0.25705	99.98
0.27372	99.97
0.29038	99.98
0.30705	99.98
0.32372	99.98
0.34038	99.98
0.35705	99.98
0.37372	99.98
0.39038	99.98
0.40705	99.98
0.42372	99.98
0.44038	99.98
0.45705	99.98
0.47372	99.98
0.49038	99.98
0.50705	99.98
0.52372	99.98
0.54038	99.98
0.55705	99.98
0.57372	99.98
0.59038	99.98
0.60705	99.98
0.62372	99.98
0.64038	99.98
0.65705	99.98
0.67372	99.97
0.69038	99.98
0.70705	99.98
0.72372	99.98
0.74038	99.98
0.75705	99.98
0.77372	99.98
0.79038	99.98
0.80705	99.98
0.82372	99.98
0.84038	99.98
0.85705	99.97
0.87372	99.98
0.89038	99.98
0.90705	99.98
0.92372	99.98
0.94038	99.98
0.95705	99.98
0.97372	99.98
0.99038	99.98
1.00705	99.98
1.02372	99.98
1.04038	99.98
1.05705	99.98
1.07372	99.98
1.09038	99.98
1.10705	99.98
1.12372	99.98
1.14038	99.98
1.15705	99.99
1.17372	99.99
1.19038	99.98
1.20705	99.98
1.22372	99.98
1.24038	99.99
1.25705	99.98
1.27372	99.98
1.29038	99.98
1.30705	99.99
1.32372	99.98
1.34038	99.98
1.35705	99.99
1.37372	99.98
1.39038	99.99
1.40705	99.98
1.42372	99.98
1.44038	99.98
1.45705	99.99
1.47372	99.98
1.49038	99.98
1.50705	99.98
1.52372	99.98
1.54038	99.98
1.55705	99.98
1.57372	99.98
1.59038	99.98
1.60705	99.98
1.62372	99.98
1.64038	99.98
1.65705	99.99
1.67372	99.98
1.69038	99.98
1.70705	99.99
1.72372	99.99
1.74038	99.99
1.75705	99.99
1.77372	99.98
1.79038	99.98
1.80705	99.98
1.82372	99.98
1.84038	99.98
1.85705	99.98
1.87372	99.98
1.89038	99.98
1.90705	99.98
1.92372	99.98
1.94038	99.98
1.95705	99.98
1.97372	99.98
1.99038	99.98
2.00705	99.97
2.02372	99.97
2.04038	99.98
2.05705	99.97
2.07372	99.98
2.09038	99.97
2.10705	99.97
2.12372	99.97
2.14038	99.97
2.15705	99.97
2.17372	99.97
2.19038	99.97
2.20705	99.97
2.22372	99.97
2.24038	99.97
2.25705	99.97
2.27372	99.97
2.29038	99.97
2.30705	99.97
2.32372	99.97
2.34038	99.97
2.35705	99.97
2.37372	99.97
2.39038	99.97
2.40705	99.97
2.42372	99.97
2.44038	99.97
2.45705	99.97
2.47372	99.97
2.49038	99.97
2.50705	99.97
2.52372	99.97
2.54038	99.97
2.55705	99.97
2.57372	99.98
2.59038	99.97
2.60705	99.98
2.62372	99.98
2.64038	99.98
2.65705	99.98
2.67372	99.98
2.69038	99.98
2.70705	99.99
2.72372	99.99
2.74038	99.98
2.75705	99.98
2.77372	99.99
2.79038	99.99
2.80705	99.99
2.82372	99.99
2.84038	99.99
2.85705	100.00
2.87372	100.00
2.89038	99.99
2.90705	100.00
2.92372	100.00
2.94038	100.00
2.95705	100.00
2.97372	100.01
2.99038	100.01
3.00705	100.01
3.02372	100.01
3.04038	100.01
3.05705	100.01
3.07372	100.01
3.09038	100.02
3.10705	100.02
3.12372	100.02
3.14038	100.02
3.15705	100.03
3.17372	100.02
3.19038	100.03
3.20705	100.03
3.22372	100.03
3.24038	100.03
3.25705	100.03
3.27372	100.03
3.29038	100.03
3.30705	100.03
3.32372	100.03
3.34038	100.04
3.35705	100.04
3.37372	100.03
3.39038	100.04
3.40705	100.03
3.42372	100.04
3.44038	100.04
3.45705	100.04
3.47372	100.04
3.49038	100.04
3.50705	100.04
3.52372	100.04
3.54038	100.04
3.55705	100.04
3.57372	100.05
3.59038	100.04
3.60705	100.04
3.62372	100.04
3.64038	100.04
3.65705	100.05
3.67372	100.05
3.69038	100.05
3.70705	100.04
3.72372	100.05
3.74038	100.05
3.75705	100.05
3.77372	100.05
3.79038	100.04
3.80705	100.04
3.82372	100.05
3.84038	100.04
3.85705	100.04
3.87372	100.05
3.89038	100.05
3.90705	100.05
3.92372	100.05
3.94038	100.04
3.95705	100.04
3.97372	100.05
3.99038	100.05

[Status Trace (Carrier Gas Pressure)]
Interval(msec)	1000
# of Points	240
Start Time(min)	0.007
End Time(min)	3.990
Intensity Units	
Intensity Multiplier	1
R.Time (min)	Intensity
0.00705	58.00
0.02372	55.51
0.04038	56.96
0.05705	59.00
0.07372	59.66
0.09038	58.11
0.10705	57.97
0.12372	58.01
0.14038	58.01
0.15705	58.01
0.17372	58.00
0.19038	58.00
0.20705	58.00
0.22372	58.00
0.24038	58.00
0.25705	58.00
0.27372	58.00
0.29038	58.00
0.30705	58.00
0.32372	58.00
0.34038	58.00
0.35705	58.00
0.37372	58.00
0.39038	58.00
0.40705	58.00
0.42372	58.00
0.44038	58.00
0.45705	58.00
0.47372	58.00
0.49038	58.00
0.50705	58.00
0.52372	58.00
0.54038	58.00
0.55705	58.00
0.57372	58.00
0.59038	58.00
0.60705	58.00
0.62372	58.00
0.64038	58.00
0.65705	58.00
0.67372	58.00
0.69038	58.00
0.70705	58.00
0.72372	58.00
0.74038	58.00
0.75705	58.00
0.77372	58.00
0.79038	58.00
0.80705	58.00
0.82372	58.00
0.84038	58.00
0.85705	58.00
0.87372	58.00
0.89038	58.00
0.90705	58.00
0.92372	58.00
0.94038	58.00
0.95705	58.00
0.97372	58.00
0.99038	58.00
1.00705	58.00
1.02372	58.00
1.04038	58.00
1.05705	58.00
1.07372	58.00
1.09038	58.00
1.10705	58.00
1.12372	58.00
1.14038	58.00
1.15705	58.00
1.17372	58.00
1.19038	58.00
1.20705	58.00
1.22372	58.00
1.24038	58.00
1.25705	58.00
1.27372	58.00
1.29038	58.00
1.30705	58.00
1.32372	58.00
1.34038	58.00
1.35705	58.00
1.37372	58.00
1.39038	58.00
1.40705	58.00
1.42372	58.00
1.44038	58.00
1.45705	58.00
1.47372	58.00
1.49038	58.00
1.50705	58.00
1.52372	58.00
1.54038	58.00
1.55705	58.00
1.57372	58.00
1.59038	58.00
1.60705	58.00
1.62372	58.00
1.64038	58.01
1.65705	58.00
1.67372	58.01
1.69038	58.00
1.70705	58.00
1.72372	58.00
1.74038	58.00
1.75705	58.00
1.77372	58.00
1.79038	58.00
1.80705	58.00
1.82372	58.00
1.84038	58.00
1.85705	58.00
1.87372	58.00
1.89038	58.00
1.90705	58.00
1.92372	58.00
1.94038	58.00
1.95705	58.00
1.97372	58.00
1.99038	58.00
2.00705	58.00
2.02372	58.00
2.04038	58.00
2.05705	58.00
2.07372	58.00
2.09038	58.00
2.10705	58.00
2.12372	58.00
2.14038	58.00
2.15705	58.00
2.17372	58.00
2.19038	58.00
2.20705	58.00
2.22372	58.00
2.24038	58.00
2.25705	58.00
2.27372	58.00
2.29038	58.00
2.30705	58.00
2.32372	58.00
2.34038	58.00
2.35705	58.00
2.37372	58.00
2.39038	57.99
2.40705	57.99
2.42372	58.00
2.44038	58.00
2.45705	58.00
2.47372	58.00
2.49038	58.00
2.50705	57.99
2.52372	57.99
2.54038	58.00
2.55705	58.00
2.57372	58.00
2.59038	58.00
2.60705	58.00
2.62372	58.00
2.64038	58.00
2.65705	58.00
2.67372	58.00
2.69038	58.00
2.70705	58.00
2.72372	58.00
2.74038	58.00
2.75705	58.00
2.77372	58.00
2.79038	58.00
2.80705	58.00
2.82372	58.00
2.84038	58.00
2.85705	58.00
2.87372	58.00
2.89038	58.00
2.90705	58.00
2.92372	58.00
2.94038	58.00
2.95705	58.00
2.97372	58.00
2.99038	58.00
3.00705	58.00
3.02372	58.00
3.04038	58.00
3.05705	58.00
3.07372	58.00
3.09038	58.00
3.10705	58.00
3.12372	58.00
3.14038	58.00
3.15705	58.00
3.17372	58.00
3.19038	58.00
3.20705	58.00
3.22372	58.00
3.24038	58.00
3.25705	58.00
3.27372	58.00
3.29038	58.00
3.30705	58.00
3.32372	58.00
3.34038	58.00
3.35705	58.00
3.37372	58.00
3.39038	58.00
3.40705	58.00
3.42372	58.00
3.44038	58.00
3.45705	58.00
3.47372	58.00
3.49038	58.00
3.50705	58.00
3.52372	58.00
3.54038	58.00
3.55705	58.00
3.57372	58.00
3.59038	58.00
3.60705	58.00
3.62372	58.00
3.64038	58.00
3.65705	58.00
3.67372	58.00
3.69038	58.00
3.70705	58.00
3.72372	58.00
3.74038	58.00
3.75705	58.00
3.77372	58.00
3.79038	58.00
3.80705	58.00
3.82372	58.00
3.84038	58.00
3.85705	58.00
3.87372	58.00
3.89038	58.00
3.90705	58.00
3.92372	58.00
3.94038	58.00
3.95705	58.00
3.97372	58.00
3.99038	58.00

[Status Trace (Carrier Gas Flow)]
Interval(msec)	1000
# of Points	240
Start Time(min)	0.007
End Time(min)	3.990
Intensity Units	
Intensity Multiplier	1
R.Time (min)	Intensity
0.00705	34.51
0.02372	34.54
0.04038	34.54
0.05705	34.54
0.07372	34.49
0.09038	34.53
0.10705	34.52
0.12372	34.52
0.14038	34.52
0.15705	34.52
0.17372	34.51
0.19038	34.52
0.20705	34.52
0.22372	34.52
0.24038	34.52
0.25705	34.52
0.27372	34.52
0.29038	34.51
0.30705	34.52
0.32372	34.52
0.34038	34.51
0.35705	34.52
0.37372	34.53
0.39038	34.52
0.40705	34.52
0.42372	34.52
0.44038	34.52
0.45705	34.51
0.47372	34.51
0.49038	34.52
0.50705	34.52
0.52372	34.52
0.54038	34.52
0.55705	34.52
0.57372	34.52
0.59038	34.52
0.60705	34.52
0.62372	34.52
0.64038	34.53
0.65705	34.52
0.67372	34.52
0.69038	34.52
0.70705	34.52
0.72372	34.51
0.74038	34.52
0.75705	34.52
0.77372	34.52
0.79038	34.52
0.80705	34.53
0.82372	34.52
0.84038	34.52
0.85705	34.52
0.87372	34.53
0.89038	34.52
0.90705	34.51
0.92372	34.52
0.94038	34.52
0.95705	34.52
0.97372	34.51
0.99038	34.54
1.00705	34.54
1.02372	34.53
1.04038	34.52
1.05705	34.52
1.07372	34.52
1.09038	34.54
1.10705	34.52
1.12372	34.54
1.14038	34.50
1.15705	34.51
1.17372	34.51
1.19038	34.52
1.20705	34.52
1.22372	34.52
1.24038	34.52
1.25705	34.52
1.27372	34.54
1.29038	34.51
1.30705	34.50
1.32372	34.54
1.34038	34.52
1.35705	34.52
1.37372	34.52
1.39038	34.52
1.40705	34.51
1.42372	34.50
1.44038	34.53
1.45705	34.52
1.47372	34.52
1.49038	34.52
1.50705	34.52
1.52372	34.52
1.54038	34.52
1.55705	34.52
1.57372	34.52
1.59038	34.50
1.60705	34.54
1.62372	34.50
1.64038	34.52
1.65705	34.52
1.67372	34.52
1.69038	34.52
1.70705	34.52
1.72372	34.52
1.74038	34.51
1.75705	34.52
1.77372	34.52
1.79038	34.52
1.80705	34.52
1.82372	34.52
1.84038	34.52
1.85705	34.52
1.87372	34.52
1.89038	34.52
1.90705	34.52
1.92372	34.52
1.94038	34.51
1.95705	34.52
1.97372	34.52
1.99038	34.52
2.00705	34.52
2.02372	34.52
2.04038	34.52
2.05705	34.52
2.07372	34.52
2.09038	34.52
2.10705	34.52
2.12372	34.52
2.14038	34.51
2.15705	34.54
2.17372	34.52
2.19038	34.52
2.20705	34.52
2.22372	34.52
2.24038	34.52
2.25705	34.52
2.27372	34.52
2.29038	34.52
2.30705	34.53
2.32372	34.52
2.34038	34.52
2.35705	34.52
2.37372	34.52
2.39038	34.51
2.40705	34.52
2.42372	34.52
2.44038	34.52
2.45705	34.52
2.47372	34.52
2.49038	34.52
2.50705	34.41
2.52372	34.52
2.54038	34.52
2.55705	34.52
2.57372	34.52
2.59038	34.52
2.60705	34.52
2.62372	34.52
2.64038	34.52
2.65705	34.52
2.67372	34.52
2.69038	34.52
2.70705	34.52
2.72372	34.52
2.74038	34.52
2.75705	34.52
2.77372	34.52
2.79038	34.52
2.80705	34.52
2.82372	34.52
2.84038	34.53
2.85705	34.52
2.87372	34.51
2.89038	34.51
2.90705	34.51
2.92372	34.51
2.94038	34.52
2.95705	34.52
2.97372	34.52
2.99038	34.52
3.00705	34.52
3.02372	34.52
3.04038	34.52
3.05705	34.52
3.07372	34.52
3.09038	34.52
3.10705	34.52
3.12372	34.52
3.14038	34.52
3.15705	34.52
3.17372	34.52
3.19038	34.52
3.20705	34.52
3.22372	34.52
3.24038	34.52
3.25705	34.52
3.27372	34.52
3.29038	34.52
3.30705	34.52
3.32372	34.52
3.34038	34.52
3.35705	34.52
3.37372	34.52
3.39038	34.52
3.40705	34.52
3.42372	34.52
3.44038	34.52
3.45705	34.52
3.47372	34.52
3.49038	34.52
3.50705	34.52
3.52372	34.52
3.54038	34.52
3.55705	34.52
3.57372	34.52
3.59038	34.52
3.60705	34.52
3.62372	34.52
3.64038	34.52
3.65705	34.52
3.67372	34.52
3.69038	34.52
3.70705	34.52
3.72372	34.52
3.74038	34.52
3.75705	34.52
3.77372	34.52
3.79038	34.52
3.80705	34.52
3.82372	34.52
3.84038	34.52
3.85705	34.52
3.87372	34.52
3.89038	34.52
3.90705	34.52
3.92372	34.52
3.94038	34.52
3.95705	34.52
3.97372	34.52
3.99038	34.52

[Status Trace (Column Flow)]
Interval(msec)	1000
# of Points	240
Start Time(min)	0.007
End Time(min)	3.990
Intensity Units	
Intensity Multiplier	1
R.Time (min)	Intensity
0.00705	5.49
0.02372	5.21
0.04038	5.37
0.05705	5.61
0.07372	5.69
0.09038	5.51
0.10705	5.49
0.12372	5.49
0.14038	5.49
0.15705	5.49
0.17372	5.49
0.19038	5.49
0.20705	5.49
0.22372	5.49
0.24038	5.49
0.25705	5.49
0.27372	5.49
0.29038	5.49
0.30705	5.49
0.32372	5.50
0.34038	5.50
0.35705	5.49
0.37372	5.49
0.39038	5.49
0.40705	5.49
0.42372	5.49
0.44038	5.49
0.45705	5.49
0.47372	5.49
0.49038	5.49
0.50705	5.49
0.52372	5.49
0.54038	5.49
0.55705	5.49
0.57372	5.49
0.59038	5.49
0.60705	5.49
0.62372	5.49
0.64038	5.49
0.65705	5.49
0.67372	5.49
0.69038	5.49
0.70705	5.49
0.72372	5.49
0.74038	5.49
0.75705	5.49
0.77372	5.49
0.79038	5.49
0.80705	5.49
0.82372	5.49
0.84038	5.49
0.85705	5.49
0.87372	5.49
0.89038	5.50
0.90705	5.50
0.92372	5.49
0.94038	5.49
0.95705	5.49
0.97372	5.49
0.99038	5.49
1.00705	5.49
1.02372	5.49
1.04038	5.49
1.05705	5.49
1.07372	5.49
1.09038	5.50
1.10705	5.49
1.12372	5.49
1.14038	5.49
1.15705	5.49
1.17372	5.49
1.19038	5.49
1.20705	5.49
1.22372	5.49
1.24038	5.49
1.25705	5.49
1.27372	5.49
1.29038	5.49
1.30705	5.49
1.32372	5.49
1.34038	5.49
1.35705	5.49
1.37372	5.49
1.39038	5.49
1.40705	5.49
1.42372	5.49
1.44038	5.49
1.45705	5.49
1.47372	5.49
1.49038	5.49
1.50705	5.49
1.52372	5.49
1.54038	5.49
1.55705	5.49
1.57372	5.49
1.59038	5.49
1.60705	5.49
1.62372	5.49
1.64038	5.48
1.65705	5.48
1.67372	5.47
1.69038	5.45
1.70705	5.44
1.72372	5.43
1.74038	5.42
1.75705	5.41
1.77372	5.40
1.79038	5.39
1.80705	5.38
1.82372	5.37
1.84038	5.36
1.85705	5.35
1.87372	5.34
1.89038	5.33
1.90705	5.32
1.92372	5.31
1.94038	5.30
1.95705	5.29
1.97372	5.28
1.99038	5.27
2.00705	5.26
2.02372	5.25
2.04038	5.24
2.05705	5.24
2.07372	5.23
2.09038	5.22
2.10705	5.21
2.12372	5.20
2.14038	5.19
2.15705	5.18
2.17372	5.17
2.19038	5.16
2.20705	5.15
2.22372	5.14
2.24038	5.13
2.25705	5.12
2.27372	5.11
2.29038	5.10
2.30705	5.10
2.32372	5.09
2.34038	5.08
2.35705	5.07
2.37372	5.06
2.39038	5.06
2.40705	5.06
2.42372	5.06
2.44038	5.06
2.45705	5.06
2.47372	5.06
2.49038	5.06
2.50705	5.06
2.52372	5.06
2.54038	5.06
2.55705	5.06
2.57372	5.06
2.59038	5.06
2.60705	5.06
2.62372	5.06
2.64038	5.06
2.65705	5.06
2.67372	5.06
2.69038	5.06
2.70705	5.06
2.72372	5.06
2.74038	5.06
2.75705	5.06
2.77372	5.06
2.79038	5.06
2.80705	5.06
2.82372	5.05
2.84038	5.05
2.85705	5.05
2.87372	5.05
2.89038	5.05
2.90705	5.05
2.92372	5.05
2.94038	5.05
2.95705	5.05
2.97372	5.05
2.99038	5.05
3.00705	5.05
3.02372	5.05
3.04038	5.05
3.05705	5.05
3.07372	5.05
3.09038	5.05
3.10705	5.05
3.12372	5.05
3.14038	5.05
3.15705	5.05
3.17372	5.05
3.19038	5.05
3.20705	5.05
3.22372	5.05
3.24038	5.05
3.25705	5.05
3.27372	5.05
3.29038	5.05
3.30705	5.05
3.32372	5.05
3.34038	5.05
3.35705	5.05
3.37372	5.05
3.39038	5.05
3.40705	5.05
3.42372	5.05
3.44038	5.05
3.45705	5.05
3.47372	5.05
3.49038	5.05
3.50705	5.05
3.52372	5.05
3.54038	5.05
3.55705	5.05
3.57372	5.05
3.59038	5.05
3.60705	5.05
3.62372	5.05
3.64038	5.05
3.65705	5.05
3.67372	5.05
3.69038	5.05
3.70705	5.05
3.72372	5.05
3.74038	5.05
3.75705	5.05
3.77372	5.05
3.79038	5.05
3.80705	5.05
3.82372	5.05
3.84038	5.05
3.85705	5.05
3.87372	5.05
3.89038	5.05
3.90705	5.05
3.92372	5.05
3.94038	5.05
3.95705	5.05
3.97372	5.05
3.99038	5.05

[Status Trace (Linear Velocity)]
Interval(msec)	1000
# of Points	240
Start Time(min)	0.007
End Time(min)	3.990
Intensity Units	
Intensity Multiplier	1
R.Time (min)	Intensity
0.00705	39.01
0.02372	37.38
0.04038	38.33
0.05705	39.66
0.07372	40.09
0.09038	39.08
0.10705	38.99
0.12372	39.01
0.14038	39.02
0.15705	39.01
0.17372	39.01
0.19038	39.01
0.20705	39.01
0.22372	39.01
0.24038	39.01
0.25705	39.01
0.27372	39.01
0.29038	39.01
0.30705	39.01
0.32372	39.02
0.34038	39.02
0.35705	39.01
0.37372	39.01
0.39038	39.01
0.40705	39.01
0.42372	39.01
0.44038	39.01
0.45705	39.01
0.47372	39.01
0.49038	39.01
0.50705	39.01
0.52372	39.01
0.54038	39.01
0.55705	39.01
0.57372	39.01
0.59038	39.01
0.60705	39.01
0.62372	39.01
0.64038	39.01
0.65705	39.01
0.67372	39.01
0.69038	39.01
0.70705	39.01
0.72372	39.01
0.74038	39.01
0.75705	39.01
0.77372	39.01
0.79038	39.01
0.80705	39.01
0.82372	39.01
0.84038	39.01
0.85705	39.01
0.87372	39.01
0.89038	39.01
0.90705	39.01
0.92372	39.01
0.94038	39.01
0.95705	39.01
0.97372	39.01
0.99038	39.01
1.00705	39.01
1.02372	39.01
1.04038	39.01
1.05705	39.01
1.07372	39.01
1.09038	39.02
1.10705	39.01
1.12372	39.01
1.14038	39.01
1.15705	39.01
1.17372	39.01
1.19038	39.01
1.20705	39.01
1.22372	39.01
1.24038	39.01
1.25705	39.01
1.27372	39.01
1.29038	39.01
1.30705	39.01
1.32372	39.01
1.34038	39.01
1.35705	39.01
1.37372	39.01
1.39038	39.01
1.40705	39.01
1.42372	39.01
1.44038	39.01
1.45705	39.01
1.47372	39.01
1.49038	39.01
1.50705	39.01
1.52372	39.01
1.54038	39.01
1.55705	39.01
1.57372	39.01
1.59038	39.01
1.60705	39.01
1.62372	39.00
1.64038	38.98
1.65705	38.96
1.67372	38.93
1.69038	38.89
1.70705	38.85
1.72372	38.82
1.74038	38.79
1.75705	38.76
1.77372	38.73
1.79038	38.69
1.80705	38.67
1.82372	38.63
1.84038	38.60
1.85705	38.57
1.87372	38.54
1.89038	38.51
1.90705	38.48
1.92372	38.45
1.94038	38.41
1.95705	38.38
1.97372	38.36
1.99038	38.32
2.00705	38.29
2.02372	38.27
2.04038	38.23
2.05705	38.21
2.07372	38.18
2.09038	38.15
2.10705	38.12
2.12372	38.09
2.14038	38.06
2.15705	38.03
2.17372	38.00
2.19038	37.97
2.20705	37.94
2.22372	37.91
2.24038	37.88
2.25705	37.85
2.27372	37.82
2.29038	37.79
2.30705	37.77
2.32372	37.74
2.34038	37.70
2.35705	37.68
2.37372	37.66
2.39038	37.65
2.40705	37.65
2.42372	37.65
2.44038	37.65
2.45705	37.65
2.47372	37.65
2.49038	37.65
2.50705	37.64
2.52372	37.64
2.54038	37.64
2.55705	37.64
2.57372	37.64
2.59038	37.64
2.60705	37.64
2.62372	37.64
2.64038	37.64
2.65705	37.64
2.67372	37.64
2.69038	37.64
2.70705	37.64
2.72372	37.64
2.74038	37.64
2.75705	37.64
2.77372	37.64
2.79038	37.64
2.80705	37.63
2.82372	37.63
2.84038	37.63
2.85705	37.63
2.87372	37.63
2.89038	37.63
2.90705	37.63
2.92372	37.63
2.94038	37.63
2.95705	37.62
2.97372	37.62
2.99038	37.62
3.00705	37.62
3.02372	37.62
3.04038	37.62
3.05705	37.62
3.07372	37.62
3.09038	37.62
3.10705	37.62
3.12372	37.62
3.14038	37.62
3.15705	37.62
3.17372	37.62
3.19038	37.62
3.20705	37.62
3.22372	37.62
3.24038	37.62
3.25705	37.62
3.27372	37.62
3.29038	37.62
3.30705	37.62
3.32372	37.62
3.34038	37.62
3.35705	37.62
3.37372	37.63
3.39038	37.63
3.40705	37.63
3.42372	37.63
3.44038	37.63
3.45705	37.63
3.47372	37.63
3.49038	37.63
3.50705	37.63
3.52372	37.63
3.54038	37.62
3.55705	37.62
3.57372	37.62
3.59038	37.62
3.60705	37.62
3.62372	37.62
3.64038	37.62
3.65705	37.62
3.67372	37.62
3.69038	37.62
3.70705	37.62
3.72372	37.62
3.74038	37.62
3.75705	37.62
3.77372	37.62
3.79038	37.62
3.80705	37.62
3.82372	37.62
3.84038	37.62
3.85705	37.62
3.87372	37.62
3.89038	37.62
3.90705	37.62
3.92372	37.62
3.94038	37.62
3.95705	37.62
3.97372	37.62
3.99038	37.62

