[Header]
Application Name	LabSolutions
Version	5.110
Data File Name	C:\Users\User\Desktop\GC Analyses\Jack\UIC Prairie Sampling\7.9.22\220909_003.gcd
Output Date	9/28/2022
Output Time	11:29:49 AM

[File Information]
Type	Data File
Generated	9/9/2022 12:07:34 PM
Generated by	System Administrator
Modified	9/9/2022 12:12:05 PM
Modified by	System Administrator

[Sample Information]
Operator Name	System Administrator
Acquired	9/9/2022 12:08:03 PM
Sample Type	1:Standard
Level	1
Sample Name	220909_Run
Sample ID	220909_Run
ISTD Amount1	1
ISTD Amount2	1
ISTD Amount3	1
ISTD Amount4	1
ISTD Amount5	1
ISTD Amount6	1
ISTD Amount7	1
ISTD Amount8	1
ISTD Amount9	1
ISTD Amount10	1
ISTD Amount11	1
ISTD Amount12	1
ISTD Amount13	1
ISTD Amount14	1
ISTD Amount15	1
ISTD Amount16	1
ISTD Amount17	1
ISTD Amount18	1
ISTD Amount19	1
ISTD Amount20	1
ISTD Amount21	1
ISTD Amount22	1
ISTD Amount23	1
ISTD Amount24	1
ISTD Amount25	1
ISTD Amount26	1
ISTD Amount27	1
ISTD Amount28	1
ISTD Amount29	1
ISTD Amount30	1
ISTD Amount31	1
ISTD Amount32	1
Sample Amount	1
Dilution Factor	1
Vial#	1
Injection Volume	1
Injection Count	1
Bar Code	

[Original Files]
Data File	C:\Users\User\Desktop\GC Analyses\Jack\220909\220909_003.gcd
Method File	C:\LabSolutions\Data\GHG_4min_2022\ghg3_togas_w_acet_4 min_new_int.gcm
Batch File	
Report Format File	c:\LabSolutions\System\DEFAULT.lsr

[File Description]


[Configuration]
Instrument Name	C0B7VH3-Instrument1
Instrument #	1
Line #	1
# of Detectors	3
Detector ID	DET#1	DET#2	DET#3
Detector Name	FID	PTCD	ECD
# of Channels	1	1	1

[Peak Table(Ch1)]
# of Peaks	3
Peak#	R.Time	I.Time	F.Time	Area	Height	A/H	Conc.	Mark	ID#	Name	k'	Plate #	Plate Ht.	Tailing	Resolution	Sep.Factor	Area Ratio	Height Ratio	Conc. %	Norm Conc.
1	1.472	1.443	1.534	7891	3878	2.035	100.000	   	1	CO	0.000	9292	16.144	1.474	0.000	0.000	0	0	16.667	16.667
2	1.571	1.542	1.622	11933	7341	1.626	100.000	   	2	CH4	0.067	16062	9.339	1.313	1.789	0.000	0	0	16.667	16.667
3	2.000	1.945	2.286	1344844	741350	1.814	400.000	   	3	CO2	0.359	21481	6.983	1.217	8.237	5.333	0	0	66.667	66.667

[Peak Table(Ch2)]
# of Peaks	0

[Peak Table(Ch3)]
# of Peaks	2
Peak#	R.Time	I.Time	F.Time	Area	Height	A/H	Conc.	Mark	ID#	Name	k'	Plate #	Plate Ht.	Tailing	Resolution	Sep.Factor	Area Ratio	Height Ratio	Conc. %	Norm Conc.
1	2.594	2.396	2.649	3269	370	8.832	0.000	   			0.000	2460	60.966	0.000	0.000	0.000	0	0	0.000	0.000
2	2.880	2.649	3.577	52486	11320	4.637	1.000	 V 	1	N2O	0.110	13113	11.439	1.802	1.846	0.000	0	0	100.000	100.000

[Compound Results(Ch1)]
# of IDs	6
ID#	Name	R.Time	Area	Height	Conc.	Curve	3rd	2nd	1st	Constant	Area Ratio	Height Ratio	Conc. %	Norm Conc.
1	CO	1.472	7891	3878	100.000	Linear	0.000000e+00	0.000000e+00	7.890769e+001	0.000000e+00	0	0	16.667	16.667
2	CH4	1.571	11933	7341	100.000	Linear	0.000000e+00	0.000000e+00	1.193286e+002	0.000000e+00	0	0	16.667	16.667
3	CO2	2.000	1344844	741350	400.000	Linear	0.000000e+00	0.000000e+00	3.362110e+003	0.000000e+00	0	0	66.667	66.667
4	Ethylene	0.000	0	0	0.000	Linear	0.000000e+00	0.000000e+00	0.000000e+00	0.000000e+00	0	0	0.000	0.000
5	Acetylene	0.000	0	0	0.000	Linear	0.000000e+00	0.000000e+00	0.000000e+00	0.000000e+00	0	0	0.000	0.000
6	Ethane	0.000	0	0	0.000	Linear	0.000000e+00	0.000000e+00	0.000000e+00	0.000000e+00	0	0	0.000	0.000

[Compound Results(Ch2)]
# of IDs	5
ID#	Name	R.Time	Area	Height	Conc.	Curve	3rd	2nd	1st	Constant	Area Ratio	Height Ratio	Conc. %	Norm Conc.
1	Hydrogen	0.000	0	0	0.000	Linear	0.000000e+00	0.000000e+00	0.000000e+00	0.000000e+00	0	0	0.000	0.000
2	Oxygen	0.000	0	0	0.000	Linear	0.000000e+00	0.000000e+00	0.000000e+00	0.000000e+00	0	0	0.000	0.000
3	Nitrogen	0.000	0	0	0.000	Linear	0.000000e+00	0.000000e+00	0.000000e+00	0.000000e+00	0	0	0.000	0.000
4	Methane	0.000	0	0	0.000	Linear	0.000000e+00	0.000000e+00	0.000000e+00	0.000000e+00	0	0	0.000	0.000
5	Carbon Monoxide	0.000	0	0	0.000	Linear	0.000000e+00	0.000000e+00	0.000000e+00	0.000000e+00	0	0	0.000	0.000

[Compound Results(Ch3)]
# of IDs	2
ID#	Name	R.Time	Area	Height	Conc.	Curve	3rd	2nd	1st	Constant	Area Ratio	Height Ratio	Conc. %	Norm Conc.
1	N2O	2.880	52486	11320	1.000	Linear	0.000000e+00	0.000000e+00	5.248607e+004	0.000000e+00	0	0	100.000	100.000
2	SF6	0.000	0	0	0.000	Linear	0.000000e+00	0.000000e+00	0.000000e+00	0.000000e+00	0	0	0.000	0.000

[Group Results(Ch1)]
# of Groups	0

[Group Results(Ch2)]
# of Groups	0

[Group Results(Ch3)]
# of Groups	0

[Chromatogram (Ch1)]
Interval(msec)	220
# of Points	1091
Start Time(min)	0.002
End Time(min)	3.998
R.Time (min)	Intensity
0.00167	-32
0.00533	-36
0.00900	-35
0.01267	-30
0.01633	-21
0.02000	-17
0.02367	-23
0.02733	-31
0.03100	-37
0.03467	-39
0.03833	-40
0.04200	-43
0.04567	-44
0.04933	-44
0.05300	-41
0.05667	-38
0.06033	-37
0.06400	-37
0.06767	-38
0.07133	-39
0.07500	-38
0.07867	-36
0.08233	-34
0.08600	-34
0.08967	-33
0.09333	-28
0.09700	-21
0.10067	-15
0.10433	-17
0.10800	-23
0.11167	-31
0.11533	-36
0.11900	-38
0.12267	-40
0.12633	-44
0.13000	-53
0.13367	-59
0.13733	-62
0.14100	-61
0.14467	-53
0.14833	-47
0.15200	-42
0.15567	-41
0.15933	-44
0.16300	-47
0.16667	-49
0.17033	-50
0.17400	-49
0.17767	-46
0.18133	-45
0.18500	-46
0.18867	-46
0.19233	-46
0.19600	-46
0.19967	-45
0.20333	-42
0.20700	-36
0.21067	-31
0.21433	-29
0.21800	-34
0.22167	-41
0.22533	-47
0.22900	-54
0.23267	-60
0.23633	-62
0.24000	-59
0.24367	-55
0.24733	-53
0.25100	-55
0.25467	-60
0.25833	-67
0.26200	-73
0.26567	-74
0.26933	-71
0.27300	-66
0.27667	-55
0.28033	-39
0.28400	-29
0.28767	-28
0.29133	-32
0.29500	-36
0.29867	-40
0.30233	-46
0.30600	-56
0.30967	-68
0.31333	-77
0.31700	-81
0.32067	-84
0.32433	-86
0.32800	-84
0.33167	-81
0.33533	-76
0.33900	-73
0.34267	-69
0.34633	-64
0.35000	-58
0.35367	-49
0.35733	-43
0.36100	-42
0.36467	-42
0.36833	-41
0.37200	-41
0.37567	-45
0.37933	-49
0.38300	-51
0.38667	-55
0.39033	-59
0.39400	-62
0.39767	-63
0.40133	-66
0.40500	-67
0.40867	-66
0.41233	-65
0.41600	-62
0.41967	-58
0.42333	-54
0.42700	-46
0.43067	-36
0.43433	-30
0.43800	-32
0.44167	-38
0.44533	-42
0.44900	-43
0.45267	-42
0.45633	-42
0.46000	-41
0.46367	-43
0.46733	-48
0.47100	-57
0.47467	-69
0.47833	-75
0.48200	-74
0.48567	-65
0.48933	-55
0.49300	-50
0.49667	-51
0.50033	-57
0.50400	-64
0.50767	-70
0.51133	-74
0.51500	-77
0.51867	-78
0.52233	-84
0.52600	-90
0.52967	-90
0.53333	-85
0.53700	-81
0.54067	-75
0.54433	-69
0.54800	-67
0.55167	-68
0.55533	-69
0.55900	-68
0.56267	-67
0.56633	-71
0.57000	-77
0.57367	-84
0.57733	-91
0.58100	-91
0.58467	-87
0.58833	-80
0.59200	-73
0.59567	-67
0.59933	-63
0.60300	-61
0.60667	-62
0.61033	-65
0.61400	-68
0.61767	-70
0.62133	-73
0.62500	-77
0.62867	-79
0.63233	-81
0.63600	-83
0.63967	-83
0.64333	-82
0.64700	-82
0.65067	-84
0.65433	-87
0.65800	-83
0.66167	-75
0.66533	-67
0.66900	-63
0.67267	-62
0.67633	-63
0.68000	-65
0.68367	-71
0.68733	-78
0.69100	-82
0.69467	-86
0.69833	-90
0.70200	-96
0.70567	-100
0.70933	-100
0.71300	-99
0.71667	-99
0.72033	-99
0.72400	-99
0.72767	-99
0.73133	-100
0.73500	-100
0.73867	-99
0.74233	-99
0.74600	-100
0.74967	-100
0.75333	-98
0.75700	-94
0.76067	-88
0.76433	-81
0.76800	-73
0.77167	-69
0.77533	-72
0.77900	-77
0.78267	-81
0.78633	-84
0.79000	-87
0.79367	-92
0.79733	-100
0.80100	-106
0.80467	-108
0.80833	-105
0.81200	-102
0.81567	-99
0.81933	-104
0.82300	-110
0.82667	-115
0.83033	-118
0.83400	-118
0.83767	-117
0.84133	-115
0.84500	-114
0.84867	-111
0.85233	-106
0.85600	-100
0.85967	-97
0.86333	-93
0.86700	-88
0.87067	-83
0.87433	-80
0.87800	-82
0.88167	-87
0.88533	-94
0.88900	-103
0.89267	-111
0.89633	-116
0.90000	-120
0.90367	-120
0.90733	-119
0.91100	-117
0.91467	-114
0.91833	-111
0.92200	-111
0.92567	-108
0.92933	-102
0.93300	-96
0.93667	-91
0.94033	-90
0.94400	-94
0.94767	-100
0.95133	-106
0.95500	-112
0.95867	-121
0.96233	-130
0.96600	-137
0.96967	-138
0.97333	-133
0.97700	-128
0.98067	-123
0.98433	-123
0.98800	-126
0.99167	-128
0.99533	-129
0.99900	-124
1.00267	-114
1.00633	-104
1.01000	-99
1.01367	-101
1.01733	-106
1.02100	-112
1.02467	-118
1.02833	-120
1.03200	-119
1.03567	-117
1.03933	-116
1.04300	-115
1.04667	-116
1.05033	-119
1.05400	-122
1.05767	-123
1.06133	-124
1.06500	-123
1.06867	-121
1.07233	-120
1.07600	-123
1.07967	-126
1.08333	-125
1.08700	-122
1.09067	-119
1.09433	-116
1.09800	-117
1.10167	-116
1.10533	-113
1.10900	-111
1.11267	-115
1.11633	-120
1.12000	-119
1.12367	-116
1.12733	-115
1.13100	-115
1.13467	-116
1.13833	-115
1.14200	-108
1.14567	-101
1.14933	-101
1.15300	-110
1.15667	-122
1.16033	-129
1.16400	-130
1.16767	-127
1.17133	-125
1.17500	-124
1.17867	-124
1.18233	-124
1.18600	-125
1.18967	-126
1.19333	-123
1.19700	-115
1.20067	-109
1.20433	-107
1.20800	-106
1.21167	-106
1.21533	-105
1.21900	-106
1.22267	-109
1.22633	-114
1.23000	-120
1.23367	-125
1.23733	-127
1.24100	-126
1.24467	-123
1.24833	-118
1.25200	-113
1.25567	-114
1.25933	-117
1.26300	-123
1.26667	-132
1.27033	-142
1.27400	-153
1.27767	-160
1.28133	-161
1.28500	-157
1.28867	-153
1.29233	-146
1.29600	-138
1.29967	-132
1.30333	-132
1.30700	-134
1.31067	-136
1.31433	-136
1.31800	-133
1.32167	-129
1.32533	-128
1.32900	-127
1.33267	-124
1.33633	-123
1.34000	-124
1.34367	-127
1.34733	-131
1.35100	-134
1.35467	-136
1.35833	-140
1.36200	-144
1.36567	-146
1.36933	-144
1.37300	-139
1.37667	-133
1.38033	-128
1.38400	-125
1.38767	-121
1.39133	-115
1.39500	-108
1.39867	-105
1.40233	-105
1.40600	-108
1.40967	-112
1.41333	-114
1.41700	-116
1.42067	-120
1.42433	-124
1.42800	-127
1.43167	-129
1.43533	-132
1.43900	-132
1.44267	-121
1.44633	-54
1.45000	204
1.45367	756
1.45733	1523
1.46100	2365
1.46467	3120
1.46833	3615
1.47200	3755
1.47567	3576
1.47933	3193
1.48300	2714
1.48667	2219
1.49033	1754
1.49400	1348
1.49767	1008
1.50133	732
1.50500	513
1.50867	342
1.51233	213
1.51600	117
1.51967	43
1.52333	-17
1.52700	-65
1.53067	-101
1.53433	-128
1.53800	-149
1.54167	-159
1.54533	-118
1.54900	98
1.55267	705
1.55633	1862
1.56000	3491
1.56367	5241
1.56733	6614
1.57100	7189
1.57467	6852
1.57833	5842
1.58200	4547
1.58567	3294
1.58933	2254
1.59300	1473
1.59667	920
1.60033	543
1.60400	296
1.60767	134
1.61133	24
1.61500	-54
1.61867	-106
1.62233	-140
1.62600	-163
1.62967	-174
1.63333	-177
1.63700	-175
1.64067	-170
1.64433	-165
1.64800	-163
1.65167	-162
1.65533	-160
1.65900	-158
1.66267	-157
1.66633	-156
1.67000	-158
1.67367	-161
1.67733	-164
1.68100	-166
1.68467	-170
1.68833	-172
1.69200	-172
1.69567	-168
1.69933	-167
1.70300	-169
1.70667	-168
1.71033	-160
1.71400	-155
1.71767	-152
1.72133	-149
1.72500	-150
1.72867	-154
1.73233	-160
1.73600	-164
1.73967	-164
1.74333	-160
1.74700	-155
1.75067	-151
1.75433	-148
1.75800	-147
1.76167	-146
1.76533	-146
1.76900	-146
1.77267	-144
1.77633	-143
1.78000	-146
1.78367	-153
1.78733	-159
1.79100	-165
1.79467	-170
1.79833	-175
1.80200	-174
1.80567	-169
1.80933	-162
1.81300	-156
1.81667	-156
1.82033	-161
1.82400	-164
1.82767	-162
1.83133	-160
1.83500	-158
1.83867	-154
1.84233	-152
1.84600	-151
1.84967	-154
1.85333	-159
1.85700	-165
1.86067	-168
1.86433	-167
1.86800	-166
1.87167	-163
1.87533	-160
1.87900	-157
1.88267	-153
1.88633	-150
1.89000	-147
1.89367	-147
1.89733	-149
1.90100	-151
1.90467	-154
1.90833	-156
1.91200	-157
1.91567	-158
1.91933	-161
1.92300	-164
1.92667	-167
1.93033	-168
1.93400	-166
1.93767	-161
1.94133	-157
1.94500	-152
1.94867	-145
1.95233	-139
1.95600	-125
1.95967	-62
1.96333	306
1.96700	2146
1.97067	9350
1.97433	31225
1.97800	83119
1.98167	179665
1.98533	321463
1.98900	485767
1.99267	632669
1.99633	724196
2.00000	741232
2.00367	688167
2.00733	587057
2.01100	466156
2.01467	349187
2.01833	250045
2.02200	173267
2.02567	117437
2.02933	78579
2.03300	52322
2.03667	34924
2.04033	23531
2.04400	16103
2.04767	11250
2.05133	8055
2.05500	5928
2.05867	4487
2.06233	3495
2.06600	2801
2.06967	2304
2.07333	1938
2.07700	1658
2.08067	1436
2.08433	1259
2.08800	1118
2.09167	1003
2.09533	909
2.09900	830
2.10267	764
2.10633	705
2.11000	649
2.11367	598
2.11733	554
2.12100	517
2.12467	487
2.12833	463
2.13200	441
2.13567	422
2.13933	400
2.14300	378
2.14667	357
2.15033	335
2.15400	312
2.15767	292
2.16133	278
2.16500	270
2.16867	264
2.17233	257
2.17600	246
2.17967	233
2.18333	219
2.18700	202
2.19067	186
2.19433	171
2.19800	158
2.20167	145
2.20533	137
2.20900	132
2.21267	130
2.21633	132
2.22000	134
2.22367	135
2.22733	134
2.23100	129
2.23467	119
2.23833	107
2.24200	96
2.24567	88
2.24933	84
2.25300	81
2.25667	82
2.26033	84
2.26400	85
2.26767	83
2.27133	76
2.27500	67
2.27867	63
2.28233	59
2.28600	54
2.28967	51
2.29333	48
2.29700	46
2.30067	44
2.30433	45
2.30800	48
2.31167	53
2.31533	56
2.31900	61
2.32267	62
2.32633	56
2.33000	46
2.33367	37
2.33733	30
2.34100	24
2.34467	20
2.34833	17
2.35200	15
2.35567	12
2.35933	13
2.36300	14
2.36667	12
2.37033	13
2.37400	18
2.37767	25
2.38133	26
2.38500	22
2.38867	17
2.39233	11
2.39600	9
2.39967	10
2.40333	11
2.40700	11
2.41067	10
2.41433	7
2.41800	3
2.42167	0
2.42533	-0
2.42900	-1
2.43267	-2
2.43633	-6
2.44000	-12
2.44367	-18
2.44733	-22
2.45100	-23
2.45467	-23
2.45833	-24
2.46200	-24
2.46567	-23
2.46933	-23
2.47300	-20
2.47667	-16
2.48033	-15
2.48400	-18
2.48767	-22
2.49133	-27
2.49500	-31
2.49867	-33
2.50233	-32
2.50600	-31
2.50967	-30
2.51333	-27
2.51700	-22
2.52067	-23
2.52433	-28
2.52800	-34
2.53167	-37
2.53533	-39
2.53900	-39
2.54267	-37
2.54633	-32
2.55000	-27
2.55367	-24
2.55733	-23
2.56100	-28
2.56467	-33
2.56833	-37
2.57200	-41
2.57567	-47
2.57933	-50
2.58300	-48
2.58667	-44
2.59033	-42
2.59400	-43
2.59767	-45
2.60133	-45
2.60500	-45
2.60867	-46
2.61233	-49
2.61600	-52
2.61967	-56
2.62333	-60
2.62700	-64
2.63067	-67
2.63433	-66
2.63800	-65
2.64167	-62
2.64533	-56
2.64900	-51
2.65267	-52
2.65633	-55
2.66000	-53
2.66367	-50
2.66733	-49
2.67100	-52
2.67467	-59
2.67833	-65
2.68200	-70
2.68567	-69
2.68933	-67
2.69300	-63
2.69667	-57
2.70033	-51
2.70400	-48
2.70767	-47
2.71133	-47
2.71500	-48
2.71867	-50
2.72233	-50
2.72600	-49
2.72967	-48
2.73333	-49
2.73700	-51
2.74067	-56
2.74433	-63
2.74800	-71
2.75167	-72
2.75533	-72
2.75900	-74
2.76267	-75
2.76633	-73
2.77000	-67
2.77367	-61
2.77733	-60
2.78100	-64
2.78467	-69
2.78833	-74
2.79200	-77
2.79567	-79
2.79933	-77
2.80300	-73
2.80667	-69
2.81033	-63
2.81400	-58
2.81767	-56
2.82133	-57
2.82500	-64
2.82867	-72
2.83233	-77
2.83600	-77
2.83967	-75
2.84333	-70
2.84700	-65
2.85067	-62
2.85433	-62
2.85800	-65
2.86167	-67
2.86533	-65
2.86900	-61
2.87267	-61
2.87633	-63
2.88000	-66
2.88367	-67
2.88733	-66
2.89100	-65
2.89467	-66
2.89833	-72
2.90200	-80
2.90567	-84
2.90933	-85
2.91300	-85
2.91667	-85
2.92033	-85
2.92400	-84
2.92767	-84
2.93133	-83
2.93500	-82
2.93867	-83
2.94233	-87
2.94600	-92
2.94967	-94
2.95333	-91
2.95700	-84
2.96067	-79
2.96433	-74
2.96800	-71
2.97167	-68
2.97533	-66
2.97900	-64
2.98267	-65
2.98633	-70
2.99000	-75
2.99367	-79
2.99733	-82
3.00100	-84
3.00467	-86
3.00833	-88
3.01200	-89
3.01567	-87
3.01933	-84
3.02300	-81
3.02667	-78
3.03033	-75
3.03400	-71
3.03767	-64
3.04133	-57
3.04500	-53
3.04867	-54
3.05233	-61
3.05600	-71
3.05967	-78
3.06333	-81
3.06700	-82
3.07067	-76
3.07433	-67
3.07800	-60
3.08167	-61
3.08533	-66
3.08900	-74
3.09267	-84
3.09633	-91
3.10000	-93
3.10367	-94
3.10733	-92
3.11100	-88
3.11467	-82
3.11833	-79
3.12200	-76
3.12567	-73
3.12933	-72
3.13300	-68
3.13667	-62
3.14033	-57
3.14400	-58
3.14767	-60
3.15133	-58
3.15500	-56
3.15867	-55
3.16233	-55
3.16600	-58
3.16967	-59
3.17333	-59
3.17700	-58
3.18067	-58
3.18433	-61
3.18800	-68
3.19167	-66
3.19533	-64
3.19900	-66
3.20267	-68
3.20633	-67
3.21000	-65
3.21367	-64
3.21733	-65
3.22100	-69
3.22467	-73
3.22833	-78
3.23200	-86
3.23567	-96
3.23933	-101
3.24300	-99
3.24667	-91
3.25033	-81
3.25400	-76
3.25767	-73
3.26133	-71
3.26500	-68
3.26867	-65
3.27233	-62
3.27600	-64
3.27967	-72
3.28333	-81
3.28700	-91
3.29067	-98
3.29433	-99
3.29800	-97
3.30167	-93
3.30533	-88
3.30900	-85
3.31267	-81
3.31633	-78
3.32000	-79
3.32367	-79
3.32733	-77
3.33100	-74
3.33467	-71
3.33833	-67
3.34200	-64
3.34567	-61
3.34933	-56
3.35300	-54
3.35667	-59
3.36033	-70
3.36400	-82
3.36767	-89
3.37133	-92
3.37500	-89
3.37867	-86
3.38233	-84
3.38600	-80
3.38967	-76
3.39333	-75
3.39700	-76
3.40067	-78
3.40433	-81
3.40800	-85
3.41167	-84
3.41533	-81
3.41900	-82
3.42267	-85
3.42633	-85
3.43000	-83
3.43367	-82
3.43733	-81
3.44100	-81
3.44467	-80
3.44833	-80
3.45200	-81
3.45567	-83
3.45933	-86
3.46300	-88
3.46667	-87
3.47033	-85
3.47400	-86
3.47767	-87
3.48133	-86
3.48500	-84
3.48867	-81
3.49233	-75
3.49600	-69
3.49967	-67
3.50333	-68
3.50700	-72
3.51067	-75
3.51433	-74
3.51800	-73
3.52167	-74
3.52533	-74
3.52900	-72
3.53267	-72
3.53633	-74
3.54000	-74
3.54367	-72
3.54733	-71
3.55100	-71
3.55467	-70
3.55833	-68
3.56200	-63
3.56567	-61
3.56933	-59
3.57300	-56
3.57667	-55
3.58033	-59
3.58400	-65
3.58767	-71
3.59133	-78
3.59500	-84
3.59867	-87
3.60233	-85
3.60600	-79
3.60967	-74
3.61333	-70
3.61700	-72
3.62067	-77
3.62433	-84
3.62800	-88
3.63167	-90
3.63533	-90
3.63900	-84
3.64267	-77
3.64633	-72
3.65000	-70
3.65367	-71
3.65733	-74
3.66100	-82
3.66467	-91
3.66833	-94
3.67200	-92
3.67567	-86
3.67933	-81
3.68300	-81
3.68667	-84
3.69033	-88
3.69400	-92
3.69767	-96
3.70133	-93
3.70500	-85
3.70867	-81
3.71233	-80
3.71600	-80
3.71967	-77
3.72333	-71
3.72700	-65
3.73067	-62
3.73433	-64
3.73800	-71
3.74167	-78
3.74533	-85
3.74900	-89
3.75267	-94
3.75633	-99
3.76000	-101
3.76367	-102
3.76733	-99
3.77100	-95
3.77467	-91
3.77833	-89
3.78200	-88
3.78567	-87
3.78933	-90
3.79300	-91
3.79667	-93
3.80033	-94
3.80400	-91
3.80767	-84
3.81133	-75
3.81500	-71
3.81867	-76
3.82233	-82
3.82600	-84
3.82967	-87
3.83333	-92
3.83700	-96
3.84067	-97
3.84433	-95
3.84800	-91
3.85167	-86
3.85533	-80
3.85900	-73
3.86267	-69
3.86633	-68
3.87000	-70
3.87367	-73
3.87733	-75
3.88100	-75
3.88467	-75
3.88833	-72
3.89200	-75
3.89567	-80
3.89933	-85
3.90300	-89
3.90667	-91
3.91033	-92
3.91400	-93
3.91767	-93
3.92133	-90
3.92500	-83
3.92867	-76
3.93233	-74
3.93600	-74
3.93967	-77
3.94333	-81
3.94700	-86
3.95067	-91
3.95433	-95
3.95800	-93
3.96167	-86
3.96533	-80
3.96900	-80
3.97267	-83
3.97633	-87
3.98000	-87
3.98367	-85
3.98733	-84
3.99100	-84
3.99467	-84
3.99833	-85

[Chromatogram (Ch2)]
Interval(msec)	220
# of Points	1091
Start Time(min)	0.002
End Time(min)	3.998
R.Time (min)	Intensity
0.00167	-1
0.00533	-1
0.00900	-1
0.01267	-1
0.01633	-1
0.02000	-2
0.02367	-2
0.02733	-2
0.03100	-2
0.03467	-2
0.03833	-2
0.04200	-2
0.04567	-2
0.04933	-2
0.05300	-2
0.05667	-2
0.06033	-2
0.06400	-2
0.06767	-2
0.07133	-2
0.07500	-2
0.07867	-2
0.08233	-2
0.08600	-2
0.08967	-2
0.09333	-2
0.09700	-2
0.10067	-2
0.10433	-2
0.10800	-2
0.11167	-2
0.11533	-2
0.11900	-2
0.12267	-1
0.12633	-1
0.13000	-1
0.13367	-1
0.13733	-1
0.14100	-1
0.14467	-1
0.14833	-1
0.15200	-1
0.15567	-0
0.15933	-0
0.16300	0
0.16667	0
0.17033	1
0.17400	1
0.17767	2
0.18133	2
0.18500	2
0.18867	2
0.19233	3
0.19600	3
0.19967	3
0.20333	3
0.20700	3
0.21067	3
0.21433	3
0.21800	3
0.22167	3
0.22533	3
0.22900	3
0.23267	3
0.23633	2
0.24000	2
0.24367	2
0.24733	1
0.25100	1
0.25467	1
0.25833	0
0.26200	-0
0.26567	-0
0.26933	-0
0.27300	-0
0.27667	-0
0.28033	-0
0.28400	-0
0.28767	-0
0.29133	-0
0.29500	-0
0.29867	-0
0.30233	-0
0.30600	-0
0.30967	0
0.31333	0
0.31700	-0
0.32067	-0
0.32433	-0
0.32800	-1
0.33167	-1
0.33533	-1
0.33900	-1
0.34267	-1
0.34633	-1
0.35000	-1
0.35367	-1
0.35733	-1
0.36100	-0
0.36467	-0
0.36833	-0
0.37200	-0
0.37567	-1
0.37933	-0
0.38300	-0
0.38667	-0
0.39033	-0
0.39400	-0
0.39767	-0
0.40133	-0
0.40500	-1
0.40867	-1
0.41233	-1
0.41600	-1
0.41967	-1
0.42333	-2
0.42700	-2
0.43067	-2
0.43433	-2
0.43800	-1
0.44167	-1
0.44533	-1
0.44900	-1
0.45267	-0
0.45633	-0
0.46000	-0
0.46367	0
0.46733	0
0.47100	1
0.47467	1
0.47833	1
0.48200	1
0.48567	1
0.48933	1
0.49300	1
0.49667	1
0.50033	1
0.50400	1
0.50767	1
0.51133	1
0.51500	1
0.51867	1
0.52233	1
0.52600	1
0.52967	1
0.53333	1
0.53700	1
0.54067	1
0.54433	1
0.54800	1
0.55167	1
0.55533	2
0.55900	2
0.56267	2
0.56633	2
0.57000	2
0.57367	1
0.57733	1
0.58100	1
0.58467	0
0.58833	0
0.59200	0
0.59567	1
0.59933	1
0.60300	1
0.60667	1
0.61033	1
0.61400	1
0.61767	1
0.62133	1
0.62500	1
0.62867	1
0.63233	1
0.63600	1
0.63967	0
0.64333	0
0.64700	-0
0.65067	-0
0.65433	-0
0.65800	-0
0.66167	-0
0.66533	-0
0.66900	-0
0.67267	-1
0.67633	-1
0.68000	-1
0.68367	-1
0.68733	-2
0.69100	-2
0.69467	-2
0.69833	-2
0.70200	-1
0.70567	-2
0.70933	-2
0.71300	-2
0.71667	-2
0.72033	-2
0.72400	-2
0.72767	-2
0.73133	-2
0.73500	-2
0.73867	-2
0.74233	-2
0.74600	-2
0.74967	-3
0.75333	-3
0.75700	-3
0.76067	-2
0.76433	-2
0.76800	-2
0.77167	-2
0.77533	-2
0.77900	-2
0.78267	-2
0.78633	-3
0.79000	-3
0.79367	-3
0.79733	-3
0.80100	-3
0.80467	-3
0.80833	-4
0.81200	-4
0.81567	-4
0.81933	-4
0.82300	-4
0.82667	-4
0.83033	-3
0.83400	-3
0.83767	-3
0.84133	-2
0.84500	-2
0.84867	-2
0.85233	-2
0.85600	-2
0.85967	-2
0.86333	-1
0.86700	-1
0.87067	-1
0.87433	-1
0.87800	-1
0.88167	-0
0.88533	-0
0.88900	-0
0.89267	-1
0.89633	-1
0.90000	-1
0.90367	-1
0.90733	-1
0.91100	-1
0.91467	-1
0.91833	-1
0.92200	-1
0.92567	-1
0.92933	-1
0.93300	-1
0.93667	-1
0.94033	-1
0.94400	-1
0.94767	-2
0.95133	-2
0.95500	-2
0.95867	-2
0.96233	-3
0.96600	-3
0.96967	-3
0.97333	-3
0.97700	-3
0.98067	-2
0.98433	-2
0.98800	-2
0.99167	-2
0.99533	-2
0.99900	-2
1.00267	-2
1.00633	-2
1.01000	-2
1.01367	-2
1.01733	-2
1.02100	-2
1.02467	-2
1.02833	-2
1.03200	-2
1.03567	-2
1.03933	-2
1.04300	-2
1.04667	-2
1.05033	-2
1.05400	-2
1.05767	-2
1.06133	-2
1.06500	-2
1.06867	-2
1.07233	-1
1.07600	-2
1.07967	-2
1.08333	-2
1.08700	-2
1.09067	-2
1.09433	-2
1.09800	-2
1.10167	-3
1.10533	-3
1.10900	-4
1.11267	-4
1.11633	-4
1.12000	-5
1.12367	-5
1.12733	-5
1.13100	-5
1.13467	-5
1.13833	-5
1.14200	-5
1.14567	-5
1.14933	-5
1.15300	-4
1.15667	-4
1.16033	-4
1.16400	-3
1.16767	-3
1.17133	-3
1.17500	-3
1.17867	-3
1.18233	-2
1.18600	-2
1.18967	-2
1.19333	-1
1.19700	-1
1.20067	-1
1.20433	-1
1.20800	-0
1.21167	-0
1.21533	-0
1.21900	0
1.22267	0
1.22633	1
1.23000	1
1.23367	1
1.23733	1
1.24100	0
1.24467	0
1.24833	-0
1.25200	-1
1.25567	-1
1.25933	-1
1.26300	-1
1.26667	-1
1.27033	-1
1.27400	-1
1.27767	-1
1.28133	-1
1.28500	-1
1.28867	-1
1.29233	-2
1.29600	-2
1.29967	-2
1.30333	-2
1.30700	-3
1.31067	-3
1.31433	-3
1.31800	-4
1.32167	-4
1.32533	-4
1.32900	-4
1.33267	-4
1.33633	-5
1.34000	-5
1.34367	-5
1.34733	-5
1.35100	-4
1.35467	-4
1.35833	-4
1.36200	-4
1.36567	-4
1.36933	-3
1.37300	-3
1.37667	-3
1.38033	-3
1.38400	-3
1.38767	-3
1.39133	-2
1.39500	-2
1.39867	-2
1.40233	-2
1.40600	-2
1.40967	-2
1.41333	-2
1.41700	-2
1.42067	-2
1.42433	-1
1.42800	-1
1.43167	-0
1.43533	0
1.43900	1
1.44267	1
1.44633	1
1.45000	2
1.45367	2
1.45733	2
1.46100	2
1.46467	2
1.46833	2
1.47200	2
1.47567	2
1.47933	2
1.48300	2
1.48667	2
1.49033	1
1.49400	1
1.49767	1
1.50133	1
1.50500	0
1.50867	0
1.51233	-0
1.51600	-0
1.51967	-1
1.52333	-1
1.52700	-1
1.53067	-1
1.53433	-1
1.53800	-1
1.54167	-1
1.54533	-1
1.54900	-1
1.55267	-1
1.55633	-1
1.56000	-1
1.56367	-1
1.56733	-0
1.57100	-0
1.57467	0
1.57833	0
1.58200	1
1.58567	1
1.58933	1
1.59300	1
1.59667	1
1.60033	0
1.60400	-1
1.60767	-2
1.61133	-4
1.61500	-6
1.61867	-9
1.62233	-12
1.62600	-15
1.62967	-19
1.63333	-22
1.63700	-26
1.64067	-29
1.64433	-33
1.64800	-36
1.65167	-40
1.65533	-44
1.65900	-48
1.66267	-53
1.66633	-58
1.67000	-63
1.67367	-68
1.67733	-74
1.68100	-79
1.68467	-84
1.68833	-89
1.69200	-93
1.69567	-96
1.69933	-99
1.70300	-101
1.70667	-103
1.71033	-104
1.71400	-106
1.71767	-106
1.72133	-107
1.72500	-107
1.72867	-108
1.73233	-109
1.73600	-110
1.73967	-111
1.74333	-112
1.74700	-113
1.75067	-114
1.75433	-115
1.75800	-115
1.76167	-116
1.76533	-116
1.76900	-116
1.77267	-115
1.77633	-115
1.78000	-116
1.78367	-117
1.78733	-117
1.79100	-118
1.79467	-119
1.79833	-120
1.80200	-121
1.80567	-121
1.80933	-122
1.81300	-122
1.81667	-122
1.82033	-123
1.82400	-123
1.82767	-123
1.83133	-122
1.83500	-122
1.83867	-121
1.84233	-120
1.84600	-119
1.84967	-118
1.85333	-118
1.85700	-118
1.86067	-119
1.86433	-119
1.86800	-119
1.87167	-120
1.87533	-120
1.87900	-120
1.88267	-120
1.88633	-120
1.89000	-120
1.89367	-119
1.89733	-118
1.90100	-118
1.90467	-118
1.90833	-118
1.91200	-118
1.91567	-118
1.91933	-118
1.92300	-118
1.92667	-118
1.93033	-118
1.93400	-118
1.93767	-118
1.94133	-117
1.94500	-117
1.94867	-117
1.95233	-116
1.95600	-116
1.95967	-116
1.96333	-116
1.96700	-116
1.97067	-116
1.97433	-116
1.97800	-115
1.98167	-115
1.98533	-115
1.98900	-114
1.99267	-113
1.99633	-113
2.00000	-112
2.00367	-112
2.00733	-112
2.01100	-112
2.01467	-112
2.01833	-112
2.02200	-113
2.02567	-113
2.02933	-112
2.03300	-112
2.03667	-112
2.04033	-111
2.04400	-110
2.04767	-110
2.05133	-110
2.05500	-110
2.05867	-110
2.06233	-110
2.06600	-110
2.06967	-110
2.07333	-110
2.07700	-109
2.08067	-109
2.08433	-108
2.08800	-107
2.09167	-107
2.09533	-106
2.09900	-106
2.10267	-106
2.10633	-106
2.11000	-106
2.11367	-106
2.11733	-106
2.12100	-106
2.12467	-106
2.12833	-105
2.13200	-105
2.13567	-105
2.13933	-104
2.14300	-103
2.14667	-103
2.15033	-102
2.15400	-101
2.15767	-101
2.16133	-100
2.16500	-99
2.16867	-99
2.17233	-98
2.17600	-98
2.17967	-98
2.18333	-98
2.18700	-98
2.19067	-98
2.19433	-98
2.19800	-98
2.20167	-97
2.20533	-97
2.20900	-97
2.21267	-97
2.21633	-96
2.22000	-96
2.22367	-95
2.22733	-95
2.23100	-95
2.23467	-95
2.23833	-95
2.24200	-96
2.24567	-97
2.24933	-97
2.25300	-97
2.25667	-96
2.26033	-95
2.26400	-94
2.26767	-93
2.27133	-93
2.27500	-92
2.27867	-91
2.28233	-91
2.28600	-91
2.28967	-90
2.29333	-89
2.29700	-89
2.30067	-89
2.30433	-89
2.30800	-89
2.31167	-90
2.31533	-91
2.31900	-91
2.32267	-91
2.32633	-91
2.33000	-90
2.33367	-89
2.33733	-88
2.34100	-86
2.34467	-85
2.34833	-84
2.35200	-83
2.35567	-82
2.35933	-81
2.36300	-80
2.36667	-79
2.37033	-77
2.37400	-76
2.37767	-73
2.38133	-70
2.38500	-67
2.38867	-63
2.39233	-60
2.39600	-55
2.39967	-51
2.40333	-46
2.40700	-41
2.41067	-37
2.41433	-33
2.41800	-29
2.42167	-26
2.42533	-23
2.42900	-20
2.43267	-18
2.43633	-15
2.44000	-13
2.44367	-11
2.44733	-9
2.45100	-7
2.45467	-6
2.45833	-4
2.46200	-3
2.46567	-1
2.46933	0
2.47300	1
2.47667	2
2.48033	3
2.48400	4
2.48767	5
2.49133	6
2.49500	6
2.49867	7
2.50233	7
2.50600	8
2.50967	9
2.51333	9
2.51700	10
2.52067	11
2.52433	11
2.52800	11
2.53167	12
2.53533	12
2.53900	12
2.54267	12
2.54633	12
2.55000	12
2.55367	13
2.55733	13
2.56100	13
2.56467	14
2.56833	15
2.57200	15
2.57567	16
2.57933	16
2.58300	16
2.58667	17
2.59033	17
2.59400	18
2.59767	18
2.60133	19
2.60500	19
2.60867	19
2.61233	19
2.61600	18
2.61967	18
2.62333	18
2.62700	18
2.63067	18
2.63433	18
2.63800	18
2.64167	18
2.64533	18
2.64900	18
2.65267	19
2.65633	19
2.66000	19
2.66367	20
2.66733	20
2.67100	20
2.67467	20
2.67833	20
2.68200	21
2.68567	21
2.68933	22
2.69300	22
2.69667	23
2.70033	24
2.70400	24
2.70767	25
2.71133	25
2.71500	24
2.71867	24
2.72233	24
2.72600	23
2.72967	23
2.73333	23
2.73700	23
2.74067	23
2.74433	23
2.74800	23
2.75167	24
2.75533	24
2.75900	24
2.76267	24
2.76633	25
2.77000	25
2.77367	25
2.77733	25
2.78100	25
2.78467	25
2.78833	25
2.79200	26
2.79567	26
2.79933	26
2.80300	26
2.80667	26
2.81033	26
2.81400	26
2.81767	26
2.82133	26
2.82500	26
2.82867	26
2.83233	26
2.83600	27
2.83967	27
2.84333	27
2.84700	26
2.85067	26
2.85433	24
2.85800	21
2.86167	16
2.86533	7
2.86900	-5
2.87267	-21
2.87633	-42
2.88000	-68
2.88367	-99
2.88733	-136
2.89100	-177
2.89467	-223
2.89833	-274
2.90200	-329
2.90567	-388
2.90933	-451
2.91300	-519
2.91667	-589
2.92033	-662
2.92400	-739
2.92767	-819
2.93133	-897
2.93500	-963
2.93867	-1010
2.94233	-1030
2.94600	-1022
2.94967	-990
2.95333	-939
2.95700	-875
2.96067	-803
2.96433	-728
2.96800	-653
2.97167	-580
2.97533	-511
2.97900	-447
2.98267	-390
2.98633	-337
2.99000	-291
2.99367	-249
2.99733	-213
3.00100	-181
3.00467	-153
3.00833	-130
3.01200	-109
3.01567	-91
3.01933	-76
3.02300	-63
3.02667	-52
3.03033	-42
3.03400	-34
3.03767	-26
3.04133	-20
3.04500	-14
3.04867	-10
3.05233	-6
3.05600	-2
3.05967	0
3.06333	3
3.06700	5
3.07067	7
3.07433	8
3.07800	9
3.08167	10
3.08533	11
3.08900	12
3.09267	13
3.09633	13
3.10000	14
3.10367	15
3.10733	15
3.11100	15
3.11467	16
3.11833	16
3.12200	16
3.12567	17
3.12933	17
3.13300	18
3.13667	18
3.14033	18
3.14400	18
3.14767	19
3.15133	19
3.15500	19
3.15867	20
3.16233	20
3.16600	20
3.16967	20
3.17333	20
3.17700	20
3.18067	20
3.18433	20
3.18800	20
3.19167	20
3.19533	21
3.19900	21
3.20267	21
3.20633	22
3.21000	23
3.21367	23
3.21733	24
3.22100	24
3.22467	25
3.22833	25
3.23200	25
3.23567	25
3.23933	26
3.24300	26
3.24667	26
3.25033	26
3.25400	26
3.25767	26
3.26133	26
3.26500	26
3.26867	26
3.27233	26
3.27600	26
3.27967	26
3.28333	26
3.28700	26
3.29067	26
3.29433	26
3.29800	26
3.30167	26
3.30533	26
3.30900	26
3.31267	27
3.31633	27
3.32000	27
3.32367	27
3.32733	27
3.33100	27
3.33467	27
3.33833	27
3.34200	27
3.34567	27
3.34933	27
3.35300	27
3.35667	27
3.36033	27
3.36400	27
3.36767	27
3.37133	27
3.37500	27
3.37867	27
3.38233	27
3.38600	27
3.38967	28
3.39333	28
3.39700	28
3.40067	28
3.40433	28
3.40800	28
3.41167	28
3.41533	28
3.41900	28
3.42267	28
3.42633	28
3.43000	28
3.43367	28
3.43733	28
3.44100	28
3.44467	28
3.44833	28
3.45200	28
3.45567	28
3.45933	28
3.46300	28
3.46667	27
3.47033	27
3.47400	27
3.47767	27
3.48133	27
3.48500	27
3.48867	27
3.49233	27
3.49600	27
3.49967	27
3.50333	26
3.50700	26
3.51067	26
3.51433	26
3.51800	26
3.52167	26
3.52533	26
3.52900	27
3.53267	27
3.53633	27
3.54000	27
3.54367	27
3.54733	27
3.55100	27
3.55467	27
3.55833	27
3.56200	26
3.56567	26
3.56933	26
3.57300	26
3.57667	26
3.58033	26
3.58400	26
3.58767	26
3.59133	26
3.59500	26
3.59867	26
3.60233	26
3.60600	26
3.60967	26
3.61333	26
3.61700	26
3.62067	26
3.62433	26
3.62800	26
3.63167	27
3.63533	27
3.63900	27
3.64267	27
3.64633	28
3.65000	28
3.65367	28
3.65733	28
3.66100	29
3.66467	29
3.66833	29
3.67200	29
3.67567	29
3.67933	30
3.68300	30
3.68667	30
3.69033	30
3.69400	30
3.69767	30
3.70133	30
3.70500	30
3.70867	30
3.71233	30
3.71600	30
3.71967	30
3.72333	30
3.72700	30
3.73067	30
3.73433	30
3.73800	30
3.74167	30
3.74533	29
3.74900	29
3.75267	29
3.75633	29
3.76000	29
3.76367	29
3.76733	28
3.77100	28
3.77467	28
3.77833	28
3.78200	29
3.78567	29
3.78933	29
3.79300	29
3.79667	29
3.80033	29
3.80400	29
3.80767	29
3.81133	29
3.81500	29
3.81867	29
3.82233	29
3.82600	29
3.82967	29
3.83333	29
3.83700	29
3.84067	29
3.84433	29
3.84800	29
3.85167	29
3.85533	28
3.85900	28
3.86267	28
3.86633	28
3.87000	28
3.87367	28
3.87733	28
3.88100	28
3.88467	28
3.88833	28
3.89200	28
3.89567	28
3.89933	28
3.90300	28
3.90667	28
3.91033	28
3.91400	28
3.91767	28
3.92133	28
3.92500	28
3.92867	28
3.93233	28
3.93600	27
3.93967	27
3.94333	27
3.94700	27
3.95067	27
3.95433	27
3.95800	27
3.96167	27
3.96533	27
3.96900	27
3.97267	27
3.97633	27
3.98000	27
3.98367	27
3.98733	27
3.99100	27
3.99467	27
3.99833	27

[Chromatogram (Ch3)]
Interval(msec)	220
# of Points	1091
Start Time(min)	0.002
End Time(min)	3.998
R.Time (min)	Intensity
0.00167	-0
0.00533	-2
0.00900	-2
0.01267	-4
0.01633	-4
0.02000	-4
0.02367	-3
0.02733	-2
0.03100	-3
0.03467	-3
0.03833	-3
0.04200	-2
0.04567	-1
0.04933	-2
0.05300	-2
0.05667	-3
0.06033	-3
0.06400	-1
0.06767	0
0.07133	-1
0.07500	-4
0.07867	-7
0.08233	-7
0.08600	-7
0.08967	-5
0.09333	-4
0.09700	-3
0.10067	-4
0.10433	-5
0.10800	-5
0.11167	-4
0.11533	-2
0.11900	1
0.12267	2
0.12633	-2
0.13000	-2
0.13367	-0
0.13733	1
0.14100	-0
0.14467	-3
0.14833	-4
0.15200	-3
0.15567	-2
0.15933	1
0.16300	3
0.16667	2
0.17033	1
0.17400	1
0.17767	0
0.18133	0
0.18500	-0
0.18867	-1
0.19233	-3
0.19600	-4
0.19967	-4
0.20333	-5
0.20700	-6
0.21067	-5
0.21433	-4
0.21800	-2
0.22167	-1
0.22533	-1
0.22900	-0
0.23267	2
0.23633	2
0.24000	2
0.24367	2
0.24733	-1
0.25100	-2
0.25467	-3
0.25833	-4
0.26200	-3
0.26567	-3
0.26933	-3
0.27300	-2
0.27667	-2
0.28033	0
0.28400	-0
0.28767	-2
0.29133	-1
0.29500	1
0.29867	0
0.30233	0
0.30600	-0
0.30967	-2
0.31333	-5
0.31700	-7
0.32067	-8
0.32433	-8
0.32800	-7
0.33167	-6
0.33533	-5
0.33900	-3
0.34267	-2
0.34633	-2
0.35000	-2
0.35367	-4
0.35733	-4
0.36100	-2
0.36467	-2
0.36833	-3
0.37200	-4
0.37567	-7
0.37933	-9
0.38300	-8
0.38667	-6
0.39033	-5
0.39400	-4
0.39767	-3
0.40133	-4
0.40500	-5
0.40867	-5
0.41233	-6
0.41600	-7
0.41967	-8
0.42333	-8
0.42700	-7
0.43067	-6
0.43433	-3
0.43800	-0
0.44167	1
0.44533	2
0.44900	-0
0.45267	-3
0.45633	-6
0.46000	-8
0.46367	-8
0.46733	-10
0.47100	-11
0.47467	-11
0.47833	-9
0.48200	-10
0.48567	-9
0.48933	-8
0.49300	-8
0.49667	-8
0.50033	-8
0.50400	-8
0.50767	-8
0.51133	-7
0.51500	-9
0.51867	-9
0.52233	-8
0.52600	-10
0.52967	-12
0.53333	-12
0.53700	-11
0.54067	-10
0.54433	-11
0.54800	-12
0.55167	-11
0.55533	-9
0.55900	-8
0.56267	-6
0.56633	-5
0.57000	-7
0.57367	-9
0.57733	-11
0.58100	-11
0.58467	-11
0.58833	-10
0.59200	-10
0.59567	-11
0.59933	-12
0.60300	-10
0.60667	-8
0.61033	-8
0.61400	-11
0.61767	-12
0.62133	-13
0.62500	-14
0.62867	-14
0.63233	-11
0.63600	-8
0.63967	-6
0.64333	-4
0.64700	-3
0.65067	-4
0.65433	-6
0.65800	-7
0.66167	-8
0.66533	-6
0.66900	-4
0.67267	-3
0.67633	-4
0.68000	-5
0.68367	-6
0.68733	-8
0.69100	-9
0.69467	-9
0.69833	-8
0.70200	-9
0.70567	-10
0.70933	-10
0.71300	-10
0.71667	-8
0.72033	-6
0.72400	-5
0.72767	-4
0.73133	-4
0.73500	-5
0.73867	-6
0.74233	-8
0.74600	-9
0.74967	-8
0.75333	-5
0.75700	-2
0.76067	1
0.76433	-1
0.76800	-1
0.77167	-0
0.77533	-2
0.77900	-6
0.78267	-7
0.78633	-9
0.79000	-11
0.79367	-10
0.79733	-9
0.80100	-7
0.80467	-6
0.80833	-5
0.81200	-4
0.81567	-4
0.81933	-3
0.82300	-4
0.82667	-4
0.83033	-3
0.83400	-2
0.83767	-3
0.84133	-6
0.84500	-8
0.84867	-11
0.85233	-14
0.85600	-15
0.85967	-15
0.86333	-15
0.86700	-14
0.87067	-8
0.87433	-5
0.87800	-4
0.88167	-4
0.88533	-4
0.88900	-4
0.89267	-4
0.89633	-3
0.90000	-4
0.90367	-5
0.90733	-6
0.91100	-8
0.91467	-11
0.91833	-11
0.92200	-9
0.92567	-8
0.92933	-8
0.93300	-8
0.93667	-9
0.94033	-11
0.94400	-13
0.94767	-14
0.95133	-13
0.95500	-12
0.95867	-9
0.96233	-7
0.96600	-7
0.96967	-7
0.97333	-5
0.97700	-6
0.98067	-6
0.98433	-5
0.98800	-7
0.99167	-8
0.99533	-9
0.99900	-7
1.00267	-5
1.00633	-6
1.01000	-7
1.01367	-7
1.01733	-7
1.02100	-8
1.02467	-9
1.02833	-9
1.03200	-9
1.03567	-9
1.03933	-9
1.04300	-9
1.04667	-9
1.05033	-9
1.05400	-10
1.05767	-10
1.06133	-9
1.06500	-6
1.06867	-2
1.07233	-2
1.07600	-5
1.07967	-10
1.08333	-12
1.08700	-13
1.09067	-13
1.09433	-12
1.09800	-13
1.10167	-14
1.10533	-14
1.10900	-13
1.11267	-11
1.11633	-10
1.12000	-8
1.12367	-9
1.12733	-10
1.13100	-10
1.13467	-10
1.13833	-11
1.14200	-11
1.14567	-10
1.14933	-11
1.15300	-13
1.15667	-14
1.16033	-13
1.16400	-13
1.16767	-12
1.17133	-10
1.17500	-9
1.17867	-10
1.18233	-14
1.18600	-16
1.18967	-16
1.19333	-16
1.19700	-18
1.20067	-16
1.20433	-13
1.20800	-12
1.21167	-14
1.21533	-14
1.21900	-12
1.22267	-10
1.22633	-9
1.23000	-9
1.23367	-11
1.23733	-11
1.24100	-9
1.24467	-7
1.24833	-5
1.25200	-4
1.25567	-5
1.25933	-5
1.26300	-8
1.26667	-11
1.27033	-13
1.27400	-13
1.27767	-13
1.28133	-13
1.28500	-13
1.28867	-13
1.29233	-14
1.29600	-14
1.29967	-14
1.30333	-13
1.30700	-11
1.31067	-9
1.31433	-9
1.31800	-8
1.32167	-8
1.32533	-7
1.32900	-7
1.33267	-9
1.33633	-9
1.34000	-9
1.34367	-9
1.34733	-8
1.35100	-7
1.35467	-8
1.35833	-9
1.36200	-12
1.36567	-15
1.36933	-16
1.37300	-16
1.37667	-15
1.38033	-14
1.38400	-12
1.38767	-11
1.39133	-9
1.39500	-11
1.39867	-14
1.40233	-17
1.40600	-16
1.40967	-15
1.41333	-14
1.41700	-11
1.42067	-9
1.42433	-10
1.42800	-12
1.43167	-14
1.43533	-15
1.43900	-16
1.44267	-14
1.44633	-15
1.45000	-17
1.45367	-19
1.45733	-20
1.46100	-21
1.46467	-19
1.46833	-17
1.47200	-13
1.47567	-11
1.47933	-11
1.48300	-12
1.48667	-12
1.49033	-13
1.49400	-15
1.49767	-16
1.50133	-16
1.50500	-15
1.50867	-15
1.51233	-17
1.51600	-19
1.51967	-20
1.52333	-19
1.52700	-19
1.53067	-22
1.53433	-22
1.53800	-20
1.54167	-20
1.54533	-19
1.54900	-20
1.55267	-20
1.55633	-18
1.56000	-18
1.56367	-19
1.56733	-17
1.57100	-15
1.57467	-13
1.57833	-11
1.58200	-12
1.58567	-13
1.58933	-16
1.59300	-16
1.59667	-18
1.60033	-18
1.60400	-17
1.60767	-14
1.61133	-15
1.61500	-15
1.61867	-13
1.62233	-14
1.62600	-14
1.62967	-10
1.63333	-8
1.63700	-9
1.64067	-10
1.64433	-10
1.64800	-10
1.65167	-10
1.65533	-10
1.65900	-8
1.66267	-5
1.66633	-5
1.67000	-6
1.67367	-7
1.67733	-8
1.68100	-10
1.68467	-10
1.68833	-10
1.69200	-10
1.69567	-13
1.69933	-13
1.70300	-12
1.70667	-8
1.71033	-5
1.71400	-7
1.71767	-11
1.72133	-11
1.72500	-10
1.72867	-10
1.73233	-8
1.73600	-6
1.73967	-4
1.74333	-5
1.74700	-5
1.75067	-5
1.75433	-4
1.75800	-3
1.76167	-2
1.76533	-2
1.76900	-2
1.77267	-0
1.77633	1
1.78000	2
1.78367	1
1.78733	1
1.79100	1
1.79467	2
1.79833	2
1.80200	2
1.80567	3
1.80933	4
1.81300	5
1.81667	4
1.82033	3
1.82400	2
1.82767	2
1.83133	3
1.83500	4
1.83867	6
1.84233	9
1.84600	10
1.84967	11
1.85333	12
1.85700	13
1.86067	15
1.86433	15
1.86800	15
1.87167	14
1.87533	13
1.87900	13
1.88267	15
1.88633	18
1.89000	17
1.89367	15
1.89733	14
1.90100	16
1.90467	16
1.90833	18
1.91200	20
1.91567	21
1.91933	21
1.92300	21
1.92667	20
1.93033	20
1.93400	20
1.93767	21
1.94133	22
1.94500	22
1.94867	23
1.95233	25
1.95600	27
1.95967	26
1.96333	24
1.96700	24
1.97067	23
1.97433	24
1.97800	27
1.98167	28
1.98533	30
1.98900	34
1.99267	36
1.99633	37
2.00000	36
2.00367	37
2.00733	37
2.01100	36
2.01467	34
2.01833	32
2.02200	32
2.02567	37
2.02933	41
2.03300	41
2.03667	41
2.04033	41
2.04400	41
2.04767	40
2.05133	41
2.05500	43
2.05867	46
2.06233	48
2.06600	51
2.06967	54
2.07333	56
2.07700	57
2.08067	58
2.08433	60
2.08800	59
2.09167	59
2.09533	59
2.09900	63
2.10267	66
2.10633	64
2.11000	60
2.11367	59
2.11733	59
2.12100	62
2.12467	65
2.12833	70
2.13200	73
2.13567	74
2.13933	75
2.14300	75
2.14667	77
2.15033	78
2.15400	80
2.15767	82
2.16133	82
2.16500	82
2.16867	85
2.17233	86
2.17600	89
2.17967	91
2.18333	94
2.18700	96
2.19067	99
2.19433	100
2.19800	101
2.20167	104
2.20533	103
2.20900	101
2.21267	100
2.21633	103
2.22000	107
2.22367	110
2.22733	111
2.23100	113
2.23467	115
2.23833	119
2.24200	121
2.24567	121
2.24933	120
2.25300	117
2.25667	116
2.26033	115
2.26400	116
2.26767	118
2.27133	119
2.27500	121
2.27867	124
2.28233	127
2.28600	132
2.28967	135
2.29333	137
2.29700	138
2.30067	137
2.30433	135
2.30800	135
2.31167	137
2.31533	141
2.31900	144
2.32267	144
2.32633	144
2.33000	144
2.33367	144
2.33733	146
2.34100	148
2.34467	151
2.34833	154
2.35200	155
2.35567	156
2.35933	156
2.36300	156
2.36667	159
2.37033	160
2.37400	160
2.37767	159
2.38133	158
2.38500	155
2.38867	146
2.39233	146
2.39600	156
2.39967	169
2.40333	183
2.40700	199
2.41067	215
2.41433	230
2.41800	243
2.42167	255
2.42533	264
2.42900	271
2.43267	276
2.43633	278
2.44000	279
2.44367	279
2.44733	279
2.45100	279
2.45467	279
2.45833	280
2.46200	283
2.46567	286
2.46933	293
2.47300	304
2.47667	314
2.48033	325
2.48400	339
2.48767	352
2.49133	368
2.49500	382
2.49867	395
2.50233	406
2.50600	415
2.50967	425
2.51333	433
2.51700	440
2.52067	444
2.52433	448
2.52800	452
2.53167	457
2.53533	459
2.53900	462
2.54267	464
2.54633	467
2.55000	473
2.55367	479
2.55733	483
2.56100	487
2.56467	492
2.56833	495
2.57200	497
2.57567	500
2.57933	506
2.58300	511
2.58667	515
2.59033	517
2.59400	518
2.59767	516
2.60133	510
2.60500	498
2.60867	479
2.61233	451
2.61600	414
2.61967	370
2.62333	327
2.62700	286
2.63067	253
2.63433	227
2.63800	211
2.64167	199
2.64533	191
2.64900	187
2.65267	189
2.65633	193
2.66000	198
2.66367	206
2.66733	217
2.67100	226
2.67467	235
2.67833	245
2.68200	253
2.68567	263
2.68933	274
2.69300	282
2.69667	290
2.70033	297
2.70400	305
2.70767	312
2.71133	320
2.71500	327
2.71867	335
2.72233	343
2.72600	352
2.72967	358
2.73333	363
2.73700	367
2.74067	372
2.74433	378
2.74800	386
2.75167	396
2.75533	402
2.75900	409
2.76267	414
2.76633	416
2.77000	420
2.77367	424
2.77733	428
2.78100	430
2.78467	435
2.78833	440
2.79200	444
2.79567	451
2.79933	459
2.80300	465
2.80667	468
2.81033	469
2.81400	469
2.81767	472
2.82133	483
2.82500	502
2.82867	539
2.83233	621
2.83600	793
2.83967	1123
2.84333	1680
2.84700	2511
2.85067	3627
2.85433	4975
2.85800	6459
2.86167	7941
2.86533	9281
2.86900	10356
2.87267	11082
2.87633	11441
2.88000	11456
2.88367	11179
2.88733	10680
2.89100	10032
2.89467	9292
2.89833	8512
2.90200	7731
2.90567	6979
2.90933	6271
2.91300	5616
2.91667	5014
2.92033	4470
2.92400	3981
2.92767	3544
2.93133	3157
2.93500	2815
2.93867	2517
2.94233	2256
2.94600	2029
2.94967	1828
2.95333	1652
2.95700	1499
2.96067	1368
2.96433	1256
2.96800	1156
2.97167	1068
2.97533	993
2.97900	927
2.98267	869
2.98633	822
2.99000	780
2.99367	743
2.99733	713
3.00100	687
3.00467	663
3.00833	641
3.01200	625
3.01567	610
3.01933	596
3.02300	583
3.02667	572
3.03033	563
3.03400	552
3.03767	537
3.04133	524
3.04500	515
3.04867	512
3.05233	509
3.05600	503
3.05967	499
3.06333	496
3.06700	492
3.07067	486
3.07433	480
3.07800	475
3.08167	475
3.08533	473
3.08900	469
3.09267	464
3.09633	458
3.10000	451
3.10367	448
3.10733	444
3.11100	441
3.11467	437
3.11833	432
3.12200	427
3.12567	422
3.12933	417
3.13300	410
3.13667	407
3.14033	402
3.14400	398
3.14767	396
3.15133	392
3.15500	389
3.15867	386
3.16233	381
3.16600	378
3.16967	375
3.17333	372
3.17700	368
3.18067	364
3.18433	360
3.18800	355
3.19167	352
3.19533	351
3.19900	348
3.20267	347
3.20633	345
3.21000	342
3.21367	338
3.21733	335
3.22100	334
3.22467	333
3.22833	328
3.23200	325
3.23567	322
3.23933	318
3.24300	313
3.24667	306
3.25033	302
3.25400	299
3.25767	297
3.26133	295
3.26500	295
3.26867	294
3.27233	290
3.27600	287
3.27967	283
3.28333	279
3.28700	275
3.29067	271
3.29433	268
3.29800	267
3.30167	265
3.30533	264
3.30900	263
3.31267	263
3.31633	260
3.32000	257
3.32367	253
3.32733	249
3.33100	246
3.33467	241
3.33833	239
3.34200	237
3.34567	235
3.34933	232
3.35300	229
3.35667	224
3.36033	222
3.36400	222
3.36767	222
3.37133	224
3.37500	225
3.37867	222
3.38233	218
3.38600	215
3.38967	212
3.39333	211
3.39700	210
3.40067	207
3.40433	203
3.40800	200
3.41167	198
3.41533	195
3.41900	195
3.42267	193
3.42633	188
3.43000	184
3.43367	183
3.43733	181
3.44100	179
3.44467	178
3.44833	176
3.45200	176
3.45567	175
3.45933	173
3.46300	169
3.46667	167
3.47033	164
3.47400	162
3.47767	160
3.48133	157
3.48500	154
3.48867	154
3.49233	154
3.49600	153
3.49967	150
3.50333	147
3.50700	143
3.51067	140
3.51433	139
3.51800	137
3.52167	134
3.52533	132
3.52900	129
3.53267	129
3.53633	131
3.54000	130
3.54367	129
3.54733	127
3.55100	127
3.55467	126
3.55833	125
3.56200	123
3.56567	122
3.56933	120
3.57300	114
3.57667	108
3.58033	107
3.58400	108
3.58767	108
3.59133	107
3.59500	104
3.59867	104
3.60233	103
3.60600	103
3.60967	103
3.61333	102
3.61700	100
3.62067	99
3.62433	97
3.62800	95
3.63167	92
3.63533	90
3.63900	86
3.64267	80
3.64633	77
3.65000	77
3.65367	80
3.65733	80
3.66100	81
3.66467	79
3.66833	76
3.67200	73
3.67567	68
3.67933	64
3.68300	60
3.68667	58
3.69033	57
3.69400	58
3.69767	57
3.70133	56
3.70500	56
3.70867	54
3.71233	50
3.71600	44
3.71967	42
3.72333	43
3.72700	42
3.73067	42
3.73433	40
3.73800	38
3.74167	36
3.74533	35
3.74900	35
3.75267	33
3.75633	28
3.76000	23
3.76367	19
3.76733	19
3.77100	19
3.77467	17
3.77833	15
3.78200	14
3.78567	13
3.78933	12
3.79300	12
3.79667	13
3.80033	12
3.80400	12
3.80767	13
3.81133	12
3.81500	8
3.81867	3
3.82233	0
3.82600	-0
3.82967	1
3.83333	1
3.83700	2
3.84067	3
3.84433	-1
3.84800	-2
3.85167	-3
3.85533	-5
3.85900	-8
3.86267	-10
3.86633	-13
3.87000	-16
3.87367	-17
3.87733	-15
3.88100	-15
3.88467	-17
3.88833	-18
3.89200	-20
3.89567	-21
3.89933	-22
3.90300	-24
3.90667	-28
3.91033	-31
3.91400	-32
3.91767	-33
3.92133	-35
3.92500	-35
3.92867	-36
3.93233	-37
3.93600	-38
3.93967	-38
3.94333	-40
3.94700	-41
3.95067	-43
3.95433	-45
3.95800	-47
3.96167	-46
3.96533	-45
3.96900	-45
3.97267	-47
3.97633	-48
3.98000	-49
3.98367	-51
3.98733	-52
3.99100	-53
3.99467	-56
3.99833	-68

[Status Trace (Column Oven Temperature)]
Interval(msec)	1000
# of Points	240
Start Time(min)	0.001
End Time(min)	3.984
Intensity Units	
Intensity Multiplier	1
R.Time (min)	Intensity
0.00060	35.00
0.01727	35.01
0.03393	35.01
0.05060	35.00
0.06727	35.02
0.08393	35.02
0.10060	35.04
0.11727	35.04
0.13393	35.04
0.15060	35.03
0.16727	35.02
0.18393	35.01
0.20060	34.99
0.21727	34.99
0.23393	34.99
0.25060	35.00
0.26727	35.00
0.28393	35.00
0.30060	35.00
0.31727	35.00
0.33393	35.00
0.35060	35.01
0.36727	35.02
0.38393	35.01
0.40060	35.01
0.41727	35.01
0.43393	35.01
0.45060	35.01
0.46727	35.00
0.48393	35.00
0.50060	34.99
0.51727	34.99
0.53393	34.98
0.55060	34.97
0.56727	34.97
0.58393	34.96
0.60060	34.95
0.61727	34.95
0.63393	34.95
0.65060	34.96
0.66727	34.96
0.68393	34.97
0.70060	34.97
0.71727	34.98
0.73393	34.98
0.75060	34.98
0.76727	34.98
0.78393	34.99
0.80060	35.00
0.81727	35.02
0.83393	35.01
0.85060	35.00
0.86727	35.00
0.88393	35.00
0.90060	35.00
0.91727	35.00
0.93393	34.99
0.95060	34.99
0.96727	34.99
0.98393	34.99
1.00060	34.99
1.01727	34.99
1.03393	34.99
1.05060	34.99
1.06727	34.99
1.08393	34.98
1.10060	35.00
1.11727	35.02
1.13393	35.04
1.15060	35.04
1.16727	35.05
1.18393	35.03
1.20060	35.01
1.21727	35.00
1.23393	35.00
1.25060	35.00
1.26727	35.01
1.28393	35.01
1.30060	35.02
1.31727	35.03
1.33393	35.05
1.35060	35.05
1.36727	35.05
1.38393	35.04
1.40060	35.04
1.41727	35.03
1.43393	35.02
1.45060	35.00
1.46727	34.99
1.48393	34.99
1.50060	34.99
1.51727	35.00
1.53393	34.99
1.55060	34.98
1.56727	34.98
1.58393	34.98
1.60060	35.00
1.61727	35.09
1.63393	35.26
1.65060	35.48
1.66727	35.79
1.68393	36.17
1.70060	36.53
1.71727	36.86
1.73393	37.20
1.75060	37.54
1.76727	37.85
1.78393	38.19
1.80060	38.53
1.81727	38.86
1.83393	39.19
1.85060	39.51
1.86727	39.84
1.88393	40.17
1.90060	40.49
1.91727	40.82
1.93393	41.14
1.95060	41.46
1.96727	41.79
1.98393	42.12
2.00060	42.42
2.01727	42.75
2.03393	43.07
2.05060	43.41
2.06727	43.75
2.08393	44.06
2.10060	44.38
2.11727	44.70
2.13393	45.03
2.15060	45.36
2.16727	45.68
2.18393	46.01
2.20060	46.34
2.21727	46.66
2.23393	47.02
2.25060	47.35
2.26727	47.67
2.28393	48.01
2.30060	48.34
2.31727	48.71
2.33393	49.02
2.35060	49.30
2.36727	49.55
2.38393	49.66
2.40060	49.66
2.41727	49.67
2.43393	49.68
2.45060	49.69
2.46727	49.68
2.48393	49.71
2.50060	49.72
2.51727	49.72
2.53393	49.74
2.55060	49.76
2.56727	49.77
2.58393	49.79
2.60060	49.80
2.61727	49.83
2.63393	49.84
2.65060	49.85
2.66727	49.86
2.68393	49.86
2.70060	49.84
2.71727	49.86
2.73393	49.87
2.75060	49.87
2.76727	49.87
2.78393	49.86
2.80060	49.86
2.81727	49.87
2.83393	49.88
2.85060	49.88
2.86727	49.89
2.88393	49.91
2.90060	49.93
2.91727	49.95
2.93393	49.96
2.95060	49.99
2.96727	50.01
2.98393	50.02
3.00060	50.03
3.01727	50.04
3.03393	50.05
3.05060	50.04
3.06727	50.04
3.08393	50.06
3.10060	50.07
3.11727	50.08
3.13393	50.09
3.15060	50.09
3.16727	50.10
3.18393	50.12
3.20060	50.11
3.21727	50.10
3.23393	50.08
3.25060	50.07
3.26727	50.08
3.28393	50.08
3.30060	50.07
3.31727	50.08
3.33393	50.07
3.35060	50.06
3.36727	50.06
3.38393	50.05
3.40060	50.04
3.41727	50.03
3.43393	50.04
3.45060	50.03
3.46727	50.04
3.48393	50.03
3.50060	50.04
3.51727	50.03
3.53393	50.04
3.55060	50.05
3.56727	50.07
3.58393	50.07
3.60060	50.08
3.61727	50.09
3.63393	50.09
3.65060	50.10
3.66727	50.08
3.68393	50.08
3.70060	50.07
3.71727	50.06
3.73393	50.05
3.75060	50.05
3.76727	50.06
3.78393	50.05
3.80060	50.05
3.81727	50.05
3.83393	50.04
3.85060	50.04
3.86727	50.04
3.88393	50.04
3.90060	50.04
3.91727	50.04
3.93393	50.04
3.95060	50.04
3.96727	50.05
3.98393	50.05

[Status Trace (Injection Unit Temperature)]
Interval(msec)	1000
# of Points	240
Start Time(min)	0.001
End Time(min)	3.984
Intensity Units	
Intensity Multiplier	1
R.Time (min)	Intensity
0.00060	99.98
0.01727	99.99
0.03393	99.99
0.05060	99.98
0.06727	99.99
0.08393	99.99
0.10060	99.99
0.11727	99.99
0.13393	99.99
0.15060	99.99
0.16727	99.99
0.18393	99.98
0.20060	99.99
0.21727	99.99
0.23393	99.98
0.25060	99.99
0.26727	99.99
0.28393	99.99
0.30060	99.99
0.31727	99.99
0.33393	99.99
0.35060	99.99
0.36727	99.99
0.38393	99.99
0.40060	99.99
0.41727	99.99
0.43393	99.99
0.45060	99.99
0.46727	99.99
0.48393	99.99
0.50060	99.99
0.51727	99.99
0.53393	99.99
0.55060	99.99
0.56727	99.99
0.58393	99.99
0.60060	99.99
0.61727	99.99
0.63393	99.99
0.65060	99.99
0.66727	99.99
0.68393	99.99
0.70060	99.99
0.71727	99.99
0.73393	99.99
0.75060	99.99
0.76727	99.99
0.78393	99.99
0.80060	99.99
0.81727	99.99
0.83393	99.99
0.85060	99.99
0.86727	99.99
0.88393	99.99
0.90060	99.99
0.91727	99.99
0.93393	99.99
0.95060	99.99
0.96727	99.99
0.98393	99.99
1.00060	99.99
1.01727	99.99
1.03393	99.99
1.05060	99.99
1.06727	99.99
1.08393	99.99
1.10060	99.99
1.11727	99.99
1.13393	99.99
1.15060	99.99
1.16727	99.99
1.18393	99.99
1.20060	99.99
1.21727	99.99
1.23393	99.99
1.25060	99.99
1.26727	99.99
1.28393	99.99
1.30060	99.99
1.31727	99.99
1.33393	99.99
1.35060	99.99
1.36727	99.99
1.38393	99.98
1.40060	99.99
1.41727	99.99
1.43393	99.99
1.45060	99.99
1.46727	99.99
1.48393	99.99
1.50060	99.99
1.51727	99.99
1.53393	99.99
1.55060	99.99
1.56727	99.99
1.58393	99.99
1.60060	99.99
1.61727	99.99
1.63393	99.99
1.65060	99.99
1.66727	99.98
1.68393	99.99
1.70060	99.99
1.71727	99.99
1.73393	99.99
1.75060	99.99
1.76727	99.99
1.78393	99.99
1.80060	99.99
1.81727	99.98
1.83393	99.98
1.85060	99.98
1.86727	99.98
1.88393	99.98
1.90060	99.98
1.91727	99.98
1.93393	99.98
1.95060	99.97
1.96727	99.98
1.98393	99.98
2.00060	99.97
2.01727	99.98
2.03393	99.98
2.05060	99.97
2.06727	99.98
2.08393	99.97
2.10060	99.97
2.11727	99.97
2.13393	99.97
2.15060	99.97
2.16727	99.97
2.18393	99.97
2.20060	99.97
2.21727	99.97
2.23393	99.97
2.25060	99.97
2.26727	99.97
2.28393	99.97
2.30060	99.97
2.31727	99.97
2.33393	99.98
2.35060	99.98
2.36727	99.98
2.38393	99.97
2.40060	99.97
2.41727	99.97
2.43393	99.97
2.45060	99.98
2.46727	99.97
2.48393	99.97
2.50060	99.98
2.51727	99.98
2.53393	99.98
2.55060	99.98
2.56727	99.98
2.58393	99.98
2.60060	99.99
2.61727	99.98
2.63393	99.99
2.65060	99.99
2.66727	99.99
2.68393	99.99
2.70060	99.99
2.71727	99.99
2.73393	99.99
2.75060	99.99
2.76727	99.99
2.78393	100.00
2.80060	99.99
2.81727	100.00
2.83393	100.00
2.85060	100.00
2.86727	100.00
2.88393	100.00
2.90060	100.01
2.91727	100.01
2.93393	100.01
2.95060	100.01
2.96727	100.01
2.98393	100.01
3.00060	100.01
3.01727	100.01
3.03393	100.02
3.05060	100.02
3.06727	100.02
3.08393	100.02
3.10060	100.02
3.11727	100.02
3.13393	100.02
3.15060	100.02
3.16727	100.02
3.18393	100.02
3.20060	100.03
3.21727	100.03
3.23393	100.02
3.25060	100.03
3.26727	100.03
3.28393	100.03
3.30060	100.03
3.31727	100.03
3.33393	100.03
3.35060	100.03
3.36727	100.03
3.38393	100.03
3.40060	100.03
3.41727	100.03
3.43393	100.03
3.45060	100.03
3.46727	100.03
3.48393	100.03
3.50060	100.04
3.51727	100.04
3.53393	100.04
3.55060	100.04
3.56727	100.04
3.58393	100.04
3.60060	100.04
3.61727	100.04
3.63393	100.04
3.65060	100.04
3.66727	100.04
3.68393	100.04
3.70060	100.04
3.71727	100.04
3.73393	100.04
3.75060	100.04
3.76727	100.05
3.78393	100.05
3.80060	100.04
3.81727	100.04
3.83393	100.05
3.85060	100.04
3.86727	100.04
3.88393	100.05
3.90060	100.04
3.91727	100.04
3.93393	100.05
3.95060	100.04
3.96727	100.05
3.98393	100.05

[Status Trace (Carrier Gas Pressure)]
Interval(msec)	1000
# of Points	240
Start Time(min)	0.001
End Time(min)	3.984
Intensity Units	
Intensity Multiplier	1
R.Time (min)	Intensity
0.00060	58.00
0.01727	56.57
0.03393	55.94
0.05060	58.27
0.06727	59.92
0.08393	58.52
0.10060	57.97
0.11727	58.00
0.13393	58.01
0.15060	58.01
0.16727	58.00
0.18393	58.00
0.20060	58.00
0.21727	58.00
0.23393	58.00
0.25060	58.00
0.26727	58.00
0.28393	58.00
0.30060	58.00
0.31727	58.00
0.33393	58.00
0.35060	58.00
0.36727	58.00
0.38393	58.00
0.40060	58.00
0.41727	58.00
0.43393	58.00
0.45060	58.00
0.46727	58.00
0.48393	58.00
0.50060	58.00
0.51727	58.00
0.53393	58.00
0.55060	58.00
0.56727	58.00
0.58393	58.00
0.60060	58.00
0.61727	58.00
0.63393	58.00
0.65060	58.00
0.66727	58.00
0.68393	58.00
0.70060	58.00
0.71727	58.00
0.73393	58.00
0.75060	58.00
0.76727	58.00
0.78393	58.00
0.80060	58.00
0.81727	58.00
0.83393	58.00
0.85060	58.00
0.86727	58.00
0.88393	58.00
0.90060	58.00
0.91727	58.00
0.93393	58.00
0.95060	58.00
0.96727	58.00
0.98393	58.00
1.00060	58.00
1.01727	58.00
1.03393	58.00
1.05060	58.00
1.06727	58.00
1.08393	58.00
1.10060	58.00
1.11727	58.00
1.13393	58.00
1.15060	58.00
1.16727	58.00
1.18393	58.00
1.20060	58.00
1.21727	58.00
1.23393	58.00
1.25060	58.00
1.26727	58.00
1.28393	58.00
1.30060	58.00
1.31727	58.00
1.33393	58.00
1.35060	58.00
1.36727	58.00
1.38393	58.00
1.40060	58.00
1.41727	58.00
1.43393	58.00
1.45060	58.00
1.46727	58.00
1.48393	58.00
1.50060	58.00
1.51727	58.00
1.53393	58.00
1.55060	58.00
1.56727	58.00
1.58393	58.00
1.60060	58.00
1.61727	58.00
1.63393	58.01
1.65060	58.00
1.66727	58.01
1.68393	58.01
1.70060	58.00
1.71727	58.00
1.73393	58.00
1.75060	58.00
1.76727	58.00
1.78393	58.00
1.80060	58.00
1.81727	58.00
1.83393	58.00
1.85060	58.00
1.86727	58.00
1.88393	58.00
1.90060	58.00
1.91727	58.00
1.93393	58.00
1.95060	58.00
1.96727	58.00
1.98393	58.00
2.00060	58.00
2.01727	58.00
2.03393	58.00
2.05060	58.00
2.06727	58.00
2.08393	58.00
2.10060	58.00
2.11727	58.00
2.13393	58.00
2.15060	58.00
2.16727	58.00
2.18393	58.00
2.20060	58.00
2.21727	58.00
2.23393	58.00
2.25060	58.00
2.26727	58.00
2.28393	58.00
2.30060	58.00
2.31727	58.00
2.33393	58.00
2.35060	58.00
2.36727	58.00
2.38393	57.99
2.40060	57.99
2.41727	58.00
2.43393	58.00
2.45060	58.00
2.46727	58.00
2.48393	58.00
2.50060	58.00
2.51727	57.98
2.53393	57.99
2.55060	58.00
2.56727	58.00
2.58393	58.00
2.60060	58.00
2.61727	58.00
2.63393	58.00
2.65060	58.00
2.66727	58.00
2.68393	58.00
2.70060	58.00
2.71727	58.00
2.73393	58.00
2.75060	58.00
2.76727	58.00
2.78393	58.00
2.80060	58.00
2.81727	58.00
2.83393	58.00
2.85060	58.00
2.86727	58.00
2.88393	58.00
2.90060	58.00
2.91727	58.00
2.93393	58.00
2.95060	58.00
2.96727	58.00
2.98393	58.00
3.00060	58.00
3.01727	58.00
3.03393	58.00
3.05060	58.00
3.06727	58.00
3.08393	58.00
3.10060	58.00
3.11727	58.00
3.13393	58.00
3.15060	58.00
3.16727	58.00
3.18393	58.00
3.20060	58.00
3.21727	58.00
3.23393	58.00
3.25060	58.00
3.26727	58.00
3.28393	58.00
3.30060	58.00
3.31727	58.00
3.33393	58.00
3.35060	58.00
3.36727	58.00
3.38393	58.00
3.40060	58.00
3.41727	58.00
3.43393	58.00
3.45060	58.00
3.46727	58.00
3.48393	58.00
3.50060	58.00
3.51727	58.00
3.53393	58.00
3.55060	58.00
3.56727	58.00
3.58393	58.00
3.60060	58.00
3.61727	58.00
3.63393	58.00
3.65060	58.00
3.66727	58.00
3.68393	58.00
3.70060	58.00
3.71727	58.00
3.73393	58.00
3.75060	58.00
3.76727	58.00
3.78393	58.00
3.80060	58.00
3.81727	58.00
3.83393	58.00
3.85060	58.00
3.86727	58.00
3.88393	58.00
3.90060	58.00
3.91727	58.00
3.93393	58.00
3.95060	58.00
3.96727	58.00
3.98393	58.00

[Status Trace (Carrier Gas Flow)]
Interval(msec)	1000
# of Points	240
Start Time(min)	0.001
End Time(min)	3.984
Intensity Units	
Intensity Multiplier	1
R.Time (min)	Intensity
0.00060	34.52
0.01727	33.97
0.03393	34.54
0.05060	34.55
0.06727	34.51
0.08393	34.50
0.10060	34.52
0.11727	34.52
0.13393	34.51
0.15060	34.52
0.16727	34.52
0.18393	34.52
0.20060	34.52
0.21727	34.52
0.23393	34.52
0.25060	34.52
0.26727	34.52
0.28393	34.52
0.30060	34.52
0.31727	34.52
0.33393	34.52
0.35060	34.52
0.36727	34.52
0.38393	34.52
0.40060	34.52
0.41727	34.52
0.43393	34.52
0.45060	34.52
0.46727	34.52
0.48393	34.52
0.50060	34.52
0.51727	34.52
0.53393	34.52
0.55060	34.52
0.56727	34.52
0.58393	34.52
0.60060	34.52
0.61727	34.52
0.63393	34.52
0.65060	34.52
0.66727	34.52
0.68393	34.52
0.70060	34.52
0.71727	34.52
0.73393	34.52
0.75060	34.52
0.76727	34.52
0.78393	34.52
0.80060	34.52
0.81727	34.52
0.83393	34.52
0.85060	34.52
0.86727	34.52
0.88393	34.52
0.90060	34.52
0.91727	34.52
0.93393	34.52
0.95060	34.52
0.96727	34.52
0.98393	34.52
1.00060	34.52
1.01727	34.52
1.03393	34.52
1.05060	34.52
1.06727	34.52
1.08393	34.52
1.10060	34.52
1.11727	34.52
1.13393	34.52
1.15060	34.52
1.16727	34.52
1.18393	34.51
1.20060	34.52
1.21727	34.52
1.23393	34.52
1.25060	34.52
1.26727	34.52
1.28393	34.52
1.30060	34.52
1.31727	34.52
1.33393	34.52
1.35060	34.52
1.36727	34.52
1.38393	34.52
1.40060	34.52
1.41727	34.52
1.43393	34.52
1.45060	34.52
1.46727	34.52
1.48393	34.52
1.50060	34.52
1.51727	34.52
1.53393	34.52
1.55060	34.52
1.56727	34.52
1.58393	34.52
1.60060	34.52
1.61727	34.52
1.63393	34.52
1.65060	34.52
1.66727	34.52
1.68393	34.52
1.70060	34.52
1.71727	34.52
1.73393	34.52
1.75060	34.52
1.76727	34.52
1.78393	34.52
1.80060	34.52
1.81727	34.52
1.83393	34.52
1.85060	34.52
1.86727	34.52
1.88393	34.52
1.90060	34.52
1.91727	34.52
1.93393	34.52
1.95060	34.52
1.96727	34.52
1.98393	34.52
2.00060	34.52
2.01727	34.52
2.03393	34.52
2.05060	34.52
2.06727	34.52
2.08393	34.52
2.10060	34.52
2.11727	34.52
2.13393	34.52
2.15060	34.52
2.16727	34.52
2.18393	34.52
2.20060	34.52
2.21727	34.51
2.23393	34.52
2.25060	34.51
2.26727	34.52
2.28393	34.53
2.30060	34.51
2.31727	34.52
2.33393	34.52
2.35060	34.52
2.36727	34.52
2.38393	34.52
2.40060	34.52
2.41727	34.52
2.43393	34.51
2.45060	34.51
2.46727	34.52
2.48393	34.52
2.50060	34.52
2.51727	34.52
2.53393	34.52
2.55060	34.52
2.56727	34.52
2.58393	34.52
2.60060	34.52
2.61727	34.52
2.63393	34.52
2.65060	34.52
2.66727	34.52
2.68393	34.52
2.70060	34.52
2.71727	34.52
2.73393	34.52
2.75060	34.52
2.76727	34.52
2.78393	34.52
2.80060	34.52
2.81727	34.52
2.83393	34.52
2.85060	34.52
2.86727	34.52
2.88393	34.52
2.90060	34.52
2.91727	34.52
2.93393	34.52
2.95060	34.52
2.96727	34.52
2.98393	34.52
3.00060	34.52
3.01727	34.52
3.03393	34.52
3.05060	34.52
3.06727	34.52
3.08393	34.52
3.10060	34.52
3.11727	34.52
3.13393	34.52
3.15060	34.52
3.16727	34.52
3.18393	34.52
3.20060	34.52
3.21727	34.52
3.23393	34.52
3.25060	34.52
3.26727	34.52
3.28393	34.52
3.30060	34.52
3.31727	34.52
3.33393	34.52
3.35060	34.52
3.36727	34.51
3.38393	34.52
3.40060	34.52
3.41727	34.52
3.43393	34.52
3.45060	34.52
3.46727	34.52
3.48393	34.52
3.50060	34.51
3.51727	34.51
3.53393	34.52
3.55060	34.52
3.56727	34.52
3.58393	34.52
3.60060	34.52
3.61727	34.52
3.63393	34.52
3.65060	34.52
3.66727	34.51
3.68393	34.52
3.70060	34.51
3.71727	34.50
3.73393	34.52
3.75060	34.53
3.76727	34.52
3.78393	34.52
3.80060	34.51
3.81727	34.51
3.83393	34.52
3.85060	34.51
3.86727	34.51
3.88393	34.51
3.90060	34.51
3.91727	34.52
3.93393	34.52
3.95060	34.52
3.96727	34.52
3.98393	34.52

[Status Trace (Column Flow)]
Interval(msec)	1000
# of Points	240
Start Time(min)	0.001
End Time(min)	3.984
Intensity Units	
Intensity Multiplier	1
R.Time (min)	Intensity
0.00060	5.50
0.01727	5.33
0.03393	5.26
0.05060	5.53
0.06727	5.72
0.08393	5.56
0.10060	5.49
0.11727	5.50
0.13393	5.50
0.15060	5.50
0.16727	5.50
0.18393	5.50
0.20060	5.50
0.21727	5.50
0.23393	5.50
0.25060	5.50
0.26727	5.50
0.28393	5.50
0.30060	5.50
0.31727	5.50
0.33393	5.50
0.35060	5.50
0.36727	5.50
0.38393	5.50
0.40060	5.50
0.41727	5.50
0.43393	5.50
0.45060	5.50
0.46727	5.50
0.48393	5.50
0.50060	5.50
0.51727	5.50
0.53393	5.50
0.55060	5.50
0.56727	5.50
0.58393	5.50
0.60060	5.50
0.61727	5.50
0.63393	5.50
0.65060	5.50
0.66727	5.50
0.68393	5.50
0.70060	5.50
0.71727	5.50
0.73393	5.50
0.75060	5.50
0.76727	5.50
0.78393	5.50
0.80060	5.50
0.81727	5.50
0.83393	5.50
0.85060	5.50
0.86727	5.50
0.88393	5.50
0.90060	5.50
0.91727	5.50
0.93393	5.50
0.95060	5.50
0.96727	5.50
0.98393	5.50
1.00060	5.50
1.01727	5.50
1.03393	5.50
1.05060	5.50
1.06727	5.50
1.08393	5.50
1.10060	5.50
1.11727	5.50
1.13393	5.50
1.15060	5.50
1.16727	5.50
1.18393	5.50
1.20060	5.50
1.21727	5.50
1.23393	5.50
1.25060	5.50
1.26727	5.50
1.28393	5.50
1.30060	5.50
1.31727	5.50
1.33393	5.50
1.35060	5.50
1.36727	5.50
1.38393	5.50
1.40060	5.50
1.41727	5.50
1.43393	5.50
1.45060	5.50
1.46727	5.50
1.48393	5.50
1.50060	5.50
1.51727	5.50
1.53393	5.50
1.55060	5.50
1.56727	5.50
1.58393	5.50
1.60060	5.50
1.61727	5.50
1.63393	5.49
1.65060	5.48
1.66727	5.47
1.68393	5.46
1.70060	5.45
1.71727	5.44
1.73393	5.43
1.75060	5.42
1.76727	5.41
1.78393	5.40
1.80060	5.39
1.81727	5.38
1.83393	5.37
1.85060	5.36
1.86727	5.35
1.88393	5.34
1.90060	5.33
1.91727	5.32
1.93393	5.31
1.95060	5.30
1.96727	5.29
1.98393	5.28
2.00060	5.27
2.01727	5.26
2.03393	5.25
2.05060	5.24
2.06727	5.23
2.08393	5.22
2.10060	5.22
2.11727	5.21
2.13393	5.20
2.15060	5.19
2.16727	5.18
2.18393	5.17
2.20060	5.16
2.21727	5.15
2.23393	5.14
2.25060	5.13
2.26727	5.12
2.28393	5.11
2.30060	5.10
2.31727	5.09
2.33393	5.08
2.35060	5.08
2.36727	5.07
2.38393	5.07
2.40060	5.07
2.41727	5.07
2.43393	5.07
2.45060	5.07
2.46727	5.06
2.48393	5.06
2.50060	5.06
2.51727	5.06
2.53393	5.06
2.55060	5.06
2.56727	5.06
2.58393	5.06
2.60060	5.06
2.61727	5.06
2.63393	5.06
2.65060	5.06
2.66727	5.06
2.68393	5.06
2.70060	5.06
2.71727	5.06
2.73393	5.06
2.75060	5.06
2.76727	5.06
2.78393	5.06
2.80060	5.06
2.81727	5.06
2.83393	5.06
2.85060	5.06
2.86727	5.06
2.88393	5.06
2.90060	5.06
2.91727	5.06
2.93393	5.06
2.95060	5.06
2.96727	5.06
2.98393	5.06
3.00060	5.06
3.01727	5.06
3.03393	5.06
3.05060	5.06
3.06727	5.06
3.08393	5.06
3.10060	5.06
3.11727	5.05
3.13393	5.05
3.15060	5.05
3.16727	5.05
3.18393	5.05
3.20060	5.05
3.21727	5.05
3.23393	5.05
3.25060	5.05
3.26727	5.05
3.28393	5.05
3.30060	5.05
3.31727	5.05
3.33393	5.05
3.35060	5.05
3.36727	5.06
3.38393	5.06
3.40060	5.06
3.41727	5.06
3.43393	5.06
3.45060	5.06
3.46727	5.06
3.48393	5.06
3.50060	5.06
3.51727	5.06
3.53393	5.06
3.55060	5.06
3.56727	5.06
3.58393	5.05
3.60060	5.05
3.61727	5.05
3.63393	5.05
3.65060	5.05
3.66727	5.05
3.68393	5.05
3.70060	5.05
3.71727	5.06
3.73393	5.06
3.75060	5.06
3.76727	5.06
3.78393	5.06
3.80060	5.06
3.81727	5.06
3.83393	5.06
3.85060	5.06
3.86727	5.06
3.88393	5.06
3.90060	5.06
3.91727	5.06
3.93393	5.06
3.95060	5.06
3.96727	5.06
3.98393	5.06

[Status Trace (Linear Velocity)]
Interval(msec)	1000
# of Points	240
Start Time(min)	0.001
End Time(min)	3.984
Intensity Units	
Intensity Multiplier	1
R.Time (min)	Intensity
0.00060	39.01
0.01727	38.07
0.03393	37.66
0.05060	39.19
0.06727	40.27
0.08393	39.35
0.10060	38.99
0.11727	39.01
0.13393	39.02
0.15060	39.01
0.16727	39.01
0.18393	39.01
0.20060	39.01
0.21727	39.01
0.23393	39.01
0.25060	39.01
0.26727	39.01
0.28393	39.01
0.30060	39.01
0.31727	39.01
0.33393	39.01
0.35060	39.01
0.36727	39.01
0.38393	39.01
0.40060	39.01
0.41727	39.01
0.43393	39.01
0.45060	39.01
0.46727	39.01
0.48393	39.01
0.50060	39.01
0.51727	39.01
0.53393	39.01
0.55060	39.01
0.56727	39.01
0.58393	39.02
0.60060	39.02
0.61727	39.02
0.63393	39.02
0.65060	39.01
0.66727	39.02
0.68393	39.01
0.70060	39.01
0.71727	39.01
0.73393	39.01
0.75060	39.01
0.76727	39.01
0.78393	39.01
0.80060	39.01
0.81727	39.01
0.83393	39.01
0.85060	39.01
0.86727	39.01
0.88393	39.01
0.90060	39.01
0.91727	39.01
0.93393	39.01
0.95060	39.01
0.96727	39.01
0.98393	39.01
1.00060	39.01
1.01727	39.01
1.03393	39.01
1.05060	39.01
1.06727	39.01
1.08393	39.01
1.10060	39.01
1.11727	39.01
1.13393	39.01
1.15060	39.01
1.16727	39.01
1.18393	39.01
1.20060	39.01
1.21727	39.01
1.23393	39.01
1.25060	39.01
1.26727	39.01
1.28393	39.01
1.30060	39.01
1.31727	39.01
1.33393	39.01
1.35060	39.01
1.36727	39.01
1.38393	39.01
1.40060	39.01
1.41727	39.01
1.43393	39.01
1.45060	39.01
1.46727	39.01
1.48393	39.01
1.50060	39.01
1.51727	39.01
1.53393	39.01
1.55060	39.01
1.56727	39.01
1.58393	39.01
1.60060	39.01
1.61727	39.00
1.63393	38.99
1.65060	38.97
1.66727	38.94
1.68393	38.90
1.70060	38.87
1.71727	38.83
1.73393	38.80
1.75060	38.77
1.76727	38.74
1.78393	38.71
1.80060	38.68
1.81727	38.64
1.83393	38.61
1.85060	38.58
1.86727	38.55
1.88393	38.52
1.90060	38.49
1.91727	38.46
1.93393	38.43
1.95060	38.40
1.96727	38.37
1.98393	38.34
2.00060	38.31
2.01727	38.28
2.03393	38.25
2.05060	38.22
2.06727	38.19
2.08393	38.16
2.10060	38.13
2.11727	38.10
2.13393	38.07
2.15060	38.04
2.16727	38.01
2.18393	37.98
2.20060	37.95
2.21727	37.92
2.23393	37.89
2.25060	37.86
2.26727	37.83
2.28393	37.80
2.30060	37.77
2.31727	37.74
2.33393	37.71
2.35060	37.69
2.36727	37.67
2.38393	37.65
2.40060	37.65
2.41727	37.66
2.43393	37.66
2.45060	37.65
2.46727	37.65
2.48393	37.65
2.50060	37.65
2.51727	37.64
2.53393	37.64
2.55060	37.65
2.56727	37.65
2.58393	37.65
2.60060	37.65
2.61727	37.64
2.63393	37.64
2.65060	37.64
2.66727	37.64
2.68393	37.64
2.70060	37.64
2.71727	37.64
2.73393	37.64
2.75060	37.64
2.76727	37.64
2.78393	37.64
2.80060	37.64
2.81727	37.64
2.83393	37.64
2.85060	37.64
2.86727	37.64
2.88393	37.64
2.90060	37.63
2.91727	37.63
2.93393	37.63
2.95060	37.63
2.96727	37.63
2.98393	37.63
3.00060	37.62
3.01727	37.62
3.03393	37.62
3.05060	37.62
3.06727	37.62
3.08393	37.62
3.10060	37.62
3.11727	37.62
3.13393	37.62
3.15060	37.62
3.16727	37.62
3.18393	37.62
3.20060	37.62
3.21727	37.62
3.23393	37.62
3.25060	37.62
3.26727	37.62
3.28393	37.62
3.30060	37.62
3.31727	37.62
3.33393	37.62
3.35060	37.62
3.36727	37.62
3.38393	37.62
3.40060	37.62
3.41727	37.62
3.43393	37.62
3.45060	37.62
3.46727	37.62
3.48393	37.62
3.50060	37.62
3.51727	37.62
3.53393	37.62
3.55060	37.62
3.56727	37.62
3.58393	37.62
3.60060	37.62
3.61727	37.62
3.63393	37.62
3.65060	37.62
3.66727	37.62
3.68393	37.62
3.70060	37.62
3.71727	37.62
3.73393	37.62
3.75060	37.62
3.76727	37.62
3.78393	37.62
3.80060	37.62
3.81727	37.62
3.83393	37.62
3.85060	37.62
3.86727	37.62
3.88393	37.62
3.90060	37.62
3.91727	37.62
3.93393	37.62
3.95060	37.62
3.96727	37.62
3.98393	37.62

