[Header]
Application Name	LabSolutions
Version	5.110
Data File Name	C:\Users\User\Desktop\Junior\UIC Prairie Sampling\5.18.23\05182023_042.gcd
Output Date	6/5/2023
Output Time	2:17:27 PM

[File Information]
Type	Data File
Generated	5/24/2023 4:38:49 PM
Generated by	System Administrator
Modified	5/24/2023 4:46:15 PM
Modified by	System Administrator

[Sample Information]
Operator Name	System Administrator
Acquired	5/24/2023 4:42:13 PM
Sample Type	0:Unknown
Level	0
Sample Name	042
Sample ID	042
ISTD Amount1	1
ISTD Amount2	1
ISTD Amount3	1
ISTD Amount4	1
ISTD Amount5	1
ISTD Amount6	1
ISTD Amount7	1
ISTD Amount8	1
ISTD Amount9	1
ISTD Amount10	1
ISTD Amount11	1
ISTD Amount12	1
ISTD Amount13	1
ISTD Amount14	1
ISTD Amount15	1
ISTD Amount16	1
ISTD Amount17	1
ISTD Amount18	1
ISTD Amount19	1
ISTD Amount20	1
ISTD Amount21	1
ISTD Amount22	1
ISTD Amount23	1
ISTD Amount24	1
ISTD Amount25	1
ISTD Amount26	1
ISTD Amount27	1
ISTD Amount28	1
ISTD Amount29	1
ISTD Amount30	1
ISTD Amount31	1
ISTD Amount32	1
Sample Amount	1
Dilution Factor	1
Vial#	41
Injection Volume	1
Injection Count	1
Bar Code	

[Original Files]
Data File	C:\Users\User\Desktop\Junior\UIC Prairie Sampling\5.18.23\05182023_042.gcd
Method File	C:\LabSolutions\Data\GHG_4min_2022\ghg3_togas_w_acet_4 min_new_int.gcm
Batch File	C:\LabSolutions\Data\AutoSamplerTesting\05182023.gcb
Report Format File	c:\LabSolutions\System\DEFAULT.lsr

[File Description]


[Configuration]
Instrument Name	C0B7VH3-Instrument1
Instrument #	1
Line #	1
# of Detectors	3
Detector ID	DET#1	DET#2	DET#3
Detector Name	FID	PTCD	ECD
# of Channels	1	1	1

[Peak Table(Ch1)]
# of Peaks	3
Peak#	R.Time	I.Time	F.Time	Area	Height	A/H	Conc.	Mark	ID#	Name	k'	Plate #	Plate Ht.	Tailing	Resolution	Sep.Factor	Area Ratio	Height Ratio	Conc. %	Norm Conc.
1	1.479	1.457	1.523	474	293	1.620	0.000	   	1	CO	0.000	14845	10.105	1.268	0.000	0.000	0	0	0.000	0.000
2	1.564	1.523	1.652	15127	7667	1.973	73.747	 V 	2	CH4	0.057	11497	13.047	1.144	1.578	0.000	0	0	18.146	18.146
3	1.989	1.938	2.455	1726192	825649	2.091	332.669	   	3	CO2	0.345	17246	8.698	1.286	7.153	6.043	0	0	81.854	81.854

[Peak Table(Ch2)]
# of Peaks	0

[Peak Table(Ch3)]
# of Peaks	4
Peak#	R.Time	I.Time	F.Time	Area	Height	A/H	Conc.	Mark	ID#	Name	k'	Plate #	Plate Ht.	Tailing	Resolution	Sep.Factor	Area Ratio	Height Ratio	Conc. %	Norm Conc.
1	2.458	2.440	2.469	343	286	1.199	0.000	   			0.000	16023	9.362	0.000	0.000	0.000	0	0	0.000	0.000
2	2.572	2.469	2.682	5843	591	9.887	0.000	 V 			0.046	1381	108.622	0.000	0.641	0.000	0	0	0.000	0.000
3	2.704	2.682	2.825	2764	383	7.215	0.000	 V 			0.100	85	1762.671	0.000	0.182	2.161	0	0	0.000	0.000
4	2.891	2.825	3.232	46920	11644	4.030	0.694	 V 	1	N2O	0.176	12695	11.815	1.582	0.293	1.761	0	0	100.000	100.000

[Compound Results(Ch1)]
# of IDs	6
ID#	Name	R.Time	Area	Height	Conc.	Curve	3rd	2nd	1st	Constant	Area Ratio	Height Ratio	Conc. %	Norm Conc.
1	CO	1.479	474	293	0.000	Linear	0.000000e+00	0.000000e+00	0.000000e+00	0.000000e+00	0	0	0.000	0.000
2	CH4	1.564	15127	7667	73.747	Linear	0.000000e+00	0.000000e+00	2.051179e+002	0.000000e+00	0	0	18.146	18.146
3	CO2	1.989	1726192	825649	332.669	Linear	0.000000e+00	0.000000e+00	5.188919e+003	0.000000e+00	0	0	81.854	81.854
4	Ethylene	0.000	0	0	0.000	Linear	0.000000e+00	0.000000e+00	0.000000e+00	0.000000e+00	0	0	0.000	0.000
5	Acetylene	0.000	0	0	0.000	Linear	0.000000e+00	0.000000e+00	0.000000e+00	0.000000e+00	0	0	0.000	0.000
6	Ethane	0.000	0	0	0.000	Linear	0.000000e+00	0.000000e+00	0.000000e+00	0.000000e+00	0	0	0.000	0.000

[Compound Results(Ch2)]
# of IDs	5
ID#	Name	R.Time	Area	Height	Conc.	Curve	3rd	2nd	1st	Constant	Area Ratio	Height Ratio	Conc. %	Norm Conc.
1	Hydrogen	0.000	0	0	0.000	Linear	0.000000e+00	0.000000e+00	0.000000e+00	0.000000e+00	0	0	0.000	0.000
2	Oxygen	0.000	0	0	0.000	Linear	0.000000e+00	0.000000e+00	0.000000e+00	0.000000e+00	0	0	0.000	0.000
3	Nitrogen	0.000	0	0	0.000	Linear	0.000000e+00	0.000000e+00	0.000000e+00	0.000000e+00	0	0	0.000	0.000
4	Methane	0.000	0	0	0.000	Linear	0.000000e+00	0.000000e+00	0.000000e+00	0.000000e+00	0	0	0.000	0.000
5	Carbon Monoxide	0.000	0	0	0.000	Linear	0.000000e+00	0.000000e+00	0.000000e+00	0.000000e+00	0	0	0.000	0.000

[Compound Results(Ch3)]
# of IDs	2
ID#	Name	R.Time	Area	Height	Conc.	Curve	3rd	2nd	1st	Constant	Area Ratio	Height Ratio	Conc. %	Norm Conc.
1	N2O	2.891	46920	11644	0.694	Linear	0.000000e+00	0.000000e+00	6.759880e+004	0.000000e+00	0	0	100.000	100.000
2	SF6	0.000	0	0	0.000	Linear	0.000000e+00	0.000000e+00	0.000000e+00	0.000000e+00	0	0	0.000	0.000

[Group Results(Ch1)]
# of Groups	0

[Group Results(Ch2)]
# of Groups	0

[Group Results(Ch3)]
# of Groups	0

[Chromatogram (Ch1)]
Interval(msec)	220
# of Points	1091
Start Time(min)	0.002
End Time(min)	3.998
R.Time (min)	Intensity
0.00167	4
0.00533	2
0.00900	1
0.01267	0
0.01633	2
0.02000	8
0.02367	14
0.02733	17
0.03100	15
0.03467	10
0.03833	6
0.04200	5
0.04567	6
0.04933	7
0.05300	7
0.05667	7
0.06033	8
0.06400	8
0.06767	6
0.07133	3
0.07500	-1
0.07867	-5
0.08233	-6
0.08600	-3
0.08967	-1
0.09333	1
0.09700	3
0.10067	6
0.10433	7
0.10800	7
0.11167	9
0.11533	15
0.11900	16
0.12267	12
0.12633	8
0.13000	3
0.13367	2
0.13733	4
0.14100	10
0.14467	17
0.14833	20
0.15200	18
0.15567	11
0.15933	5
0.16300	7
0.16667	12
0.17033	17
0.17400	17
0.17767	15
0.18133	14
0.18500	21
0.18867	32
0.19233	36
0.19600	29
0.19967	18
0.20333	8
0.20700	1
0.21067	-5
0.21433	-5
0.21800	-2
0.22167	0
0.22533	1
0.22900	-1
0.23267	-3
0.23633	-7
0.24000	-9
0.24367	-7
0.24733	-4
0.25100	-0
0.25467	2
0.25833	4
0.26200	5
0.26567	2
0.26933	-2
0.27300	-1
0.27667	-3
0.28033	-7
0.28400	-11
0.28767	-11
0.29133	-9
0.29500	-4
0.29867	2
0.30233	12
0.30600	25
0.30967	32
0.31333	31
0.31700	27
0.32067	20
0.32433	13
0.32800	8
0.33167	8
0.33533	8
0.33900	4
0.34267	2
0.34633	2
0.35000	2
0.35367	-1
0.35733	-5
0.36100	-7
0.36467	-6
0.36833	-5
0.37200	-1
0.37567	6
0.37933	9
0.38300	8
0.38667	4
0.39033	-3
0.39400	-8
0.39767	-12
0.40133	-13
0.40500	-12
0.40867	-10
0.41233	-9
0.41600	-7
0.41967	-5
0.42333	-4
0.42700	-2
0.43067	-1
0.43433	-2
0.43800	-2
0.44167	-0
0.44533	3
0.44900	5
0.45267	5
0.45633	4
0.46000	5
0.46367	10
0.46733	15
0.47100	14
0.47467	10
0.47833	7
0.48200	5
0.48567	8
0.48933	12
0.49300	13
0.49667	11
0.50033	9
0.50400	8
0.50767	7
0.51133	7
0.51500	10
0.51867	18
0.52233	27
0.52600	35
0.52967	40
0.53333	35
0.53700	22
0.54067	8
0.54433	-3
0.54800	-11
0.55167	-14
0.55533	-8
0.55900	3
0.56267	10
0.56633	10
0.57000	7
0.57367	6
0.57733	7
0.58100	6
0.58467	4
0.58833	2
0.59200	-3
0.59567	-13
0.59933	-20
0.60300	-22
0.60667	-15
0.61033	-7
0.61400	-1
0.61767	3
0.62133	6
0.62500	5
0.62867	5
0.63233	7
0.63600	15
0.63967	20
0.64333	14
0.64700	3
0.65067	-6
0.65433	-13
0.65800	-18
0.66167	-19
0.66533	-17
0.66900	-17
0.67267	-17
0.67633	-15
0.68000	-13
0.68367	-10
0.68733	-9
0.69100	-10
0.69467	-12
0.69833	-13
0.70200	-9
0.70567	0
0.70933	9
0.71300	13
0.71667	14
0.72033	9
0.72400	0
0.72767	-10
0.73133	-20
0.73500	-30
0.73867	-37
0.74233	-38
0.74600	-35
0.74967	-28
0.75333	-19
0.75700	-10
0.76067	-3
0.76433	-2
0.76800	-5
0.77167	-8
0.77533	-7
0.77900	-5
0.78267	1
0.78633	8
0.79000	11
0.79367	8
0.79733	-1
0.80100	-12
0.80467	-20
0.80833	-26
0.81200	-31
0.81567	-31
0.81933	-29
0.82300	-25
0.82667	-21
0.83033	-19
0.83400	-17
0.83767	-17
0.84133	-15
0.84500	-11
0.84867	-12
0.85233	-15
0.85600	-18
0.85967	-21
0.86333	-25
0.86700	-26
0.87067	-23
0.87433	-19
0.87800	-18
0.88167	-16
0.88533	-13
0.88900	-10
0.89267	-7
0.89633	-4
0.90000	-5
0.90367	-9
0.90733	-12
0.91100	-12
0.91467	-12
0.91833	-13
0.92200	-15
0.92567	-18
0.92933	-19
0.93300	-20
0.93667	-25
0.94033	-28
0.94400	-28
0.94767	-25
0.95133	-25
0.95500	-27
0.95867	-27
0.96233	-26
0.96600	-25
0.96967	-23
0.97333	-20
0.97700	-18
0.98067	-17
0.98433	-20
0.98800	-23
0.99167	-22
0.99533	-18
0.99900	-14
1.00267	-12
1.00633	-12
1.01000	-14
1.01367	-17
1.01733	-20
1.02100	-23
1.02467	-23
1.02833	-21
1.03200	-18
1.03567	-14
1.03933	-11
1.04300	-9
1.04667	-10
1.05033	-13
1.05400	-13
1.05767	-13
1.06133	-14
1.06500	-16
1.06867	-19
1.07233	-22
1.07600	-23
1.07967	-25
1.08333	-26
1.08700	-31
1.09067	-38
1.09433	-45
1.09800	-45
1.10167	-40
1.10533	-35
1.10900	-33
1.11267	-33
1.11633	-35
1.12000	-37
1.12367	-40
1.12733	-42
1.13100	-44
1.13467	-49
1.13833	-53
1.14200	-54
1.14567	-53
1.14933	-50
1.15300	-47
1.15667	-42
1.16033	-35
1.16400	-25
1.16767	-17
1.17133	-13
1.17500	-12
1.17867	-12
1.18233	-14
1.18600	-18
1.18967	-23
1.19333	-27
1.19700	-30
1.20067	-34
1.20433	-38
1.20800	-43
1.21167	-47
1.21533	-44
1.21900	-36
1.22267	-27
1.22633	-18
1.23000	-8
1.23367	1
1.23733	2
1.24100	-5
1.24467	-19
1.24833	-36
1.25200	-49
1.25567	-56
1.25933	-60
1.26300	-59
1.26667	-55
1.27033	-48
1.27400	-43
1.27767	-38
1.28133	-36
1.28500	-41
1.28867	-45
1.29233	-42
1.29600	-37
1.29967	-33
1.30333	-37
1.30700	-44
1.31067	-47
1.31433	-47
1.31800	-43
1.32167	-38
1.32533	-35
1.32900	-31
1.33267	-25
1.33633	-21
1.34000	-23
1.34367	-30
1.34733	-38
1.35100	-41
1.35467	-39
1.35833	-34
1.36200	-34
1.36567	-37
1.36933	-39
1.37300	-40
1.37667	-42
1.38033	-41
1.38400	-40
1.38767	-40
1.39133	-42
1.39500	-47
1.39867	-56
1.40233	-58
1.40600	-59
1.40967	-59
1.41333	-56
1.41700	-54
1.42067	-53
1.42433	-55
1.42800	-56
1.43167	-50
1.43533	-32
1.43900	-5
1.44267	-1
1.44633	-33
1.45000	-58
1.45367	-49
1.45733	-17
1.46100	26
1.46467	81
1.46833	145
1.47200	212
1.47567	258
1.47933	269
1.48300	245
1.48667	201
1.49033	150
1.49400	103
1.49767	62
1.50133	26
1.50500	1
1.50867	-14
1.51233	-23
1.51600	-27
1.51967	-31
1.52333	-38
1.52700	-43
1.53067	-21
1.53433	132
1.53800	626
1.54167	1631
1.54533	3042
1.54900	4551
1.55267	5883
1.55633	6891
1.56000	7500
1.56367	7615
1.56733	7157
1.57100	6194
1.57467	4958
1.57833	3713
1.58200	2633
1.58567	1789
1.58933	1179
1.59300	754
1.59667	464
1.60033	273
1.60400	150
1.60767	74
1.61133	29
1.61500	2
1.61867	-13
1.62233	-26
1.62600	-37
1.62967	-47
1.63333	-56
1.63700	-65
1.64067	-71
1.64433	-72
1.64800	-77
1.65167	-81
1.65533	-83
1.65900	-83
1.66267	-82
1.66633	-82
1.67000	-83
1.67367	-82
1.67733	-81
1.68100	-77
1.68467	-72
1.68833	-72
1.69200	-77
1.69567	-81
1.69933	-83
1.70300	-80
1.70667	-79
1.71033	-81
1.71400	-83
1.71767	-85
1.72133	-86
1.72500	-82
1.72867	-74
1.73233	-64
1.73600	-57
1.73967	-57
1.74333	-61
1.74700	-62
1.75067	-65
1.75433	-65
1.75800	-64
1.76167	-67
1.76533	-68
1.76900	-68
1.77267	-65
1.77633	-62
1.78000	-61
1.78367	-62
1.78733	-62
1.79100	-60
1.79467	-57
1.79833	-55
1.80200	-55
1.80567	-55
1.80933	-57
1.81300	-60
1.81667	-62
1.82033	-62
1.82400	-61
1.82767	-63
1.83133	-64
1.83500	-66
1.83867	-67
1.84233	-66
1.84600	-65
1.84967	-62
1.85333	-61
1.85700	-61
1.86067	-59
1.86433	-59
1.86800	-61
1.87167	-64
1.87533	-65
1.87900	-61
1.88267	-55
1.88633	-48
1.89000	-40
1.89367	-40
1.89733	-49
1.90100	-58
1.90467	-62
1.90833	-62
1.91200	-63
1.91567	-68
1.91933	-71
1.92300	-72
1.92667	-70
1.93033	-68
1.93400	-66
1.93767	-59
1.94133	-47
1.94500	-17
1.94867	131
1.95233	979
1.95600	4870
1.95967	18319
1.96333	53842
1.96700	126302
1.97067	242129
1.97433	390528
1.97800	546924
1.98167	684720
1.98533	782327
1.98900	825631
1.99267	809689
1.99633	740212
2.00000	633150
2.00367	509820
2.00733	389957
2.01100	286464
2.01467	204459
2.01833	143382
2.02200	99817
2.02567	69628
2.02933	49076
2.03300	35207
2.03667	25859
2.04033	19520
2.04400	15173
2.04767	12142
2.05133	9984
2.05500	8406
2.05867	7220
2.06233	6309
2.06600	5594
2.06967	5018
2.07333	4541
2.07700	4144
2.08067	3808
2.08433	3521
2.08800	3273
2.09167	3056
2.09533	2864
2.09900	2690
2.10267	2530
2.10633	2382
2.11000	2251
2.11367	2135
2.11733	2032
2.12100	1937
2.12467	1848
2.12833	1761
2.13200	1675
2.13567	1596
2.13933	1529
2.14300	1472
2.14667	1419
2.15033	1369
2.15400	1320
2.15767	1271
2.16133	1221
2.16500	1178
2.16867	1142
2.17233	1109
2.17600	1075
2.17967	1039
2.18333	1005
2.18700	979
2.19067	959
2.19433	939
2.19800	917
2.20167	889
2.20533	863
2.20900	840
2.21267	819
2.21633	804
2.22000	790
2.22367	772
2.22733	751
2.23100	731
2.23467	713
2.23833	698
2.24200	681
2.24567	662
2.24933	647
2.25300	639
2.25667	630
2.26033	618
2.26400	607
2.26767	597
2.27133	588
2.27500	583
2.27867	577
2.28233	569
2.28600	557
2.28967	544
2.29333	531
2.29700	523
2.30067	516
2.30433	510
2.30800	509
2.31167	510
2.31533	505
2.31900	498
2.32267	491
2.32633	486
2.33000	483
2.33367	477
2.33733	466
2.34100	453
2.34467	436
2.34833	423
2.35200	416
2.35567	414
2.35933	414
2.36300	416
2.36667	421
2.37033	426
2.37400	429
2.37767	428
2.38133	422
2.38500	415
2.38867	411
2.39233	411
2.39600	413
2.39967	416
2.40333	415
2.40700	406
2.41067	395
2.41433	386
2.41800	379
2.42167	374
2.42533	373
2.42900	375
2.43267	380
2.43633	381
2.44000	377
2.44367	370
2.44733	364
2.45100	358
2.45467	352
2.45833	351
2.46200	352
2.46567	351
2.46933	352
2.47300	352
2.47667	355
2.48033	360
2.48400	366
2.48767	368
2.49133	367
2.49500	365
2.49867	366
2.50233	366
2.50600	363
2.50967	358
2.51333	353
2.51700	348
2.52067	347
2.52433	348
2.52800	348
2.53167	348
2.53533	351
2.53900	358
2.54267	365
2.54633	374
2.55000	379
2.55367	379
2.55733	372
2.56100	365
2.56467	359
2.56833	353
2.57200	350
2.57567	349
2.57933	347
2.58300	345
2.58667	347
2.59033	349
2.59400	351
2.59767	356
2.60133	366
2.60500	380
2.60867	391
2.61233	395
2.61600	393
2.61967	387
2.62333	380
2.62700	373
2.63067	370
2.63433	370
2.63800	369
2.64167	366
2.64533	360
2.64900	358
2.65267	365
2.65633	372
2.66000	375
2.66367	372
2.66733	371
2.67100	374
2.67467	379
2.67833	384
2.68200	384
2.68567	380
2.68933	375
2.69300	373
2.69667	374
2.70033	374
2.70400	380
2.70767	389
2.71133	396
2.71500	400
2.71867	403
2.72233	404
2.72600	404
2.72967	404
2.73333	402
2.73700	403
2.74067	404
2.74433	401
2.74800	396
2.75167	397
2.75533	403
2.75900	409
2.76267	411
2.76633	411
2.77000	416
2.77367	420
2.77733	419
2.78100	420
2.78467	424
2.78833	431
2.79200	436
2.79567	435
2.79933	433
2.80300	429
2.80667	426
2.81033	422
2.81400	418
2.81767	417
2.82133	418
2.82500	424
2.82867	436
2.83233	442
2.83600	441
2.83967	437
2.84333	436
2.84700	438
2.85067	440
2.85433	442
2.85800	443
2.86167	446
2.86533	450
2.86900	452
2.87267	452
2.87633	450
2.88000	449
2.88367	451
2.88733	456
2.89100	462
2.89467	464
2.89833	464
2.90200	464
2.90567	463
2.90933	456
2.91300	449
2.91667	445
2.92033	446
2.92400	450
2.92767	453
2.93133	457
2.93500	465
2.93867	474
2.94233	476
2.94600	476
2.94967	474
2.95333	467
2.95700	461
2.96067	458
2.96433	459
2.96800	464
2.97167	467
2.97533	468
2.97900	473
2.98267	484
2.98633	497
2.99000	507
2.99367	511
2.99733	510
3.00100	507
3.00467	504
3.00833	502
3.01200	500
3.01567	494
3.01933	488
3.02300	486
3.02667	485
3.03033	485
3.03400	488
3.03767	490
3.04133	492
3.04500	499
3.04867	508
3.05233	516
3.05600	519
3.05967	518
3.06333	513
3.06700	508
3.07067	505
3.07433	504
3.07800	504
3.08167	506
3.08533	513
3.08900	519
3.09267	519
3.09633	516
3.10000	513
3.10367	508
3.10733	506
3.11100	508
3.11467	514
3.11833	522
3.12200	527
3.12567	525
3.12933	521
3.13300	514
3.13667	511
3.14033	512
3.14400	514
3.14767	513
3.15133	511
3.15500	510
3.15867	510
3.16233	511
3.16600	515
3.16967	517
3.17333	519
3.17700	517
3.18067	513
3.18433	507
3.18800	503
3.19167	504
3.19533	505
3.19900	503
3.20267	500
3.20633	497
3.21000	495
3.21367	497
3.21733	502
3.22100	507
3.22467	511
3.22833	517
3.23200	522
3.23567	525
3.23933	527
3.24300	522
3.24667	511
3.25033	503
3.25400	500
3.25767	502
3.26133	507
3.26500	511
3.26867	516
3.27233	520
3.27600	519
3.27967	517
3.28333	517
3.28700	521
3.29067	523
3.29433	521
3.29800	517
3.30167	517
3.30533	520
3.30900	520
3.31267	519
3.31633	518
3.32000	519
3.32367	519
3.32733	518
3.33100	519
3.33467	519
3.33833	521
3.34200	521
3.34567	520
3.34933	516
3.35300	514
3.35667	514
3.36033	513
3.36400	511
3.36767	510
3.37133	513
3.37500	518
3.37867	521
3.38233	520
3.38600	516
3.38967	514
3.39333	514
3.39700	513
3.40067	509
3.40433	506
3.40800	502
3.41167	499
3.41533	497
3.41900	500
3.42267	504
3.42633	505
3.43000	505
3.43367	504
3.43733	503
3.44100	503
3.44467	501
3.44833	500
3.45200	498
3.45567	493
3.45933	491
3.46300	493
3.46667	494
3.47033	494
3.47400	494
3.47767	498
3.48133	502
3.48500	503
3.48867	505
3.49233	505
3.49600	504
3.49967	502
3.50333	501
3.50700	501
3.51067	499
3.51433	497
3.51800	493
3.52167	490
3.52533	488
3.52900	488
3.53267	489
3.53633	490
3.54000	491
3.54367	493
3.54733	497
3.55100	500
3.55467	501
3.55833	498
3.56200	495
3.56567	490
3.56933	482
3.57300	475
3.57667	474
3.58033	478
3.58400	482
3.58767	485
3.59133	486
3.59500	487
3.59867	487
3.60233	486
3.60600	486
3.60967	486
3.61333	484
3.61700	480
3.62067	475
3.62433	469
3.62800	464
3.63167	461
3.63533	462
3.63900	465
3.64267	467
3.64633	467
3.65000	466
3.65367	466
3.65733	472
3.66100	478
3.66467	477
3.66833	472
3.67200	466
3.67567	457
3.67933	450
3.68300	445
3.68667	442
3.69033	440
3.69400	439
3.69767	441
3.70133	443
3.70500	445
3.70867	446
3.71233	449
3.71600	447
3.71967	446
3.72333	448
3.72700	450
3.73067	452
3.73433	457
3.73800	463
3.74167	464
3.74533	460
3.74900	455
3.75267	453
3.75633	450
3.76000	447
3.76367	445
3.76733	443
3.77100	441
3.77467	440
3.77833	440
3.78200	438
3.78567	438
3.78933	440
3.79300	445
3.79667	448
3.80033	449
3.80400	446
3.80767	443
3.81133	442
3.81500	445
3.81867	450
3.82233	455
3.82600	458
3.82967	459
3.83333	457
3.83700	453
3.84067	449
3.84433	446
3.84800	446
3.85167	448
3.85533	448
3.85900	443
3.86267	435
3.86633	427
3.87000	420
3.87367	414
3.87733	411
3.88100	412
3.88467	414
3.88833	415
3.89200	414
3.89567	412
3.89933	412
3.90300	413
3.90667	415
3.91033	421
3.91400	427
3.91767	433
3.92133	437
3.92500	438
3.92867	436
3.93233	434
3.93600	432
3.93967	430
3.94333	429
3.94700	429
3.95067	430
3.95433	432
3.95800	432
3.96167	432
3.96533	432
3.96900	431
3.97267	425
3.97633	416
3.98000	410
3.98367	409
3.98733	407
3.99100	409
3.99467	413
3.99833	416

[Chromatogram (Ch2)]
Interval(msec)	220
# of Points	1091
Start Time(min)	0.002
End Time(min)	3.998
R.Time (min)	Intensity
0.00167	-1
0.00533	-1
0.00900	-1
0.01267	-1
0.01633	-2
0.02000	-2
0.02367	-2
0.02733	-2
0.03100	-2
0.03467	-2
0.03833	-2
0.04200	-2
0.04567	-1
0.04933	-1
0.05300	-1
0.05667	-1
0.06033	-1
0.06400	-0
0.06767	-0
0.07133	-0
0.07500	-0
0.07867	-0
0.08233	-0
0.08600	0
0.08967	0
0.09333	0
0.09700	0
0.10067	0
0.10433	1
0.10800	1
0.11167	1
0.11533	1
0.11900	1
0.12267	1
0.12633	1
0.13000	1
0.13367	0
0.13733	0
0.14100	0
0.14467	1
0.14833	1
0.15200	1
0.15567	1
0.15933	2
0.16300	2
0.16667	2
0.17033	3
0.17400	3
0.17767	3
0.18133	4
0.18500	4
0.18867	4
0.19233	4
0.19600	4
0.19967	4
0.20333	4
0.20700	3
0.21067	3
0.21433	2
0.21800	2
0.22167	2
0.22533	1
0.22900	1
0.23267	1
0.23633	1
0.24000	1
0.24367	1
0.24733	1
0.25100	1
0.25467	1
0.25833	1
0.26200	1
0.26567	1
0.26933	1
0.27300	1
0.27667	1
0.28033	1
0.28400	1
0.28767	1
0.29133	1
0.29500	2
0.29867	2
0.30233	1
0.30600	2
0.30967	2
0.31333	2
0.31700	2
0.32067	2
0.32433	3
0.32800	3
0.33167	3
0.33533	3
0.33900	3
0.34267	3
0.34633	3
0.35000	3
0.35367	3
0.35733	4
0.36100	4
0.36467	4
0.36833	4
0.37200	4
0.37567	4
0.37933	4
0.38300	4
0.38667	4
0.39033	4
0.39400	4
0.39767	4
0.40133	4
0.40500	5
0.40867	4
0.41233	4
0.41600	4
0.41967	4
0.42333	3
0.42700	2
0.43067	2
0.43433	1
0.43800	1
0.44167	0
0.44533	-0
0.44900	-1
0.45267	-1
0.45633	-2
0.46000	-2
0.46367	-2
0.46733	-2
0.47100	-2
0.47467	-2
0.47833	-2
0.48200	-2
0.48567	-2
0.48933	-2
0.49300	-2
0.49667	-2
0.50033	-2
0.50400	-1
0.50767	-1
0.51133	-1
0.51500	-1
0.51867	-0
0.52233	-0
0.52600	-0
0.52967	0
0.53333	0
0.53700	0
0.54067	0
0.54433	1
0.54800	1
0.55167	1
0.55533	1
0.55900	1
0.56267	1
0.56633	1
0.57000	1
0.57367	1
0.57733	1
0.58100	1
0.58467	1
0.58833	2
0.59200	2
0.59567	2
0.59933	2
0.60300	2
0.60667	2
0.61033	2
0.61400	2
0.61767	2
0.62133	2
0.62500	2
0.62867	2
0.63233	2
0.63600	2
0.63967	1
0.64333	1
0.64700	1
0.65067	1
0.65433	0
0.65800	0
0.66167	0
0.66533	-0
0.66900	-0
0.67267	-1
0.67633	-1
0.68000	-1
0.68367	-2
0.68733	-2
0.69100	-3
0.69467	-3
0.69833	-3
0.70200	-3
0.70567	-3
0.70933	-3
0.71300	-3
0.71667	-3
0.72033	-3
0.72400	-3
0.72767	-3
0.73133	-3
0.73500	-2
0.73867	-2
0.74233	-2
0.74600	-1
0.74967	-1
0.75333	-1
0.75700	-0
0.76067	-0
0.76433	-1
0.76800	-1
0.77167	-1
0.77533	-1
0.77900	-1
0.78267	-1
0.78633	-1
0.79000	-1
0.79367	-1
0.79733	-1
0.80100	-1
0.80467	-1
0.80833	-1
0.81200	-1
0.81567	-1
0.81933	-1
0.82300	-1
0.82667	-1
0.83033	-1
0.83400	-1
0.83767	-1
0.84133	-1
0.84500	-0
0.84867	-0
0.85233	-0
0.85600	-0
0.85967	-0
0.86333	0
0.86700	0
0.87067	1
0.87433	1
0.87800	1
0.88167	1
0.88533	2
0.88900	2
0.89267	2
0.89633	2
0.90000	2
0.90367	2
0.90733	2
0.91100	2
0.91467	3
0.91833	2
0.92200	2
0.92567	2
0.92933	2
0.93300	2
0.93667	1
0.94033	1
0.94400	1
0.94767	0
0.95133	-0
0.95500	-1
0.95867	-1
0.96233	-1
0.96600	-1
0.96967	-1
0.97333	-1
0.97700	-2
0.98067	-2
0.98433	-2
0.98800	-2
0.99167	-2
0.99533	-2
0.99900	-2
1.00267	-2
1.00633	-2
1.01000	-2
1.01367	-2
1.01733	-1
1.02100	-1
1.02467	-1
1.02833	-1
1.03200	-1
1.03567	-1
1.03933	-1
1.04300	-1
1.04667	-1
1.05033	-2
1.05400	-2
1.05767	-2
1.06133	-3
1.06500	-3
1.06867	-3
1.07233	-3
1.07600	-3
1.07967	-3
1.08333	-3
1.08700	-3
1.09067	-3
1.09433	-3
1.09800	-3
1.10167	-3
1.10533	-3
1.10900	-3
1.11267	-3
1.11633	-3
1.12000	-3
1.12367	-3
1.12733	-3
1.13100	-4
1.13467	-4
1.13833	-4
1.14200	-5
1.14567	-5
1.14933	-5
1.15300	-5
1.15667	-5
1.16033	-5
1.16400	-6
1.16767	-6
1.17133	-6
1.17500	-6
1.17867	-6
1.18233	-6
1.18600	-6
1.18967	-6
1.19333	-6
1.19700	-6
1.20067	-5
1.20433	-5
1.20800	-5
1.21167	-4
1.21533	-4
1.21900	-4
1.22267	-3
1.22633	-3
1.23000	-2
1.23367	-2
1.23733	-1
1.24100	-0
1.24467	0
1.24833	1
1.25200	1
1.25567	1
1.25933	1
1.26300	1
1.26667	1
1.27033	1
1.27400	0
1.27767	0
1.28133	0
1.28500	-0
1.28867	-0
1.29233	-0
1.29600	-0
1.29967	-0
1.30333	-0
1.30700	0
1.31067	1
1.31433	1
1.31800	2
1.32167	2
1.32533	2
1.32900	2
1.33267	2
1.33633	2
1.34000	2
1.34367	2
1.34733	1
1.35100	1
1.35467	1
1.35833	0
1.36200	-0
1.36567	-1
1.36933	-1
1.37300	-2
1.37667	-2
1.38033	-2
1.38400	-2
1.38767	-3
1.39133	-3
1.39500	-3
1.39867	-3
1.40233	-3
1.40600	-3
1.40967	-3
1.41333	-3
1.41700	-3
1.42067	-3
1.42433	-4
1.42800	-4
1.43167	-4
1.43533	-4
1.43900	-4
1.44267	-4
1.44633	-4
1.45000	-4
1.45367	-4
1.45733	-4
1.46100	-4
1.46467	-4
1.46833	-4
1.47200	-4
1.47567	-4
1.47933	-3
1.48300	-4
1.48667	-4
1.49033	-4
1.49400	-4
1.49767	-4
1.50133	-4
1.50500	-4
1.50867	-3
1.51233	-3
1.51600	-3
1.51967	-3
1.52333	-2
1.52700	-2
1.53067	-2
1.53433	-2
1.53800	-2
1.54167	-2
1.54533	-2
1.54900	-2
1.55267	-3
1.55633	-3
1.56000	-2
1.56367	-2
1.56733	-2
1.57100	-3
1.57467	-3
1.57833	-3
1.58200	-2
1.58567	-2
1.58933	-2
1.59300	-2
1.59667	-3
1.60033	-3
1.60400	-4
1.60767	-5
1.61133	-6
1.61500	-8
1.61867	-10
1.62233	-12
1.62600	-14
1.62967	-16
1.63333	-19
1.63700	-22
1.64067	-25
1.64433	-28
1.64800	-32
1.65167	-35
1.65533	-39
1.65900	-43
1.66267	-48
1.66633	-53
1.67000	-58
1.67367	-63
1.67733	-68
1.68100	-73
1.68467	-78
1.68833	-82
1.69200	-86
1.69567	-89
1.69933	-92
1.70300	-94
1.70667	-96
1.71033	-97
1.71400	-98
1.71767	-99
1.72133	-100
1.72500	-100
1.72867	-101
1.73233	-101
1.73600	-102
1.73967	-102
1.74333	-103
1.74700	-103
1.75067	-104
1.75433	-104
1.75800	-104
1.76167	-104
1.76533	-103
1.76900	-102
1.77267	-102
1.77633	-101
1.78000	-100
1.78367	-99
1.78733	-99
1.79100	-100
1.79467	-100
1.79833	-101
1.80200	-102
1.80567	-102
1.80933	-103
1.81300	-103
1.81667	-102
1.82033	-102
1.82400	-102
1.82767	-102
1.83133	-102
1.83500	-102
1.83867	-103
1.84233	-103
1.84600	-104
1.84967	-104
1.85333	-104
1.85700	-104
1.86067	-104
1.86433	-104
1.86800	-105
1.87167	-105
1.87533	-105
1.87900	-105
1.88267	-105
1.88633	-105
1.89000	-104
1.89367	-104
1.89733	-104
1.90100	-103
1.90467	-103
1.90833	-103
1.91200	-103
1.91567	-103
1.91933	-104
1.92300	-104
1.92667	-104
1.93033	-104
1.93400	-104
1.93767	-103
1.94133	-103
1.94500	-102
1.94867	-102
1.95233	-102
1.95600	-102
1.95967	-102
1.96333	-102
1.96700	-102
1.97067	-102
1.97433	-102
1.97800	-101
1.98167	-101
1.98533	-100
1.98900	-99
1.99267	-99
1.99633	-99
2.00000	-98
2.00367	-98
2.00733	-98
2.01100	-98
2.01467	-97
2.01833	-97
2.02200	-97
2.02567	-97
2.02933	-97
2.03300	-96
2.03667	-96
2.04033	-96
2.04400	-95
2.04767	-95
2.05133	-95
2.05500	-95
2.05867	-95
2.06233	-95
2.06600	-95
2.06967	-95
2.07333	-94
2.07700	-94
2.08067	-94
2.08433	-93
2.08800	-93
2.09167	-92
2.09533	-91
2.09900	-91
2.10267	-90
2.10633	-90
2.11000	-90
2.11367	-89
2.11733	-88
2.12100	-87
2.12467	-87
2.12833	-86
2.13200	-86
2.13567	-86
2.13933	-87
2.14300	-87
2.14667	-87
2.15033	-88
2.15400	-88
2.15767	-88
2.16133	-89
2.16500	-88
2.16867	-88
2.17233	-88
2.17600	-88
2.17967	-87
2.18333	-86
2.18700	-86
2.19067	-85
2.19433	-84
2.19800	-84
2.20167	-83
2.20533	-83
2.20900	-82
2.21267	-82
2.21633	-81
2.22000	-81
2.22367	-80
2.22733	-80
2.23100	-79
2.23467	-79
2.23833	-79
2.24200	-79
2.24567	-79
2.24933	-80
2.25300	-80
2.25667	-81
2.26033	-81
2.26400	-81
2.26767	-80
2.27133	-79
2.27500	-78
2.27867	-77
2.28233	-76
2.28600	-76
2.28967	-75
2.29333	-75
2.29700	-74
2.30067	-74
2.30433	-74
2.30800	-74
2.31167	-73
2.31533	-73
2.31900	-72
2.32267	-72
2.32633	-72
2.33000	-73
2.33367	-73
2.33733	-73
2.34100	-74
2.34467	-74
2.34833	-73
2.35200	-73
2.35567	-72
2.35933	-71
2.36300	-70
2.36667	-68
2.37033	-65
2.37400	-62
2.37767	-58
2.38133	-54
2.38500	-50
2.38867	-45
2.39233	-41
2.39600	-36
2.39967	-32
2.40333	-28
2.40700	-24
2.41067	-21
2.41433	-17
2.41800	-15
2.42167	-12
2.42533	-10
2.42900	-8
2.43267	-6
2.43633	-4
2.44000	-2
2.44367	0
2.44733	2
2.45100	4
2.45467	5
2.45833	6
2.46200	7
2.46567	8
2.46933	9
2.47300	10
2.47667	11
2.48033	12
2.48400	12
2.48767	12
2.49133	13
2.49500	13
2.49867	14
2.50233	15
2.50600	15
2.50967	15
2.51333	14
2.51700	14
2.52067	13
2.52433	12
2.52800	11
2.53167	11
2.53533	10
2.53900	10
2.54267	10
2.54633	11
2.55000	11
2.55367	11
2.55733	12
2.56100	12
2.56467	13
2.56833	14
2.57200	15
2.57567	15
2.57933	16
2.58300	16
2.58667	17
2.59033	17
2.59400	18
2.59767	18
2.60133	19
2.60500	19
2.60867	20
2.61233	20
2.61600	20
2.61967	20
2.62333	20
2.62700	20
2.63067	20
2.63433	20
2.63800	20
2.64167	20
2.64533	20
2.64900	21
2.65267	21
2.65633	22
2.66000	22
2.66367	22
2.66733	22
2.67100	22
2.67467	23
2.67833	23
2.68200	23
2.68567	24
2.68933	24
2.69300	25
2.69667	25
2.70033	25
2.70400	25
2.70767	25
2.71133	25
2.71500	25
2.71867	25
2.72233	26
2.72600	26
2.72967	27
2.73333	27
2.73700	27
2.74067	28
2.74433	28
2.74800	29
2.75167	29
2.75533	30
2.75900	30
2.76267	31
2.76633	31
2.77000	31
2.77367	30
2.77733	30
2.78100	29
2.78467	29
2.78833	28
2.79200	28
2.79567	27
2.79933	27
2.80300	27
2.80667	27
2.81033	27
2.81400	27
2.81767	27
2.82133	28
2.82500	28
2.82867	28
2.83233	29
2.83600	29
2.83967	29
2.84333	29
2.84700	29
2.85067	29
2.85433	29
2.85800	29
2.86167	28
2.86533	26
2.86900	21
2.87267	14
2.87633	3
2.88000	-12
2.88367	-32
2.88733	-58
2.89100	-90
2.89467	-128
2.89833	-171
2.90200	-221
2.90567	-275
2.90933	-335
2.91300	-400
2.91667	-469
2.92033	-541
2.92400	-617
2.92767	-695
2.93133	-775
2.93500	-857
2.93867	-940
2.94233	-1024
2.94600	-1108
2.94967	-1194
2.95333	-1281
2.95700	-1358
2.96067	-1415
2.96433	-1441
2.96800	-1432
2.97167	-1391
2.97533	-1324
2.97900	-1238
2.98267	-1140
2.98633	-1036
2.99000	-932
2.99367	-830
2.99733	-734
3.00100	-645
3.00467	-564
3.00833	-491
3.01200	-425
3.01567	-366
3.01933	-315
3.02300	-270
3.02667	-231
3.03033	-197
3.03400	-167
3.03767	-142
3.04133	-120
3.04500	-101
3.04867	-85
3.05233	-71
3.05600	-59
3.05967	-48
3.06333	-40
3.06700	-32
3.07067	-26
3.07433	-20
3.07800	-15
3.08167	-11
3.08533	-7
3.08900	-4
3.09267	-1
3.09633	1
3.10000	3
3.10367	5
3.10733	6
3.11100	8
3.11467	9
3.11833	10
3.12200	11
3.12567	12
3.12933	13
3.13300	13
3.13667	13
3.14033	14
3.14400	14
3.14767	15
3.15133	15
3.15500	16
3.15867	16
3.16233	16
3.16600	17
3.16967	17
3.17333	17
3.17700	18
3.18067	18
3.18433	18
3.18800	18
3.19167	18
3.19533	19
3.19900	19
3.20267	19
3.20633	19
3.21000	20
3.21367	20
3.21733	20
3.22100	20
3.22467	20
3.22833	21
3.23200	21
3.23567	21
3.23933	21
3.24300	22
3.24667	22
3.25033	22
3.25400	23
3.25767	23
3.26133	24
3.26500	24
3.26867	24
3.27233	24
3.27600	25
3.27967	25
3.28333	25
3.28700	25
3.29067	25
3.29433	25
3.29800	25
3.30167	25
3.30533	26
3.30900	26
3.31267	26
3.31633	26
3.32000	26
3.32367	26
3.32733	26
3.33100	26
3.33467	26
3.33833	26
3.34200	26
3.34567	27
3.34933	27
3.35300	27
3.35667	27
3.36033	27
3.36400	27
3.36767	27
3.37133	27
3.37500	27
3.37867	27
3.38233	27
3.38600	27
3.38967	27
3.39333	27
3.39700	27
3.40067	27
3.40433	27
3.40800	27
3.41167	27
3.41533	27
3.41900	27
3.42267	27
3.42633	27
3.43000	28
3.43367	28
3.43733	28
3.44100	28
3.44467	28
3.44833	29
3.45200	29
3.45567	29
3.45933	29
3.46300	29
3.46667	29
3.47033	29
3.47400	29
3.47767	29
3.48133	29
3.48500	29
3.48867	29
3.49233	29
3.49600	29
3.49967	29
3.50333	29
3.50700	29
3.51067	29
3.51433	29
3.51800	29
3.52167	29
3.52533	29
3.52900	29
3.53267	29
3.53633	29
3.54000	29
3.54367	29
3.54733	29
3.55100	29
3.55467	29
3.55833	29
3.56200	29
3.56567	29
3.56933	29
3.57300	29
3.57667	29
3.58033	29
3.58400	29
3.58767	29
3.59133	29
3.59500	29
3.59867	29
3.60233	29
3.60600	29
3.60967	29
3.61333	29
3.61700	29
3.62067	29
3.62433	29
3.62800	29
3.63167	29
3.63533	29
3.63900	30
3.64267	30
3.64633	30
3.65000	30
3.65367	30
3.65733	30
3.66100	30
3.66467	30
3.66833	30
3.67200	30
3.67567	30
3.67933	30
3.68300	30
3.68667	30
3.69033	30
3.69400	30
3.69767	30
3.70133	30
3.70500	30
3.70867	30
3.71233	30
3.71600	30
3.71967	30
3.72333	30
3.72700	30
3.73067	30
3.73433	30
3.73800	30
3.74167	30
3.74533	30
3.74900	30
3.75267	30
3.75633	30
3.76000	30
3.76367	30
3.76733	29
3.77100	29
3.77467	29
3.77833	29
3.78200	29
3.78567	29
3.78933	29
3.79300	28
3.79667	28
3.80033	28
3.80400	28
3.80767	28
3.81133	28
3.81500	28
3.81867	28
3.82233	28
3.82600	28
3.82967	28
3.83333	29
3.83700	29
3.84067	29
3.84433	29
3.84800	29
3.85167	29
3.85533	29
3.85900	29
3.86267	29
3.86633	28
3.87000	28
3.87367	28
3.87733	28
3.88100	28
3.88467	28
3.88833	28
3.89200	29
3.89567	29
3.89933	29
3.90300	29
3.90667	29
3.91033	29
3.91400	29
3.91767	29
3.92133	29
3.92500	30
3.92867	30
3.93233	30
3.93600	30
3.93967	30
3.94333	30
3.94700	30
3.95067	30
3.95433	30
3.95800	30
3.96167	31
3.96533	31
3.96900	31
3.97267	31
3.97633	31
3.98000	31
3.98367	31
3.98733	31
3.99100	31
3.99467	31
3.99833	31

[Chromatogram (Ch3)]
Interval(msec)	220
# of Points	1091
Start Time(min)	0.002
End Time(min)	3.998
R.Time (min)	Intensity
0.00167	-1
0.00533	-1
0.00900	0
0.01267	2
0.01633	2
0.02000	3
0.02367	3
0.02733	2
0.03100	2
0.03467	1
0.03833	2
0.04200	4
0.04567	6
0.04933	6
0.05300	6
0.05667	5
0.06033	6
0.06400	4
0.06767	5
0.07133	7
0.07500	8
0.07867	6
0.08233	5
0.08600	4
0.08967	3
0.09333	3
0.09700	3
0.10067	4
0.10433	8
0.10800	9
0.11167	10
0.11533	10
0.11900	10
0.12267	10
0.12633	10
0.13000	12
0.13367	12
0.13733	12
0.14100	12
0.14467	10
0.14833	9
0.15200	8
0.15567	6
0.15933	5
0.16300	3
0.16667	0
0.17033	1
0.17400	6
0.17767	8
0.18133	9
0.18500	8
0.18867	8
0.19233	8
0.19600	9
0.19967	9
0.20333	10
0.20700	10
0.21067	10
0.21433	9
0.21800	9
0.22167	9
0.22533	7
0.22900	6
0.23267	7
0.23633	9
0.24000	9
0.24367	10
0.24733	9
0.25100	7
0.25467	7
0.25833	6
0.26200	7
0.26567	6
0.26933	6
0.27300	5
0.27667	5
0.28033	6
0.28400	7
0.28767	8
0.29133	8
0.29500	8
0.29867	6
0.30233	4
0.30600	3
0.30967	2
0.31333	3
0.31700	3
0.32067	5
0.32433	6
0.32800	7
0.33167	10
0.33533	11
0.33900	10
0.34267	12
0.34633	13
0.35000	12
0.35367	12
0.35733	10
0.36100	10
0.36467	8
0.36833	7
0.37200	6
0.37567	5
0.37933	4
0.38300	5
0.38667	8
0.39033	12
0.39400	13
0.39767	13
0.40133	12
0.40500	12
0.40867	13
0.41233	14
0.41600	15
0.41967	16
0.42333	15
0.42700	13
0.43067	12
0.43433	13
0.43800	14
0.44167	16
0.44533	16
0.44900	16
0.45267	18
0.45633	19
0.46000	18
0.46367	16
0.46733	14
0.47100	14
0.47467	13
0.47833	16
0.48200	15
0.48567	13
0.48933	12
0.49300	11
0.49667	10
0.50033	10
0.50400	11
0.50767	12
0.51133	13
0.51500	12
0.51867	10
0.52233	8
0.52600	8
0.52967	9
0.53333	11
0.53700	12
0.54067	14
0.54433	17
0.54800	19
0.55167	18
0.55533	17
0.55900	18
0.56267	18
0.56633	18
0.57000	17
0.57367	16
0.57733	15
0.58100	14
0.58467	12
0.58833	12
0.59200	15
0.59567	16
0.59933	14
0.60300	15
0.60667	16
0.61033	18
0.61400	20
0.61767	21
0.62133	20
0.62500	20
0.62867	20
0.63233	21
0.63600	23
0.63967	23
0.64333	20
0.64700	17
0.65067	17
0.65433	16
0.65800	15
0.66167	14
0.66533	14
0.66900	17
0.67267	18
0.67633	17
0.68000	16
0.68367	15
0.68733	16
0.69100	17
0.69467	19
0.69833	21
0.70200	22
0.70567	22
0.70933	23
0.71300	25
0.71667	26
0.72033	25
0.72400	25
0.72767	23
0.73133	23
0.73500	21
0.73867	20
0.74233	19
0.74600	19
0.74967	19
0.75333	19
0.75700	20
0.76067	19
0.76433	16
0.76800	16
0.77167	19
0.77533	21
0.77900	22
0.78267	22
0.78633	19
0.79000	18
0.79367	19
0.79733	19
0.80100	20
0.80467	20
0.80833	19
0.81200	20
0.81567	21
0.81933	22
0.82300	21
0.82667	19
0.83033	18
0.83400	19
0.83767	20
0.84133	21
0.84500	22
0.84867	23
0.85233	22
0.85600	21
0.85967	22
0.86333	21
0.86700	22
0.87067	23
0.87433	22
0.87800	21
0.88167	19
0.88533	19
0.88900	19
0.89267	18
0.89633	17
0.90000	16
0.90367	17
0.90733	17
0.91100	15
0.91467	13
0.91833	14
0.92200	15
0.92567	15
0.92933	16
0.93300	17
0.93667	20
0.94033	23
0.94400	23
0.94767	21
0.95133	20
0.95500	20
0.95867	21
0.96233	21
0.96600	21
0.96967	21
0.97333	20
0.97700	20
0.98067	20
0.98433	21
0.98800	19
0.99167	19
0.99533	19
0.99900	18
1.00267	17
1.00633	17
1.01000	17
1.01367	18
1.01733	18
1.02100	19
1.02467	22
1.02833	23
1.03200	22
1.03567	20
1.03933	16
1.04300	14
1.04667	13
1.05033	11
1.05400	9
1.05767	10
1.06133	11
1.06500	11
1.06867	12
1.07233	13
1.07600	16
1.07967	20
1.08333	23
1.08700	25
1.09067	24
1.09433	22
1.09800	22
1.10167	23
1.10533	22
1.10900	19
1.11267	18
1.11633	18
1.12000	18
1.12367	18
1.12733	18
1.13100	20
1.13467	21
1.13833	21
1.14200	21
1.14567	22
1.14933	23
1.15300	24
1.15667	23
1.16033	22
1.16400	21
1.16767	21
1.17133	22
1.17500	21
1.17867	21
1.18233	22
1.18600	22
1.18967	23
1.19333	22
1.19700	21
1.20067	23
1.20433	25
1.20800	25
1.21167	24
1.21533	23
1.21900	23
1.22267	24
1.22633	24
1.23000	24
1.23367	24
1.23733	24
1.24100	23
1.24467	23
1.24833	24
1.25200	25
1.25567	24
1.25933	24
1.26300	22
1.26667	19
1.27033	17
1.27400	17
1.27767	18
1.28133	21
1.28500	22
1.28867	21
1.29233	22
1.29600	23
1.29967	22
1.30333	21
1.30700	21
1.31067	22
1.31433	24
1.31800	25
1.32167	25
1.32533	26
1.32900	24
1.33267	22
1.33633	22
1.34000	23
1.34367	25
1.34733	26
1.35100	25
1.35467	25
1.35833	24
1.36200	20
1.36567	19
1.36933	20
1.37300	20
1.37667	23
1.38033	24
1.38400	24
1.38767	25
1.39133	23
1.39500	21
1.39867	22
1.40233	22
1.40600	22
1.40967	22
1.41333	22
1.41700	22
1.42067	24
1.42433	24
1.42800	24
1.43167	25
1.43533	26
1.43900	27
1.44267	28
1.44633	29
1.45000	28
1.45367	26
1.45733	27
1.46100	25
1.46467	23
1.46833	23
1.47200	25
1.47567	27
1.47933	27
1.48300	25
1.48667	24
1.49033	23
1.49400	22
1.49767	23
1.50133	22
1.50500	23
1.50867	24
1.51233	24
1.51600	24
1.51967	25
1.52333	25
1.52700	24
1.53067	23
1.53433	23
1.53800	23
1.54167	24
1.54533	26
1.54900	25
1.55267	23
1.55633	24
1.56000	26
1.56367	27
1.56733	27
1.57100	27
1.57467	29
1.57833	29
1.58200	28
1.58567	26
1.58933	26
1.59300	27
1.59667	27
1.60033	29
1.60400	31
1.60767	31
1.61133	28
1.61500	26
1.61867	25
1.62233	24
1.62600	25
1.62967	27
1.63333	28
1.63700	28
1.64067	29
1.64433	30
1.64800	31
1.65167	31
1.65533	31
1.65900	34
1.66267	36
1.66633	36
1.67000	36
1.67367	36
1.67733	37
1.68100	39
1.68467	40
1.68833	41
1.69200	42
1.69567	41
1.69933	39
1.70300	39
1.70667	39
1.71033	39
1.71400	37
1.71767	38
1.72133	37
1.72500	37
1.72867	37
1.73233	39
1.73600	40
1.73967	41
1.74333	42
1.74700	41
1.75067	40
1.75433	42
1.75800	42
1.76167	43
1.76533	44
1.76900	43
1.77267	43
1.77633	44
1.78000	46
1.78367	46
1.78733	46
1.79100	46
1.79467	46
1.79833	47
1.80200	49
1.80567	51
1.80933	51
1.81300	50
1.81667	49
1.82033	51
1.82400	52
1.82767	52
1.83133	53
1.83500	56
1.83867	56
1.84233	55
1.84600	57
1.84967	58
1.85333	56
1.85700	57
1.86067	60
1.86433	62
1.86800	62
1.87167	62
1.87533	60
1.87900	60
1.88267	61
1.88633	63
1.89000	63
1.89367	62
1.89733	63
1.90100	64
1.90467	64
1.90833	65
1.91200	66
1.91567	65
1.91933	64
1.92300	64
1.92667	64
1.93033	64
1.93400	65
1.93767	66
1.94133	67
1.94500	68
1.94867	70
1.95233	72
1.95600	75
1.95967	76
1.96333	74
1.96700	72
1.97067	74
1.97433	76
1.97800	76
1.98167	78
1.98533	81
1.98900	83
1.99267	84
1.99633	86
2.00000	87
2.00367	88
2.00733	85
2.01100	85
2.01467	85
2.01833	88
2.02200	91
2.02567	91
2.02933	91
2.03300	92
2.03667	92
2.04033	95
2.04400	99
2.04767	101
2.05133	100
2.05500	100
2.05867	100
2.06233	100
2.06600	101
2.06967	102
2.07333	104
2.07700	104
2.08067	104
2.08433	103
2.08800	104
2.09167	106
2.09533	109
2.09900	111
2.10267	112
2.10633	112
2.11000	110
2.11367	108
2.11733	107
2.12100	107
2.12467	110
2.12833	115
2.13200	117
2.13567	116
2.13933	116
2.14300	117
2.14667	119
2.15033	118
2.15400	119
2.15767	121
2.16133	122
2.16500	122
2.16867	123
2.17233	122
2.17600	120
2.17967	119
2.18333	118
2.18700	119
2.19067	121
2.19433	122
2.19800	123
2.20167	125
2.20533	128
2.20900	128
2.21267	127
2.21633	126
2.22000	126
2.22367	125
2.22733	124
2.23100	125
2.23467	127
2.23833	127
2.24200	130
2.24567	132
2.24933	133
2.25300	132
2.25667	133
2.26033	134
2.26400	133
2.26767	131
2.27133	129
2.27500	128
2.27867	130
2.28233	132
2.28600	134
2.28967	136
2.29333	135
2.29700	134
2.30067	134
2.30433	135
2.30800	134
2.31167	132
2.31533	133
2.31900	136
2.32267	137
2.32633	137
2.33000	140
2.33367	140
2.33733	139
2.34100	139
2.34467	139
2.34833	139
2.35200	140
2.35567	142
2.35933	143
2.36300	142
2.36667	144
2.37033	145
2.37400	146
2.37767	146
2.38133	144
2.38500	142
2.38867	139
2.39233	138
2.39600	141
2.39967	145
2.40333	149
2.40700	150
2.41067	151
2.41433	153
2.41800	154
2.42167	154
2.42533	154
2.42900	155
2.43267	155
2.43633	156
2.44000	158
2.44367	195
2.44733	279
2.45100	361
2.45467	424
2.45833	454
2.46200	451
2.46567	433
2.46933	417
2.47300	420
2.47667	430
2.48033	442
2.48400	458
2.48767	485
2.49133	525
2.49500	572
2.49867	621
2.50233	665
2.50600	700
2.50967	723
2.51333	733
2.51700	734
2.52067	733
2.52433	731
2.52800	733
2.53167	737
2.53533	741
2.53900	746
2.54267	754
2.54633	761
2.55000	767
2.55367	776
2.55733	787
2.56100	797
2.56467	808
2.56833	817
2.57200	821
2.57567	818
2.57933	812
2.58300	801
2.58667	789
2.59033	776
2.59400	763
2.59767	750
2.60133	739
2.60500	729
2.60867	721
2.61233	713
2.61600	706
2.61967	700
2.62333	694
2.62700	687
2.63067	680
2.63433	673
2.63800	667
2.64167	663
2.64533	659
2.64900	657
2.65267	656
2.65633	654
2.66000	654
2.66367	653
2.66733	655
2.67100	657
2.67467	660
2.67833	662
2.68200	663
2.68567	664
2.68933	667
2.69300	671
2.69667	676
2.70033	681
2.70400	685
2.70767	687
2.71133	687
2.71500	689
2.71867	691
2.72233	691
2.72600	691
2.72967	688
2.73333	686
2.73700	682
2.74067	674
2.74433	667
2.74800	661
2.75167	657
2.75533	653
2.75900	649
2.76267	645
2.76633	639
2.77000	632
2.77367	627
2.77733	623
2.78100	620
2.78467	621
2.78833	620
2.79200	618
2.79567	617
2.79933	615
2.80300	614
2.80667	614
2.81033	615
2.81400	614
2.81767	612
2.82133	611
2.82500	612
2.82867	617
2.83233	631
2.83600	666
2.83967	745
2.84333	902
2.84700	1187
2.85067	1655
2.85433	2350
2.85800	3290
2.86167	4456
2.86533	5793
2.86900	7214
2.87267	8611
2.87633	9868
2.88000	10893
2.88367	11613
2.88733	11996
2.89100	12048
2.89467	11808
2.89833	11336
2.90200	10697
2.90567	9953
2.90933	9156
2.91300	8346
2.91667	7559
2.92033	6814
2.92400	6119
2.92767	5479
2.93133	4898
2.93500	4376
2.93867	3910
2.94233	3496
2.94600	3133
2.94967	2814
2.95333	2532
2.95700	2283
2.96067	2064
2.96433	1875
2.96800	1709
2.97167	1565
2.97533	1440
2.97900	1330
2.98267	1236
2.98633	1153
2.99000	1082
2.99367	1022
2.99733	971
3.00100	927
3.00467	888
3.00833	854
3.01200	823
3.01567	797
3.01933	776
3.02300	759
3.02667	744
3.03033	730
3.03400	716
3.03767	704
3.04133	695
3.04500	686
3.04867	677
3.05233	671
3.05600	667
3.05967	662
3.06333	657
3.06700	652
3.07067	647
3.07433	644
3.07800	641
3.08167	639
3.08533	636
3.08900	636
3.09267	635
3.09633	635
3.10000	634
3.10367	632
3.10733	628
3.11100	627
3.11467	627
3.11833	625
3.12200	622
3.12567	622
3.12933	620
3.13300	619
3.13667	617
3.14033	616
3.14400	615
3.14767	615
3.15133	617
3.15500	617
3.15867	615
3.16233	613
3.16600	613
3.16967	610
3.17333	606
3.17700	605
3.18067	604
3.18433	602
3.18800	600
3.19167	601
3.19533	602
3.19900	599
3.20267	596
3.20633	595
3.21000	593
3.21367	593
3.21733	594
3.22100	595
3.22467	592
3.22833	591
3.23200	590
3.23567	587
3.23933	584
3.24300	581
3.24667	580
3.25033	579
3.25400	576
3.25767	574
3.26133	573
3.26500	572
3.26867	570
3.27233	570
3.27600	569
3.27967	565
3.28333	561
3.28700	559
3.29067	558
3.29433	557
3.29800	556
3.30167	555
3.30533	553
3.30900	551
3.31267	547
3.31633	544
3.32000	541
3.32367	538
3.32733	537
3.33100	538
3.33467	537
3.33833	534
3.34200	531
3.34567	530
3.34933	529
3.35300	528
3.35667	528
3.36033	525
3.36400	524
3.36767	523
3.37133	519
3.37500	516
3.37867	513
3.38233	510
3.38600	506
3.38967	502
3.39333	498
3.39700	498
3.40067	499
3.40433	498
3.40800	494
3.41167	491
3.41533	487
3.41900	487
3.42267	486
3.42633	484
3.43000	482
3.43367	478
3.43733	475
3.44100	473
3.44467	473
3.44833	474
3.45200	471
3.45567	468
3.45933	467
3.46300	467
3.46667	466
3.47033	464
3.47400	460
3.47767	455
3.48133	453
3.48500	452
3.48867	453
3.49233	454
3.49600	452
3.49967	451
3.50333	449
3.50700	446
3.51067	446
3.51433	444
3.51800	441
3.52167	439
3.52533	437
3.52900	440
3.53267	440
3.53633	437
3.54000	436
3.54367	435
3.54733	433
3.55100	430
3.55467	428
3.55833	428
3.56200	428
3.56567	427
3.56933	427
3.57300	425
3.57667	422
3.58033	417
3.58400	413
3.58767	411
3.59133	411
3.59500	413
3.59867	414
3.60233	414
3.60600	412
3.60967	411
3.61333	412
3.61700	412
3.62067	411
3.62433	411
3.62800	410
3.63167	408
3.63533	405
3.63900	403
3.64267	401
3.64633	399
3.65000	400
3.65367	399
3.65733	398
3.66100	397
3.66467	394
3.66833	391
3.67200	388
3.67567	386
3.67933	385
3.68300	386
3.68667	386
3.69033	386
3.69400	383
3.69767	381
3.70133	382
3.70500	381
3.70867	380
3.71233	380
3.71600	379
3.71967	378
3.72333	378
3.72700	379
3.73067	382
3.73433	383
3.73800	386
3.74167	384
3.74533	380
3.74900	379
3.75267	376
3.75633	373
3.76000	370
3.76367	370
3.76733	369
3.77100	368
3.77467	367
3.77833	366
3.78200	365
3.78567	363
3.78933	360
3.79300	359
3.79667	359
3.80033	359
3.80400	359
3.80767	360
3.81133	359
3.81500	357
3.81867	354
3.82233	353
3.82600	352
3.82967	350
3.83333	349
3.83700	348
3.84067	347
3.84433	345
3.84800	342
3.85167	339
3.85533	336
3.85900	333
3.86267	333
3.86633	335
3.87000	337
3.87367	337
3.87733	334
3.88100	333
3.88467	332
3.88833	330
3.89200	329
3.89567	329
3.89933	327
3.90300	326
3.90667	326
3.91033	324
3.91400	321
3.91767	319
3.92133	316
3.92500	314
3.92867	313
3.93233	313
3.93600	310
3.93967	307
3.94333	303
3.94700	300
3.95067	298
3.95433	297
3.95800	295
3.96167	294
3.96533	292
3.96900	291
3.97267	288
3.97633	288
3.98000	287
3.98367	284
3.98733	281
3.99100	282
3.99467	281
3.99833	279

[Status Trace (Column Oven Temperature)]
Interval(msec)	1000
# of Points	240
Start Time(min)	0.002
End Time(min)	3.985
Intensity Units	
Intensity Multiplier	1
R.Time (min)	Intensity
0.00153	35.07
0.01820	35.08
0.03487	35.09
0.05153	35.09
0.06820	35.09
0.08487	35.09
0.10153	35.09
0.11820	35.09
0.13487	35.09
0.15153	35.08
0.16820	35.07
0.18487	35.06
0.20153	35.06
0.21820	35.06
0.23487	35.05
0.25153	35.05
0.26820	35.06
0.28487	35.06
0.30153	35.05
0.31820	35.03
0.33487	35.02
0.35153	35.00
0.36820	34.99
0.38487	34.98
0.40153	34.97
0.41820	34.98
0.43487	34.99
0.45153	35.01
0.46820	35.02
0.48487	35.03
0.50153	35.02
0.51820	35.02
0.53487	35.01
0.55153	35.01
0.56820	35.00
0.58487	34.99
0.60153	34.99
0.61820	34.99
0.63487	34.98
0.65153	34.98
0.66820	34.99
0.68487	35.00
0.70153	35.01
0.71820	35.01
0.73487	35.02
0.75153	35.02
0.76820	35.02
0.78487	35.03
0.80153	35.04
0.81820	35.03
0.83487	35.02
0.85153	35.02
0.86820	35.01
0.88487	34.99
0.90153	34.97
0.91820	34.96
0.93487	34.97
0.95153	34.97
0.96820	34.97
0.98487	34.98
1.00153	34.97
1.01820	34.97
1.03487	34.97
1.05153	34.98
1.06820	34.99
1.08487	34.99
1.10153	35.00
1.11820	35.00
1.13487	35.02
1.15153	35.04
1.16820	35.06
1.18487	35.06
1.20153	35.08
1.21820	35.07
1.23487	35.06
1.25153	35.05
1.26820	35.04
1.28487	35.03
1.30153	35.00
1.31820	34.98
1.33487	34.97
1.35153	34.98
1.36820	34.97
1.38487	34.98
1.40153	34.99
1.41820	35.00
1.43487	35.00
1.45153	35.01
1.46820	35.01
1.48487	35.01
1.50153	35.01
1.51820	35.02
1.53487	35.03
1.55153	35.03
1.56820	35.03
1.58487	35.03
1.60153	35.05
1.61820	35.12
1.63487	35.25
1.65153	35.45
1.66820	35.75
1.68487	36.12
1.70153	36.48
1.71820	36.83
1.73487	37.17
1.75153	37.52
1.76820	37.84
1.78487	38.13
1.80153	38.48
1.81820	38.80
1.83487	39.13
1.85153	39.45
1.86820	39.78
1.88487	40.10
1.90153	40.43
1.91820	40.77
1.93487	41.10
1.95153	41.43
1.96820	41.78
1.98487	42.08
2.00153	42.41
2.01820	42.73
2.03487	43.04
2.05153	43.37
2.06820	43.69
2.08487	44.03
2.10153	44.36
2.11820	44.68
2.13487	45.00
2.15153	45.34
2.16820	45.67
2.18487	46.00
2.20153	46.34
2.21820	46.65
2.23487	46.97
2.25153	47.35
2.26820	47.66
2.28487	47.98
2.30153	48.31
2.31820	48.64
2.33487	48.99
2.35153	49.31
2.36820	49.54
2.38487	49.65
2.40153	49.66
2.41820	49.67
2.43487	49.67
2.45153	49.67
2.46820	49.69
2.48487	49.69
2.50153	49.70
2.51820	49.72
2.53487	49.72
2.55153	49.75
2.56820	49.76
2.58487	49.78
2.60153	49.78
2.61820	49.80
2.63487	49.83
2.65153	49.83
2.66820	49.84
2.68487	49.85
2.70153	49.85
2.71820	49.86
2.73487	49.86
2.75153	49.83
2.76820	49.84
2.78487	49.86
2.80153	49.87
2.81820	49.87
2.83487	49.86
2.85153	49.87
2.86820	49.87
2.88487	49.87
2.90153	49.87
2.91820	49.88
2.93487	49.88
2.95153	49.90
2.96820	49.91
2.98487	49.91
3.00153	49.93
3.01820	49.94
3.03487	49.95
3.05153	49.97
3.06820	49.97
3.08487	49.97
3.10153	49.98
3.11820	49.99
3.13487	50.00
3.15153	50.02
3.16820	50.03
3.18487	50.04
3.20153	50.06
3.21820	50.07
3.23487	50.08
3.25153	50.09
3.26820	50.09
3.28487	50.09
3.30153	50.09
3.31820	50.09
3.33487	50.09
3.35153	50.09
3.36820	50.09
3.38487	50.09
3.40153	50.09
3.41820	50.09
3.43487	50.09
3.45153	50.09
3.46820	50.10
3.48487	50.10
3.50153	50.10
3.51820	50.10
3.53487	50.10
3.55153	50.11
3.56820	50.10
3.58487	50.09
3.60153	50.09
3.61820	50.08
3.63487	50.08
3.65153	50.08
3.66820	50.07
3.68487	50.07
3.70153	50.06
3.71820	50.05
3.73487	50.06
3.75153	50.06
3.76820	50.08
3.78487	50.08
3.80153	50.09
3.81820	50.09
3.83487	50.09
3.85153	50.09
3.86820	50.10
3.88487	50.10
3.90153	50.09
3.91820	50.09
3.93487	50.08
3.95153	50.07
3.96820	50.07
3.98487	50.05

[Status Trace (Injection Unit Temperature)]
Interval(msec)	1000
# of Points	240
Start Time(min)	0.002
End Time(min)	3.985
Intensity Units	
Intensity Multiplier	1
R.Time (min)	Intensity
0.00153	99.98
0.01820	99.98
0.03487	99.98
0.05153	99.98
0.06820	99.98
0.08487	99.98
0.10153	99.98
0.11820	99.98
0.13487	99.98
0.15153	99.98
0.16820	99.98
0.18487	99.98
0.20153	99.98
0.21820	99.98
0.23487	99.98
0.25153	99.99
0.26820	99.99
0.28487	99.98
0.30153	99.99
0.31820	99.99
0.33487	99.98
0.35153	99.98
0.36820	99.98
0.38487	99.98
0.40153	99.99
0.41820	99.99
0.43487	99.99
0.45153	99.98
0.46820	99.99
0.48487	99.99
0.50153	99.98
0.51820	99.99
0.53487	99.98
0.55153	99.99
0.56820	99.99
0.58487	99.99
0.60153	99.99
0.61820	99.98
0.63487	99.99
0.65153	99.99
0.66820	99.99
0.68487	99.99
0.70153	99.99
0.71820	99.99
0.73487	99.99
0.75153	99.99
0.76820	99.99
0.78487	99.99
0.80153	99.99
0.81820	99.99
0.83487	99.99
0.85153	99.99
0.86820	99.99
0.88487	99.99
0.90153	99.99
0.91820	99.99
0.93487	99.99
0.95153	99.99
0.96820	99.99
0.98487	99.99
1.00153	99.99
1.01820	99.99
1.03487	99.99
1.05153	99.99
1.06820	99.99
1.08487	99.99
1.10153	99.99
1.11820	99.99
1.13487	99.99
1.15153	99.99
1.16820	99.99
1.18487	99.99
1.20153	99.98
1.21820	99.98
1.23487	99.99
1.25153	99.99
1.26820	99.99
1.28487	99.99
1.30153	99.99
1.31820	99.98
1.33487	99.98
1.35153	99.99
1.36820	99.99
1.38487	99.99
1.40153	99.99
1.41820	99.99
1.43487	99.98
1.45153	99.98
1.46820	99.99
1.48487	99.99
1.50153	99.98
1.51820	99.99
1.53487	99.99
1.55153	99.99
1.56820	99.99
1.58487	99.99
1.60153	99.99
1.61820	99.99
1.63487	99.99
1.65153	99.99
1.66820	99.99
1.68487	99.99
1.70153	99.99
1.71820	99.99
1.73487	99.99
1.75153	99.99
1.76820	99.99
1.78487	99.99
1.80153	99.98
1.81820	99.99
1.83487	99.98
1.85153	99.98
1.86820	99.98
1.88487	99.98
1.90153	99.98
1.91820	99.98
1.93487	99.98
1.95153	99.98
1.96820	99.97
1.98487	99.98
2.00153	99.98
2.01820	99.98
2.03487	99.98
2.05153	99.97
2.06820	99.97
2.08487	99.97
2.10153	99.97
2.11820	99.97
2.13487	99.97
2.15153	99.97
2.16820	99.97
2.18487	99.97
2.20153	99.97
2.21820	99.96
2.23487	99.96
2.25153	99.96
2.26820	99.96
2.28487	99.97
2.30153	99.96
2.31820	99.96
2.33487	99.96
2.35153	99.96
2.36820	99.96
2.38487	99.96
2.40153	99.96
2.41820	99.96
2.43487	99.96
2.45153	99.96
2.46820	99.97
2.48487	99.96
2.50153	99.97
2.51820	99.97
2.53487	99.97
2.55153	99.97
2.56820	99.97
2.58487	99.97
2.60153	99.97
2.61820	99.97
2.63487	99.97
2.65153	99.97
2.66820	99.98
2.68487	99.98
2.70153	99.98
2.71820	99.98
2.73487	99.98
2.75153	99.98
2.76820	99.99
2.78487	99.98
2.80153	99.99
2.81820	99.99
2.83487	99.99
2.85153	99.99
2.86820	100.00
2.88487	100.00
2.90153	100.00
2.91820	100.00
2.93487	100.00
2.95153	100.00
2.96820	100.00
2.98487	100.00
3.00153	100.00
3.01820	100.01
3.03487	100.00
3.05153	100.01
3.06820	100.01
3.08487	100.01
3.10153	100.01
3.11820	100.02
3.13487	100.01
3.15153	100.01
3.16820	100.02
3.18487	100.02
3.20153	100.02
3.21820	100.02
3.23487	100.02
3.25153	100.02
3.26820	100.02
3.28487	100.02
3.30153	100.03
3.31820	100.02
3.33487	100.02
3.35153	100.02
3.36820	100.03
3.38487	100.03
3.40153	100.03
3.41820	100.03
3.43487	100.03
3.45153	100.03
3.46820	100.03
3.48487	100.03
3.50153	100.03
3.51820	100.03
3.53487	100.04
3.55153	100.03
3.56820	100.04
3.58487	100.04
3.60153	100.04
3.61820	100.04
3.63487	100.04
3.65153	100.04
3.66820	100.04
3.68487	100.04
3.70153	100.04
3.71820	100.04
3.73487	100.04
3.75153	100.05
3.76820	100.05
3.78487	100.04
3.80153	100.04
3.81820	100.05
3.83487	100.05
3.85153	100.05
3.86820	100.04
3.88487	100.04
3.90153	100.05
3.91820	100.05
3.93487	100.04
3.95153	100.05
3.96820	100.05
3.98487	100.05

[Status Trace (Carrier Gas Pressure)]
Interval(msec)	1000
# of Points	240
Start Time(min)	0.002
End Time(min)	3.985
Intensity Units	
Intensity Multiplier	1
R.Time (min)	Intensity
0.00153	58.00
0.01820	56.84
0.03487	55.98
0.05153	58.40
0.06820	59.88
0.08487	58.37
0.10153	57.97
0.11820	58.00
0.13487	58.01
0.15153	58.01
0.16820	58.00
0.18487	58.00
0.20153	58.00
0.21820	58.00
0.23487	58.00
0.25153	58.00
0.26820	58.00
0.28487	58.00
0.30153	58.00
0.31820	58.00
0.33487	58.00
0.35153	58.00
0.36820	58.00
0.38487	58.00
0.40153	58.00
0.41820	58.00
0.43487	58.00
0.45153	58.00
0.46820	58.00
0.48487	58.00
0.50153	58.00
0.51820	58.00
0.53487	58.00
0.55153	58.00
0.56820	58.00
0.58487	58.00
0.60153	58.00
0.61820	58.00
0.63487	58.00
0.65153	58.00
0.66820	58.00
0.68487	58.00
0.70153	58.00
0.71820	58.00
0.73487	58.00
0.75153	58.00
0.76820	58.00
0.78487	58.00
0.80153	58.00
0.81820	58.00
0.83487	58.00
0.85153	58.00
0.86820	58.00
0.88487	58.00
0.90153	58.00
0.91820	58.00
0.93487	58.00
0.95153	58.00
0.96820	58.00
0.98487	58.00
1.00153	58.00
1.01820	58.00
1.03487	58.00
1.05153	58.00
1.06820	58.00
1.08487	58.00
1.10153	58.00
1.11820	58.00
1.13487	58.00
1.15153	58.00
1.16820	58.00
1.18487	58.00
1.20153	58.00
1.21820	58.00
1.23487	58.00
1.25153	58.00
1.26820	58.00
1.28487	58.00
1.30153	58.00
1.31820	58.00
1.33487	58.00
1.35153	58.00
1.36820	58.00
1.38487	58.00
1.40153	58.00
1.41820	58.00
1.43487	58.00
1.45153	58.00
1.46820	58.00
1.48487	58.00
1.50153	58.00
1.51820	58.00
1.53487	58.00
1.55153	58.00
1.56820	58.00
1.58487	58.00
1.60153	58.00
1.61820	58.00
1.63487	58.00
1.65153	58.01
1.66820	58.01
1.68487	58.01
1.70153	58.00
1.71820	58.00
1.73487	58.00
1.75153	58.00
1.76820	58.00
1.78487	58.00
1.80153	58.00
1.81820	58.00
1.83487	58.00
1.85153	58.00
1.86820	58.00
1.88487	58.00
1.90153	58.00
1.91820	58.00
1.93487	58.00
1.95153	58.00
1.96820	58.00
1.98487	58.00
2.00153	58.00
2.01820	58.00
2.03487	58.00
2.05153	58.00
2.06820	58.00
2.08487	58.00
2.10153	58.00
2.11820	58.00
2.13487	58.00
2.15153	58.00
2.16820	58.00
2.18487	58.00
2.20153	58.00
2.21820	58.00
2.23487	58.00
2.25153	58.00
2.26820	58.00
2.28487	58.00
2.30153	58.00
2.31820	58.00
2.33487	58.00
2.35153	58.00
2.36820	58.00
2.38487	57.99
2.40153	57.99
2.41820	58.00
2.43487	58.00
2.45153	58.00
2.46820	58.00
2.48487	58.00
2.50153	58.00
2.51820	57.99
2.53487	57.99
2.55153	58.00
2.56820	58.00
2.58487	58.00
2.60153	58.00
2.61820	58.00
2.63487	58.00
2.65153	58.00
2.66820	58.00
2.68487	58.00
2.70153	58.00
2.71820	58.00
2.73487	58.00
2.75153	58.00
2.76820	58.00
2.78487	58.00
2.80153	58.00
2.81820	58.00
2.83487	58.00
2.85153	58.00
2.86820	58.00
2.88487	58.00
2.90153	58.00
2.91820	58.00
2.93487	58.00
2.95153	58.00
2.96820	58.00
2.98487	58.00
3.00153	58.00
3.01820	58.00
3.03487	58.00
3.05153	58.00
3.06820	58.00
3.08487	58.00
3.10153	58.00
3.11820	58.00
3.13487	58.00
3.15153	58.00
3.16820	58.00
3.18487	58.00
3.20153	58.00
3.21820	58.00
3.23487	58.00
3.25153	58.00
3.26820	58.00
3.28487	58.00
3.30153	58.00
3.31820	58.00
3.33487	58.00
3.35153	58.00
3.36820	58.00
3.38487	58.00
3.40153	58.00
3.41820	58.00
3.43487	58.00
3.45153	58.00
3.46820	58.00
3.48487	58.00
3.50153	58.00
3.51820	58.00
3.53487	58.00
3.55153	58.00
3.56820	58.00
3.58487	58.00
3.60153	58.00
3.61820	58.00
3.63487	58.00
3.65153	58.00
3.66820	58.00
3.68487	58.00
3.70153	58.00
3.71820	58.00
3.73487	58.00
3.75153	58.00
3.76820	58.00
3.78487	58.00
3.80153	58.00
3.81820	58.00
3.83487	58.00
3.85153	58.00
3.86820	58.00
3.88487	58.00
3.90153	58.00
3.91820	58.00
3.93487	58.00
3.95153	58.00
3.96820	58.00
3.98487	58.00

[Status Trace (Carrier Gas Flow)]
Interval(msec)	1000
# of Points	240
Start Time(min)	0.002
End Time(min)	3.985
Intensity Units	
Intensity Multiplier	1
R.Time (min)	Intensity
0.00153	34.52
0.01820	33.81
0.03487	34.54
0.05153	34.55
0.06820	34.49
0.08487	34.51
0.10153	34.52
0.11820	34.52
0.13487	34.51
0.15153	34.51
0.16820	34.51
0.18487	34.52
0.20153	34.52
0.21820	34.52
0.23487	34.52
0.25153	34.52
0.26820	34.52
0.28487	34.53
0.30153	34.52
0.31820	34.52
0.33487	34.51
0.35153	34.52
0.36820	34.52
0.38487	34.52
0.40153	34.52
0.41820	34.51
0.43487	34.52
0.45153	34.52
0.46820	34.52
0.48487	34.52
0.50153	34.51
0.51820	34.52
0.53487	34.52
0.55153	34.52
0.56820	34.52
0.58487	34.52
0.60153	34.52
0.61820	34.52
0.63487	34.52
0.65153	34.52
0.66820	34.52
0.68487	34.52
0.70153	34.52
0.71820	34.52
0.73487	34.52
0.75153	34.52
0.76820	34.52
0.78487	34.52
0.80153	34.51
0.81820	34.52
0.83487	34.52
0.85153	34.52
0.86820	34.52
0.88487	34.52
0.90153	34.52
0.91820	34.52
0.93487	34.52
0.95153	34.52
0.96820	34.52
0.98487	34.52
1.00153	34.52
1.01820	34.52
1.03487	34.52
1.05153	34.51
1.06820	34.52
1.08487	34.52
1.10153	34.51
1.11820	34.52
1.13487	34.52
1.15153	34.52
1.16820	34.52
1.18487	34.52
1.20153	34.52
1.21820	34.51
1.23487	34.52
1.25153	34.52
1.26820	34.52
1.28487	34.52
1.30153	34.52
1.31820	34.52
1.33487	34.52
1.35153	34.52
1.36820	34.52
1.38487	34.52
1.40153	34.52
1.41820	34.52
1.43487	34.52
1.45153	34.52
1.46820	34.52
1.48487	34.52
1.50153	34.52
1.51820	34.52
1.53487	34.52
1.55153	34.52
1.56820	34.52
1.58487	34.51
1.60153	34.52
1.61820	34.52
1.63487	34.52
1.65153	34.52
1.66820	34.52
1.68487	34.52
1.70153	34.51
1.71820	34.52
1.73487	34.52
1.75153	34.52
1.76820	34.52
1.78487	34.52
1.80153	34.52
1.81820	34.51
1.83487	34.52
1.85153	34.52
1.86820	34.52
1.88487	34.52
1.90153	34.52
1.91820	34.52
1.93487	34.52
1.95153	34.52
1.96820	34.52
1.98487	34.52
2.00153	34.51
2.01820	34.52
2.03487	34.52
2.05153	34.52
2.06820	34.51
2.08487	34.52
2.10153	34.52
2.11820	34.51
2.13487	34.51
2.15153	34.52
2.16820	34.52
2.18487	34.52
2.20153	34.52
2.21820	34.52
2.23487	34.52
2.25153	34.52
2.26820	34.52
2.28487	34.52
2.30153	34.52
2.31820	34.52
2.33487	34.52
2.35153	34.53
2.36820	34.52
2.38487	34.51
2.40153	34.52
2.41820	34.52
2.43487	34.52
2.45153	34.51
2.46820	34.52
2.48487	34.52
2.50153	34.52
2.51820	34.52
2.53487	34.52
2.55153	34.52
2.56820	34.52
2.58487	34.52
2.60153	34.52
2.61820	34.52
2.63487	34.52
2.65153	34.52
2.66820	34.52
2.68487	34.51
2.70153	34.52
2.71820	34.52
2.73487	34.52
2.75153	34.52
2.76820	34.52
2.78487	34.52
2.80153	34.52
2.81820	34.51
2.83487	34.52
2.85153	34.52
2.86820	34.51
2.88487	34.52
2.90153	34.52
2.91820	34.53
2.93487	34.52
2.95153	34.52
2.96820	34.52
2.98487	34.52
3.00153	34.52
3.01820	34.52
3.03487	34.52
3.05153	34.52
3.06820	34.52
3.08487	34.52
3.10153	34.52
3.11820	34.51
3.13487	34.52
3.15153	34.52
3.16820	34.52
3.18487	34.51
3.20153	34.52
3.21820	34.52
3.23487	34.52
3.25153	34.52
3.26820	34.52
3.28487	34.52
3.30153	34.52
3.31820	34.52
3.33487	34.52
3.35153	34.52
3.36820	34.52
3.38487	34.52
3.40153	34.52
3.41820	34.52
3.43487	34.51
3.45153	34.52
3.46820	34.52
3.48487	34.52
3.50153	34.52
3.51820	34.52
3.53487	34.52
3.55153	34.51
3.56820	34.52
3.58487	34.52
3.60153	34.52
3.61820	34.52
3.63487	34.52
3.65153	34.52
3.66820	34.52
3.68487	34.52
3.70153	34.52
3.71820	34.52
3.73487	34.52
3.75153	34.52
3.76820	34.52
3.78487	34.52
3.80153	34.52
3.81820	34.51
3.83487	34.52
3.85153	34.52
3.86820	34.52
3.88487	34.52
3.90153	34.52
3.91820	34.52
3.93487	34.52
3.95153	34.52
3.96820	34.52
3.98487	34.52

[Status Trace (Column Flow)]
Interval(msec)	1000
# of Points	240
Start Time(min)	0.002
End Time(min)	3.985
Intensity Units	
Intensity Multiplier	1
R.Time (min)	Intensity
0.00153	5.53
0.01820	5.40
0.03487	5.30
0.05153	5.58
0.06820	5.75
0.08487	5.58
0.10153	5.53
0.11820	5.53
0.13487	5.53
0.15153	5.53
0.16820	5.53
0.18487	5.53
0.20153	5.53
0.21820	5.53
0.23487	5.53
0.25153	5.53
0.26820	5.53
0.28487	5.53
0.30153	5.53
0.31820	5.53
0.33487	5.53
0.35153	5.53
0.36820	5.53
0.38487	5.53
0.40153	5.53
0.41820	5.54
0.43487	5.53
0.45153	5.53
0.46820	5.53
0.48487	5.53
0.50153	5.53
0.51820	5.53
0.53487	5.53
0.55153	5.53
0.56820	5.53
0.58487	5.53
0.60153	5.53
0.61820	5.53
0.63487	5.54
0.65153	5.54
0.66820	5.54
0.68487	5.53
0.70153	5.53
0.71820	5.53
0.73487	5.53
0.75153	5.53
0.76820	5.53
0.78487	5.53
0.80153	5.53
0.81820	5.53
0.83487	5.53
0.85153	5.53
0.86820	5.53
0.88487	5.53
0.90153	5.54
0.91820	5.54
0.93487	5.54
0.95153	5.54
0.96820	5.54
0.98487	5.54
1.00153	5.54
1.01820	5.54
1.03487	5.54
1.05153	5.54
1.06820	5.54
1.08487	5.54
1.10153	5.53
1.11820	5.53
1.13487	5.53
1.15153	5.53
1.16820	5.53
1.18487	5.53
1.20153	5.53
1.21820	5.53
1.23487	5.53
1.25153	5.53
1.26820	5.53
1.28487	5.53
1.30153	5.53
1.31820	5.53
1.33487	5.54
1.35153	5.54
1.36820	5.54
1.38487	5.54
1.40153	5.53
1.41820	5.53
1.43487	5.53
1.45153	5.53
1.46820	5.53
1.48487	5.53
1.50153	5.53
1.51820	5.53
1.53487	5.53
1.55153	5.53
1.56820	5.53
1.58487	5.53
1.60153	5.53
1.61820	5.53
1.63487	5.53
1.65153	5.52
1.66820	5.51
1.68487	5.50
1.70153	5.49
1.71820	5.48
1.73487	5.47
1.75153	5.46
1.76820	5.45
1.78487	5.44
1.80153	5.43
1.81820	5.42
1.83487	5.41
1.85153	5.40
1.86820	5.39
1.88487	5.38
1.90153	5.37
1.91820	5.36
1.93487	5.35
1.95153	5.34
1.96820	5.33
1.98487	5.32
2.00153	5.31
2.01820	5.30
2.03487	5.29
2.05153	5.28
2.06820	5.27
2.08487	5.26
2.10153	5.25
2.11820	5.24
2.13487	5.23
2.15153	5.22
2.16820	5.21
2.18487	5.20
2.20153	5.19
2.21820	5.18
2.23487	5.18
2.25153	5.17
2.26820	5.16
2.28487	5.15
2.30153	5.14
2.31820	5.13
2.33487	5.12
2.35153	5.11
2.36820	5.10
2.38487	5.10
2.40153	5.10
2.41820	5.10
2.43487	5.10
2.45153	5.10
2.46820	5.10
2.48487	5.10
2.50153	5.10
2.51820	5.10
2.53487	5.10
2.55153	5.10
2.56820	5.10
2.58487	5.10
2.60153	5.10
2.61820	5.10
2.63487	5.09
2.65153	5.09
2.66820	5.09
2.68487	5.09
2.70153	5.09
2.71820	5.09
2.73487	5.09
2.75153	5.09
2.76820	5.09
2.78487	5.09
2.80153	5.09
2.81820	5.09
2.83487	5.09
2.85153	5.09
2.86820	5.09
2.88487	5.09
2.90153	5.09
2.91820	5.09
2.93487	5.09
2.95153	5.09
2.96820	5.09
2.98487	5.09
3.00153	5.09
3.01820	5.09
3.03487	5.09
3.05153	5.09
3.06820	5.09
3.08487	5.09
3.10153	5.09
3.11820	5.09
3.13487	5.09
3.15153	5.09
3.16820	5.09
3.18487	5.09
3.20153	5.09
3.21820	5.09
3.23487	5.09
3.25153	5.09
3.26820	5.09
3.28487	5.09
3.30153	5.09
3.31820	5.09
3.33487	5.09
3.35153	5.09
3.36820	5.09
3.38487	5.09
3.40153	5.09
3.41820	5.09
3.43487	5.09
3.45153	5.09
3.46820	5.09
3.48487	5.09
3.50153	5.09
3.51820	5.09
3.53487	5.09
3.55153	5.09
3.56820	5.09
3.58487	5.09
3.60153	5.09
3.61820	5.09
3.63487	5.09
3.65153	5.09
3.66820	5.09
3.68487	5.09
3.70153	5.09
3.71820	5.09
3.73487	5.09
3.75153	5.09
3.76820	5.09
3.78487	5.09
3.80153	5.09
3.81820	5.09
3.83487	5.09
3.85153	5.09
3.86820	5.09
3.88487	5.09
3.90153	5.09
3.91820	5.09
3.93487	5.09
3.95153	5.09
3.96820	5.09
3.98487	5.09

[Status Trace (Linear Velocity)]
Interval(msec)	1000
# of Points	240
Start Time(min)	0.002
End Time(min)	3.985
Intensity Units	
Intensity Multiplier	1
R.Time (min)	Intensity
0.00153	39.01
0.01820	38.25
0.03487	37.69
0.05153	39.27
0.06820	40.24
0.08487	39.26
0.10153	38.99
0.11820	39.01
0.13487	39.02
0.15153	39.02
0.16820	39.01
0.18487	39.02
0.20153	39.02
0.21820	39.02
0.23487	39.02
0.25153	39.02
0.26820	39.02
0.28487	39.01
0.30153	39.02
0.31820	39.02
0.33487	39.02
0.35153	39.02
0.36820	39.02
0.38487	39.02
0.40153	39.02
0.41820	39.02
0.43487	39.02
0.45153	39.02
0.46820	39.02
0.48487	39.02
0.50153	39.02
0.51820	39.02
0.53487	39.02
0.55153	39.02
0.56820	39.02
0.58487	39.02
0.60153	39.02
0.61820	39.02
0.63487	39.02
0.65153	39.02
0.66820	39.02
0.68487	39.02
0.70153	39.02
0.71820	39.02
0.73487	39.02
0.75153	39.02
0.76820	39.02
0.78487	39.02
0.80153	39.02
0.81820	39.02
0.83487	39.02
0.85153	39.02
0.86820	39.02
0.88487	39.02
0.90153	39.02
0.91820	39.02
0.93487	39.02
0.95153	39.02
0.96820	39.02
0.98487	39.02
1.00153	39.02
1.01820	39.02
1.03487	39.02
1.05153	39.02
1.06820	39.02
1.08487	39.02
1.10153	39.02
1.11820	39.02
1.13487	39.02
1.15153	39.02
1.16820	39.01
1.18487	39.01
1.20153	39.01
1.21820	39.01
1.23487	39.01
1.25153	39.02
1.26820	39.02
1.28487	39.02
1.30153	39.02
1.31820	39.02
1.33487	39.02
1.35153	39.02
1.36820	39.02
1.38487	39.02
1.40153	39.02
1.41820	39.02
1.43487	39.02
1.45153	39.02
1.46820	39.02
1.48487	39.02
1.50153	39.02
1.51820	39.02
1.53487	39.02
1.55153	39.02
1.56820	39.02
1.58487	39.02
1.60153	39.02
1.61820	39.01
1.63487	39.00
1.65153	38.98
1.66820	38.95
1.68487	38.92
1.70153	38.88
1.71820	38.84
1.73487	38.81
1.75153	38.78
1.76820	38.75
1.78487	38.72
1.80153	38.69
1.81820	38.66
1.83487	38.63
1.85153	38.60
1.86820	38.57
1.88487	38.54
1.90153	38.50
1.91820	38.47
1.93487	38.44
1.95153	38.41
1.96820	38.38
1.98487	38.35
2.00153	38.32
2.01820	38.29
2.03487	38.26
2.05153	38.23
2.06820	38.20
2.08487	38.17
2.10153	38.14
2.11820	38.11
2.13487	38.08
2.15153	38.05
2.16820	38.02
2.18487	37.99
2.20153	37.96
2.21820	37.93
2.23487	37.91
2.25153	37.87
2.26820	37.84
2.28487	37.81
2.30153	37.79
2.31820	37.76
2.33487	37.73
2.35153	37.70
2.36820	37.67
2.38487	37.66
2.40153	37.66
2.41820	37.66
2.43487	37.66
2.45153	37.66
2.46820	37.66
2.48487	37.66
2.50153	37.66
2.51820	37.65
2.53487	37.65
2.55153	37.66
2.56820	37.66
2.58487	37.65
2.60153	37.65
2.61820	37.65
2.63487	37.65
2.65153	37.65
2.66820	37.65
2.68487	37.65
2.70153	37.65
2.71820	37.65
2.73487	37.65
2.75153	37.65
2.76820	37.65
2.78487	37.65
2.80153	37.65
2.81820	37.65
2.83487	37.65
2.85153	37.65
2.86820	37.65
2.88487	37.65
2.90153	37.65
2.91820	37.65
2.93487	37.65
2.95153	37.64
2.96820	37.64
2.98487	37.64
3.00153	37.64
3.01820	37.64
3.03487	37.64
3.05153	37.64
3.06820	37.64
3.08487	37.64
3.10153	37.64
3.11820	37.64
3.13487	37.64
3.15153	37.63
3.16820	37.63
3.18487	37.63
3.20153	37.63
3.21820	37.63
3.23487	37.63
3.25153	37.63
3.26820	37.63
3.28487	37.63
3.30153	37.63
3.31820	37.63
3.33487	37.63
3.35153	37.63
3.36820	37.63
3.38487	37.63
3.40153	37.63
3.41820	37.63
3.43487	37.63
3.45153	37.63
3.46820	37.63
3.48487	37.63
3.50153	37.63
3.51820	37.63
3.53487	37.63
3.55153	37.63
3.56820	37.63
3.58487	37.63
3.60153	37.63
3.61820	37.63
3.63487	37.63
3.65153	37.63
3.66820	37.63
3.68487	37.63
3.70153	37.63
3.71820	37.63
3.73487	37.63
3.75153	37.63
3.76820	37.63
3.78487	37.63
3.80153	37.63
3.81820	37.63
3.83487	37.63
3.85153	37.63
3.86820	37.63
3.88487	37.63
3.90153	37.63
3.91820	37.63
3.93487	37.63
3.95153	37.63
3.96820	37.63
3.98487	37.63

