[Header]
Application Name	LabSolutions
Version	5.110
Data File Name	C:\Users\User\Desktop\Junior\UIC Prairie Sampling\5.18.23\05182023_083.gcd
Output Date	6/5/2023
Output Time	2:17:30 PM

[File Information]
Type	Data File
Generated	5/24/2023 9:45:52 PM
Generated by	System Administrator
Modified	5/24/2023 9:52:59 PM
Modified by	System Administrator

[Sample Information]
Operator Name	System Administrator
Acquired	5/24/2023 9:48:58 PM
Sample Type	0:Unknown
Level	0
Sample Name	083
Sample ID	083
ISTD Amount1	1
ISTD Amount2	1
ISTD Amount3	1
ISTD Amount4	1
ISTD Amount5	1
ISTD Amount6	1
ISTD Amount7	1
ISTD Amount8	1
ISTD Amount9	1
ISTD Amount10	1
ISTD Amount11	1
ISTD Amount12	1
ISTD Amount13	1
ISTD Amount14	1
ISTD Amount15	1
ISTD Amount16	1
ISTD Amount17	1
ISTD Amount18	1
ISTD Amount19	1
ISTD Amount20	1
ISTD Amount21	1
ISTD Amount22	1
ISTD Amount23	1
ISTD Amount24	1
ISTD Amount25	1
ISTD Amount26	1
ISTD Amount27	1
ISTD Amount28	1
ISTD Amount29	1
ISTD Amount30	1
ISTD Amount31	1
ISTD Amount32	1
Sample Amount	1
Dilution Factor	1
Vial#	82
Injection Volume	1
Injection Count	1
Bar Code	

[Original Files]
Data File	C:\Users\User\Desktop\Junior\UIC Prairie Sampling\5.18.23\05182023_083.gcd
Method File	C:\LabSolutions\Data\GHG_4min_2022\ghg3_togas_w_acet_4 min_new_int.gcm
Batch File	C:\LabSolutions\Data\AutoSamplerTesting\05182023.gcb
Report Format File	c:\LabSolutions\System\DEFAULT.lsr

[File Description]


[Configuration]
Instrument Name	C0B7VH3-Instrument1
Instrument #	1
Line #	1
# of Detectors	3
Detector ID	DET#1	DET#2	DET#3
Detector Name	FID	PTCD	ECD
# of Channels	1	1	1

[Peak Table(Ch1)]
# of Peaks	3
Peak#	R.Time	I.Time	F.Time	Area	Height	A/H	Conc.	Mark	ID#	Name	k'	Plate #	Plate Ht.	Tailing	Resolution	Sep.Factor	Area Ratio	Height Ratio	Conc. %	Norm Conc.
1	1.472	1.428	1.531	5580	2704	2.064	0.000	   	1	CO	0.000	9641	15.559	1.295	0.000	0.000	0	0	0.000	0.000
2	1.564	1.531	1.619	4277	2171	1.970	20.850	 V 	2	CH4	0.062	11328	13.242	1.154	1.544	0.000	0	0	3.227	3.227
3	1.989	1.945	2.488	3244793	1546671	2.098	625.331	   	3	CO2	0.351	17142	8.750	1.313	7.117	5.640	0	0	96.773	96.773

[Peak Table(Ch2)]
# of Peaks	0

[Peak Table(Ch3)]
# of Peaks	4
Peak#	R.Time	I.Time	F.Time	Area	Height	A/H	Conc.	Mark	ID#	Name	k'	Plate #	Plate Ht.	Tailing	Resolution	Sep.Factor	Area Ratio	Height Ratio	Conc. %	Norm Conc.
1	2.458	2.323	2.513	1058	348	3.043	0.000	   			0.000	12562	11.940	0.000	0.000	0.000	0	0	0.000	0.000
2	2.528	2.513	2.576	370	142	2.610	0.000	 V 			0.028	4983	30.103	0.000	0.603	0.000	0	0	0.000	0.000
3	2.623	2.576	2.678	361	96	3.762	0.000	 V 			0.067	7457	20.116	0.000	0.720	2.368	0	0	0.000	0.000
4	2.891	2.752	3.962	41106	5244	7.839	0.608	   	1	N2O	0.176	11255	13.327	3.166	2.322	2.622	0	0	100.000	100.000

[Compound Results(Ch1)]
# of IDs	6
ID#	Name	R.Time	Area	Height	Conc.	Curve	3rd	2nd	1st	Constant	Area Ratio	Height Ratio	Conc. %	Norm Conc.
1	CO	1.472	5580	2704	0.000	Linear	0.000000e+00	0.000000e+00	0.000000e+00	0.000000e+00	0	0	0.000	0.000
2	CH4	1.564	4277	2171	20.850	Linear	0.000000e+00	0.000000e+00	2.051179e+002	0.000000e+00	0	0	3.227	3.227
3	CO2	1.989	3244793	1546671	625.331	Linear	0.000000e+00	0.000000e+00	5.188919e+003	0.000000e+00	0	0	96.773	96.773
4	Ethylene	0.000	0	0	0.000	Linear	0.000000e+00	0.000000e+00	0.000000e+00	0.000000e+00	0	0	0.000	0.000
5	Acetylene	0.000	0	0	0.000	Linear	0.000000e+00	0.000000e+00	0.000000e+00	0.000000e+00	0	0	0.000	0.000
6	Ethane	0.000	0	0	0.000	Linear	0.000000e+00	0.000000e+00	0.000000e+00	0.000000e+00	0	0	0.000	0.000

[Compound Results(Ch2)]
# of IDs	5
ID#	Name	R.Time	Area	Height	Conc.	Curve	3rd	2nd	1st	Constant	Area Ratio	Height Ratio	Conc. %	Norm Conc.
1	Hydrogen	0.000	0	0	0.000	Linear	0.000000e+00	0.000000e+00	0.000000e+00	0.000000e+00	0	0	0.000	0.000
2	Oxygen	0.000	0	0	0.000	Linear	0.000000e+00	0.000000e+00	0.000000e+00	0.000000e+00	0	0	0.000	0.000
3	Nitrogen	0.000	0	0	0.000	Linear	0.000000e+00	0.000000e+00	0.000000e+00	0.000000e+00	0	0	0.000	0.000
4	Methane	0.000	0	0	0.000	Linear	0.000000e+00	0.000000e+00	0.000000e+00	0.000000e+00	0	0	0.000	0.000
5	Carbon Monoxide	0.000	0	0	0.000	Linear	0.000000e+00	0.000000e+00	0.000000e+00	0.000000e+00	0	0	0.000	0.000

[Compound Results(Ch3)]
# of IDs	2
ID#	Name	R.Time	Area	Height	Conc.	Curve	3rd	2nd	1st	Constant	Area Ratio	Height Ratio	Conc. %	Norm Conc.
1	N2O	2.891	41106	5244	0.608	Linear	0.000000e+00	0.000000e+00	6.759880e+004	0.000000e+00	0	0	100.000	100.000
2	SF6	0.000	0	0	0.000	Linear	0.000000e+00	0.000000e+00	0.000000e+00	0.000000e+00	0	0	0.000	0.000

[Group Results(Ch1)]
# of Groups	0

[Group Results(Ch2)]
# of Groups	0

[Group Results(Ch3)]
# of Groups	0

[Chromatogram (Ch1)]
Interval(msec)	220
# of Points	1091
Start Time(min)	0.002
End Time(min)	3.998
R.Time (min)	Intensity
0.00167	19
0.00533	20
0.00900	15
0.01267	6
0.01633	-2
0.02000	-4
0.02367	-3
0.02733	-5
0.03100	-12
0.03467	-25
0.03833	-36
0.04200	-42
0.04567	-42
0.04933	-41
0.05300	-41
0.05667	-38
0.06033	-30
0.06400	-22
0.06767	-20
0.07133	-23
0.07500	-26
0.07867	-25
0.08233	-20
0.08600	-12
0.08967	-4
0.09333	4
0.09700	9
0.10067	10
0.10433	7
0.10800	5
0.11167	3
0.11533	1
0.11900	-3
0.12267	-7
0.12633	-10
0.13000	-9
0.13367	-4
0.13733	4
0.14100	13
0.14467	17
0.14833	16
0.15200	12
0.15567	4
0.15933	-3
0.16300	-5
0.16667	-8
0.17033	-10
0.17400	-10
0.17767	-12
0.18133	-15
0.18500	-18
0.18867	-23
0.19233	-29
0.19600	-32
0.19967	-29
0.20333	-26
0.20700	-23
0.21067	-18
0.21433	-13
0.21800	-10
0.22167	-10
0.22533	-9
0.22900	-7
0.23267	-3
0.23633	1
0.24000	7
0.24367	10
0.24733	11
0.25100	10
0.25467	6
0.25833	2
0.26200	-2
0.26567	-9
0.26933	-15
0.27300	-20
0.27667	-21
0.28033	-17
0.28400	-13
0.28767	-8
0.29133	-6
0.29500	-6
0.29867	-6
0.30233	-6
0.30600	-3
0.30967	2
0.31333	6
0.31700	7
0.32067	3
0.32433	1
0.32800	0
0.33167	0
0.33533	-5
0.33900	-15
0.34267	-24
0.34633	-24
0.35000	-21
0.35367	-16
0.35733	-12
0.36100	-10
0.36467	-8
0.36833	-7
0.37200	-7
0.37567	-5
0.37933	-4
0.38300	-4
0.38667	-6
0.39033	-11
0.39400	-15
0.39767	-17
0.40133	-18
0.40500	-18
0.40867	-14
0.41233	-7
0.41600	-0
0.41967	5
0.42333	4
0.42700	-3
0.43067	-8
0.43433	-12
0.43800	-12
0.44167	-9
0.44533	-3
0.44900	1
0.45267	4
0.45633	7
0.46000	6
0.46367	3
0.46733	2
0.47100	4
0.47467	5
0.47833	5
0.48200	3
0.48567	-1
0.48933	-5
0.49300	-12
0.49667	-17
0.50033	-19
0.50400	-19
0.50767	-19
0.51133	-16
0.51500	-15
0.51867	-17
0.52233	-15
0.52600	-11
0.52967	-7
0.53333	-5
0.53700	-8
0.54067	-11
0.54433	-17
0.54800	-23
0.55167	-28
0.55533	-26
0.55900	-18
0.56267	-14
0.56633	-15
0.57000	-18
0.57367	-20
0.57733	-20
0.58100	-19
0.58467	-19
0.58833	-22
0.59200	-21
0.59567	-17
0.59933	-7
0.60300	2
0.60667	8
0.61033	10
0.61400	9
0.61767	5
0.62133	-3
0.62500	-12
0.62867	-19
0.63233	-23
0.63600	-21
0.63967	-13
0.64333	-2
0.64700	5
0.65067	2
0.65433	-9
0.65800	-19
0.66167	-25
0.66533	-30
0.66900	-30
0.67267	-25
0.67633	-20
0.68000	-17
0.68367	-13
0.68733	-9
0.69100	-6
0.69467	-2
0.69833	-5
0.70200	-12
0.70567	-18
0.70933	-21
0.71300	-23
0.71667	-25
0.72033	-25
0.72400	-21
0.72767	-17
0.73133	-8
0.73500	5
0.73867	15
0.74233	19
0.74600	17
0.74967	9
0.75333	2
0.75700	-6
0.76067	-19
0.76433	-29
0.76800	-31
0.77167	-32
0.77533	-32
0.77900	-24
0.78267	-13
0.78633	-8
0.79000	-14
0.79367	-23
0.79733	-25
0.80100	-21
0.80467	-14
0.80833	-6
0.81200	1
0.81567	2
0.81933	3
0.82300	5
0.82667	3
0.83033	0
0.83400	-4
0.83767	-9
0.84133	-11
0.84500	-12
0.84867	-15
0.85233	-19
0.85600	-19
0.85967	-18
0.86333	-14
0.86700	-7
0.87067	-4
0.87433	-4
0.87800	-6
0.88167	-11
0.88533	-14
0.88900	-16
0.89267	-17
0.89633	-19
0.90000	-21
0.90367	-22
0.90733	-26
0.91100	-31
0.91467	-32
0.91833	-26
0.92200	-11
0.92567	3
0.92933	9
0.93300	5
0.93667	-6
0.94033	-19
0.94400	-31
0.94767	-37
0.95133	-40
0.95500	-37
0.95867	-30
0.96233	-18
0.96600	-7
0.96967	-4
0.97333	-8
0.97700	-16
0.98067	-23
0.98433	-26
0.98800	-29
0.99167	-31
0.99533	-34
0.99900	-36
1.00267	-40
1.00633	-39
1.01000	-32
1.01367	-29
1.01733	-30
1.02100	-34
1.02467	-39
1.02833	-40
1.03200	-36
1.03567	-31
1.03933	-34
1.04300	-41
1.04667	-43
1.05033	-40
1.05400	-31
1.05767	-21
1.06133	-13
1.06500	-9
1.06867	-9
1.07233	-10
1.07600	-14
1.07967	-19
1.08333	-22
1.08700	-23
1.09067	-24
1.09433	-27
1.09800	-30
1.10167	-31
1.10533	-30
1.10900	-28
1.11267	-22
1.11633	-15
1.12000	-12
1.12367	-15
1.12733	-21
1.13100	-24
1.13467	-23
1.13833	-22
1.14200	-23
1.14567	-24
1.14933	-24
1.15300	-23
1.15667	-20
1.16033	-13
1.16400	-8
1.16767	-8
1.17133	-12
1.17500	-23
1.17867	-35
1.18233	-45
1.18600	-51
1.18967	-52
1.19333	-50
1.19700	-48
1.20067	-44
1.20433	-41
1.20800	-40
1.21167	-40
1.21533	-38
1.21900	-34
1.22267	-27
1.22633	-24
1.23000	-25
1.23367	-29
1.23733	-32
1.24100	-31
1.24467	-29
1.24833	-29
1.25200	-31
1.25567	-33
1.25933	-30
1.26300	-27
1.26667	-21
1.27033	-21
1.27400	-26
1.27767	-34
1.28133	-46
1.28500	-51
1.28867	-50
1.29233	-51
1.29600	-53
1.29967	-53
1.30333	-52
1.30700	-48
1.31067	-42
1.31433	-36
1.31800	-34
1.32167	-33
1.32533	-31
1.32900	-29
1.33267	-27
1.33633	-28
1.34000	-35
1.34367	-43
1.34733	-51
1.35100	-57
1.35467	-57
1.35833	-52
1.36200	-41
1.36567	-31
1.36933	-26
1.37300	-21
1.37667	-16
1.38033	-15
1.38400	-21
1.38767	-26
1.39133	-29
1.39500	-26
1.39867	-23
1.40233	-24
1.40600	-24
1.40967	-25
1.41333	-27
1.41700	-35
1.42067	-39
1.42433	-38
1.42800	-35
1.43167	-30
1.43533	-21
1.43900	7
1.44267	47
1.44633	137
1.45000	395
1.45367	842
1.45733	1371
1.46100	1868
1.46467	2268
1.46833	2544
1.47200	2664
1.47567	2595
1.47933	2345
1.48300	1969
1.48667	1550
1.49033	1157
1.49400	832
1.49767	582
1.50133	400
1.50500	272
1.50867	185
1.51233	125
1.51600	82
1.51967	46
1.52333	16
1.52700	-7
1.53067	-16
1.53433	10
1.53800	122
1.54167	371
1.54533	746
1.54900	1171
1.55267	1559
1.55633	1863
1.56000	2058
1.56367	2120
1.56733	2019
1.57100	1770
1.57467	1433
1.57833	1084
1.58200	775
1.58567	525
1.58933	336
1.59300	201
1.59667	108
1.60033	45
1.60400	2
1.60767	-23
1.61133	-39
1.61500	-50
1.61867	-58
1.62233	-63
1.62600	-65
1.62967	-64
1.63333	-61
1.63700	-60
1.64067	-57
1.64433	-48
1.64800	-39
1.65167	-33
1.65533	-37
1.65900	-48
1.66267	-61
1.66633	-73
1.67000	-82
1.67367	-85
1.67733	-84
1.68100	-82
1.68467	-78
1.68833	-69
1.69200	-59
1.69567	-51
1.69933	-42
1.70300	-38
1.70667	-43
1.71033	-54
1.71400	-66
1.71767	-74
1.72133	-77
1.72500	-76
1.72867	-71
1.73233	-67
1.73600	-67
1.73967	-70
1.74333	-73
1.74700	-73
1.75067	-71
1.75433	-71
1.75800	-70
1.76167	-67
1.76533	-62
1.76900	-56
1.77267	-53
1.77633	-55
1.78000	-58
1.78367	-60
1.78733	-61
1.79100	-63
1.79467	-62
1.79833	-59
1.80200	-57
1.80567	-57
1.80933	-61
1.81300	-63
1.81667	-61
1.82033	-57
1.82400	-55
1.82767	-54
1.83133	-54
1.83500	-56
1.83867	-57
1.84233	-58
1.84600	-59
1.84967	-59
1.85333	-57
1.85700	-57
1.86067	-58
1.86433	-59
1.86800	-62
1.87167	-61
1.87533	-55
1.87900	-48
1.88267	-45
1.88633	-47
1.89000	-51
1.89367	-55
1.89733	-56
1.90100	-56
1.90467	-54
1.90833	-52
1.91200	-50
1.91567	-48
1.91933	-41
1.92300	-35
1.92667	-32
1.93033	-32
1.93400	-34
1.93767	-40
1.94133	-44
1.94500	-29
1.94867	132
1.95233	1213
1.95600	6716
1.95967	27592
1.96333	87581
1.96700	218438
1.97067	436934
1.97433	722882
1.97800	1024916
1.98167	1287160
1.98533	1468449
1.98900	1546686
1.99267	1516732
1.99633	1390434
2.00000	1196028
2.00367	970390
2.00733	748219
2.01100	553561
2.01467	397250
2.01833	279544
2.02200	194873
2.02567	135835
2.02933	95471
2.03300	68168
2.03667	49752
2.04033	37280
2.04400	28754
2.04767	22833
2.05133	18637
2.05500	15593
2.05867	13331
2.06233	11605
2.06600	10253
2.06967	9169
2.07333	8283
2.07700	7542
2.08067	6916
2.08433	6381
2.08800	5919
2.09167	5514
2.09533	5156
2.09900	4840
2.10267	4556
2.10633	4303
2.11000	4079
2.11367	3877
2.11733	3686
2.12100	3511
2.12467	3354
2.12833	3211
2.13200	3075
2.13567	2945
2.13933	2822
2.14300	2703
2.14667	2594
2.15033	2494
2.15400	2399
2.15767	2314
2.16133	2238
2.16500	2168
2.16867	2102
2.17233	2037
2.17600	1976
2.17967	1918
2.18333	1860
2.18700	1803
2.19067	1747
2.19433	1695
2.19800	1645
2.20167	1598
2.20533	1556
2.20900	1517
2.21267	1482
2.21633	1450
2.22000	1416
2.22367	1383
2.22733	1354
2.23100	1328
2.23467	1303
2.23833	1278
2.24200	1252
2.24567	1224
2.24933	1194
2.25300	1165
2.25667	1138
2.26033	1114
2.26400	1093
2.26767	1072
2.27133	1049
2.27500	1025
2.27867	1008
2.28233	1000
2.28600	993
2.28967	981
2.29333	963
2.29700	942
2.30067	921
2.30433	902
2.30800	887
2.31167	874
2.31533	861
2.31900	849
2.32267	833
2.32633	818
2.33000	811
2.33367	807
2.33733	804
2.34100	800
2.34467	794
2.34833	784
2.35200	773
2.35567	759
2.35933	742
2.36300	727
2.36667	718
2.37033	710
2.37400	704
2.37767	702
2.38133	698
2.38500	691
2.38867	682
2.39233	672
2.39600	662
2.39967	660
2.40333	662
2.40700	664
2.41067	662
2.41433	654
2.41800	643
2.42167	633
2.42533	623
2.42900	612
2.43267	600
2.43633	589
2.44000	582
2.44367	578
2.44733	576
2.45100	573
2.45467	569
2.45833	564
2.46200	564
2.46567	563
2.46933	560
2.47300	555
2.47667	545
2.48033	532
2.48400	518
2.48767	507
2.49133	501
2.49500	499
2.49867	502
2.50233	507
2.50600	515
2.50967	525
2.51333	534
2.51700	537
2.52067	538
2.52433	538
2.52800	540
2.53167	540
2.53533	533
2.53900	523
2.54267	513
2.54633	505
2.55000	498
2.55367	495
2.55733	498
2.56100	499
2.56467	495
2.56833	486
2.57200	478
2.57567	470
2.57933	462
2.58300	456
2.58667	454
2.59033	454
2.59400	453
2.59767	450
2.60133	449
2.60500	448
2.60867	449
2.61233	450
2.61600	449
2.61967	449
2.62333	452
2.62700	456
2.63067	456
2.63433	450
2.63800	444
2.64167	440
2.64533	439
2.64900	443
2.65267	449
2.65633	453
2.66000	454
2.66367	451
2.66733	447
2.67100	446
2.67467	450
2.67833	454
2.68200	458
2.68567	458
2.68933	456
2.69300	452
2.69667	450
2.70033	451
2.70400	454
2.70767	457
2.71133	454
2.71500	451
2.71867	452
2.72233	453
2.72600	451
2.72967	447
2.73333	439
2.73700	431
2.74067	428
2.74433	429
2.74800	434
2.75167	442
2.75533	452
2.75900	459
2.76267	460
2.76633	457
2.77000	453
2.77367	451
2.77733	449
2.78100	445
2.78467	443
2.78833	439
2.79200	438
2.79567	440
2.79933	444
2.80300	450
2.80667	456
2.81033	462
2.81400	466
2.81767	467
2.82133	463
2.82500	457
2.82867	449
2.83233	440
2.83600	433
2.83967	435
2.84333	443
2.84700	447
2.85067	445
2.85433	445
2.85800	445
2.86167	444
2.86533	445
2.86900	450
2.87267	455
2.87633	456
2.88000	456
2.88367	455
2.88733	454
2.89100	458
2.89467	461
2.89833	464
2.90200	464
2.90567	461
2.90933	460
2.91300	461
2.91667	464
2.92033	468
2.92400	471
2.92767	472
2.93133	470
2.93500	465
2.93867	463
2.94233	459
2.94600	454
2.94967	451
2.95333	452
2.95700	455
2.96067	459
2.96433	464
2.96800	470
2.97167	474
2.97533	476
2.97900	473
2.98267	468
2.98633	463
2.99000	463
2.99367	469
2.99733	479
3.00100	489
3.00467	492
3.00833	495
3.01200	497
3.01567	498
3.01933	494
3.02300	490
3.02667	485
3.03033	480
3.03400	477
3.03767	475
3.04133	473
3.04500	467
3.04867	464
3.05233	466
3.05600	470
3.05967	471
3.06333	471
3.06700	472
3.07067	475
3.07433	477
3.07800	476
3.08167	480
3.08533	482
3.08900	482
3.09267	483
3.09633	484
3.10000	486
3.10367	488
3.10733	486
3.11100	480
3.11467	474
3.11833	471
3.12200	471
3.12567	475
3.12933	480
3.13300	486
3.13667	493
3.14033	497
3.14400	501
3.14767	505
3.15133	508
3.15500	507
3.15867	501
3.16233	495
3.16600	490
3.16967	481
3.17333	471
3.17700	465
3.18067	461
3.18433	458
3.18800	461
3.19167	468
3.19533	472
3.19900	471
3.20267	471
3.20633	472
3.21000	476
3.21367	480
3.21733	482
3.22100	484
3.22467	484
3.22833	481
3.23200	478
3.23567	482
3.23933	490
3.24300	493
3.24667	490
3.25033	485
3.25400	479
3.25767	474
3.26133	473
3.26500	477
3.26867	488
3.27233	500
3.27600	502
3.27967	495
3.28333	486
3.28700	477
3.29067	470
3.29433	466
3.29800	465
3.30167	468
3.30533	478
3.30900	487
3.31267	493
3.31633	495
3.32000	493
3.32367	490
3.32733	490
3.33100	489
3.33467	487
3.33833	486
3.34200	490
3.34567	497
3.34933	500
3.35300	501
3.35667	499
3.36033	494
3.36400	494
3.36767	497
3.37133	501
3.37500	496
3.37867	489
3.38233	482
3.38600	474
3.38967	468
3.39333	466
3.39700	466
3.40067	469
3.40433	478
3.40800	487
3.41167	493
3.41533	496
3.41900	494
3.42267	491
3.42633	488
3.43000	484
3.43367	480
3.43733	475
3.44100	468
3.44467	462
3.44833	460
3.45200	463
3.45567	467
3.45933	471
3.46300	476
3.46667	480
3.47033	485
3.47400	484
3.47767	478
3.48133	472
3.48500	466
3.48867	463
3.49233	460
3.49600	458
3.49967	458
3.50333	457
3.50700	459
3.51067	460
3.51433	461
3.51800	466
3.52167	475
3.52533	481
3.52900	481
3.53267	473
3.53633	464
3.54000	459
3.54367	462
3.54733	470
3.55100	478
3.55467	485
3.55833	486
3.56200	479
3.56567	469
3.56933	460
3.57300	453
3.57667	449
3.58033	447
3.58400	450
3.58767	455
3.59133	457
3.59500	455
3.59867	456
3.60233	458
3.60600	460
3.60967	460
3.61333	456
3.61700	452
3.62067	450
3.62433	449
3.62800	452
3.63167	457
3.63533	459
3.63900	459
3.64267	458
3.64633	453
3.65000	451
3.65367	449
3.65733	445
3.66100	442
3.66467	440
3.66833	439
3.67200	438
3.67567	436
3.67933	432
3.68300	424
3.68667	421
3.69033	420
3.69400	423
3.69767	428
3.70133	431
3.70500	433
3.70867	435
3.71233	438
3.71600	438
3.71967	435
3.72333	435
3.72700	437
3.73067	437
3.73433	436
3.73800	434
3.74167	430
3.74533	427
3.74900	424
3.75267	420
3.75633	420
3.76000	423
3.76367	429
3.76733	436
3.77100	438
3.77467	436
3.77833	433
3.78200	431
3.78567	427
3.78933	422
3.79300	419
3.79667	422
3.80033	430
3.80400	437
3.80767	440
3.81133	437
3.81500	429
3.81867	419
3.82233	410
3.82600	400
3.82967	394
3.83333	393
3.83700	396
3.84067	398
3.84433	399
3.84800	403
3.85167	411
3.85533	417
3.85900	416
3.86267	411
3.86633	402
3.87000	396
3.87367	395
3.87733	397
3.88100	401
3.88467	402
3.88833	398
3.89200	392
3.89567	388
3.89933	390
3.90300	395
3.90667	402
3.91033	404
3.91400	407
3.91767	412
3.92133	412
3.92500	406
3.92867	403
3.93233	400
3.93600	399
3.93967	400
3.94333	402
3.94700	405
3.95067	410
3.95433	412
3.95800	415
3.96167	417
3.96533	414
3.96900	401
3.97267	385
3.97633	375
3.98000	374
3.98367	378
3.98733	385
3.99100	389
3.99467	392
3.99833	393

[Chromatogram (Ch2)]
Interval(msec)	220
# of Points	1091
Start Time(min)	0.002
End Time(min)	3.998
R.Time (min)	Intensity
0.00167	-1
0.00533	-1
0.00900	-1
0.01267	-1
0.01633	-1
0.02000	-1
0.02367	-1
0.02733	-1
0.03100	-0
0.03467	0
0.03833	1
0.04200	1
0.04567	1
0.04933	1
0.05300	2
0.05667	2
0.06033	2
0.06400	3
0.06767	3
0.07133	4
0.07500	5
0.07867	5
0.08233	5
0.08600	5
0.08967	5
0.09333	5
0.09700	5
0.10067	5
0.10433	5
0.10800	6
0.11167	6
0.11533	5
0.11900	5
0.12267	5
0.12633	5
0.13000	4
0.13367	4
0.13733	4
0.14100	4
0.14467	4
0.14833	3
0.15200	3
0.15567	3
0.15933	3
0.16300	3
0.16667	3
0.17033	3
0.17400	3
0.17767	3
0.18133	3
0.18500	3
0.18867	3
0.19233	3
0.19600	3
0.19967	3
0.20333	3
0.20700	3
0.21067	3
0.21433	4
0.21800	4
0.22167	4
0.22533	4
0.22900	4
0.23267	4
0.23633	4
0.24000	4
0.24367	3
0.24733	3
0.25100	3
0.25467	3
0.25833	3
0.26200	3
0.26567	4
0.26933	4
0.27300	4
0.27667	4
0.28033	4
0.28400	4
0.28767	4
0.29133	5
0.29500	5
0.29867	4
0.30233	4
0.30600	4
0.30967	4
0.31333	3
0.31700	3
0.32067	3
0.32433	3
0.32800	3
0.33167	3
0.33533	3
0.33900	3
0.34267	3
0.34633	3
0.35000	3
0.35367	3
0.35733	3
0.36100	3
0.36467	3
0.36833	3
0.37200	3
0.37567	3
0.37933	3
0.38300	3
0.38667	3
0.39033	3
0.39400	3
0.39767	2
0.40133	2
0.40500	2
0.40867	2
0.41233	2
0.41600	1
0.41967	1
0.42333	1
0.42700	0
0.43067	0
0.43433	-0
0.43800	-0
0.44167	-0
0.44533	-0
0.44900	-0
0.45267	-0
0.45633	-1
0.46000	-1
0.46367	-1
0.46733	-1
0.47100	-1
0.47467	-1
0.47833	-1
0.48200	-2
0.48567	-2
0.48933	-2
0.49300	-2
0.49667	-2
0.50033	-2
0.50400	-2
0.50767	-2
0.51133	-2
0.51500	-2
0.51867	-2
0.52233	-2
0.52600	-2
0.52967	-1
0.53333	-1
0.53700	-1
0.54067	-0
0.54433	-0
0.54800	0
0.55167	1
0.55533	1
0.55900	2
0.56267	2
0.56633	2
0.57000	3
0.57367	3
0.57733	4
0.58100	4
0.58467	4
0.58833	5
0.59200	5
0.59567	5
0.59933	5
0.60300	5
0.60667	6
0.61033	6
0.61400	6
0.61767	6
0.62133	6
0.62500	5
0.62867	5
0.63233	5
0.63600	5
0.63967	4
0.64333	4
0.64700	4
0.65067	4
0.65433	4
0.65800	4
0.66167	4
0.66533	4
0.66900	4
0.67267	4
0.67633	4
0.68000	4
0.68367	4
0.68733	4
0.69100	4
0.69467	5
0.69833	5
0.70200	5
0.70567	5
0.70933	5
0.71300	5
0.71667	5
0.72033	4
0.72400	4
0.72767	4
0.73133	4
0.73500	3
0.73867	3
0.74233	3
0.74600	3
0.74967	3
0.75333	2
0.75700	2
0.76067	3
0.76433	3
0.76800	3
0.77167	3
0.77533	3
0.77900	3
0.78267	3
0.78633	3
0.79000	2
0.79367	2
0.79733	2
0.80100	1
0.80467	1
0.80833	1
0.81200	1
0.81567	1
0.81933	1
0.82300	1
0.82667	1
0.83033	1
0.83400	1
0.83767	1
0.84133	1
0.84500	1
0.84867	1
0.85233	2
0.85600	2
0.85967	2
0.86333	2
0.86700	2
0.87067	2
0.87433	2
0.87800	2
0.88167	2
0.88533	2
0.88900	2
0.89267	1
0.89633	1
0.90000	1
0.90367	2
0.90733	2
0.91100	2
0.91467	2
0.91833	2
0.92200	3
0.92567	3
0.92933	3
0.93300	3
0.93667	3
0.94033	2
0.94400	2
0.94767	2
0.95133	2
0.95500	2
0.95867	2
0.96233	2
0.96600	2
0.96967	2
0.97333	2
0.97700	2
0.98067	2
0.98433	2
0.98800	2
0.99167	2
0.99533	2
0.99900	2
1.00267	2
1.00633	2
1.01000	2
1.01367	2
1.01733	2
1.02100	2
1.02467	2
1.02833	2
1.03200	2
1.03567	1
1.03933	1
1.04300	1
1.04667	1
1.05033	1
1.05400	1
1.05767	1
1.06133	1
1.06500	1
1.06867	1
1.07233	1
1.07600	1
1.07967	1
1.08333	1
1.08700	1
1.09067	1
1.09433	1
1.09800	1
1.10167	1
1.10533	1
1.10900	1
1.11267	0
1.11633	0
1.12000	0
1.12367	-0
1.12733	-1
1.13100	-1
1.13467	-1
1.13833	-1
1.14200	-1
1.14567	-1
1.14933	-1
1.15300	-2
1.15667	-2
1.16033	-2
1.16400	-2
1.16767	-2
1.17133	-2
1.17500	-1
1.17867	-1
1.18233	-1
1.18600	-1
1.18967	-0
1.19333	-0
1.19700	0
1.20067	0
1.20433	1
1.20800	1
1.21167	1
1.21533	1
1.21900	1
1.22267	2
1.22633	2
1.23000	3
1.23367	3
1.23733	3
1.24100	3
1.24467	3
1.24833	3
1.25200	3
1.25567	3
1.25933	3
1.26300	3
1.26667	3
1.27033	3
1.27400	2
1.27767	2
1.28133	2
1.28500	2
1.28867	2
1.29233	2
1.29600	2
1.29967	1
1.30333	1
1.30700	1
1.31067	1
1.31433	1
1.31800	1
1.32167	1
1.32533	1
1.32900	1
1.33267	1
1.33633	1
1.34000	1
1.34367	1
1.34733	1
1.35100	1
1.35467	1
1.35833	1
1.36200	1
1.36567	1
1.36933	1
1.37300	2
1.37667	2
1.38033	2
1.38400	2
1.38767	2
1.39133	1
1.39500	1
1.39867	1
1.40233	1
1.40600	1
1.40967	1
1.41333	1
1.41700	1
1.42067	1
1.42433	1
1.42800	1
1.43167	1
1.43533	1
1.43900	1
1.44267	0
1.44633	0
1.45000	0
1.45367	-0
1.45733	-0
1.46100	-0
1.46467	-1
1.46833	-1
1.47200	-1
1.47567	-1
1.47933	-0
1.48300	-0
1.48667	0
1.49033	1
1.49400	1
1.49767	1
1.50133	1
1.50500	1
1.50867	1
1.51233	1
1.51600	1
1.51967	1
1.52333	1
1.52700	1
1.53067	1
1.53433	1
1.53800	1
1.54167	1
1.54533	1
1.54900	1
1.55267	1
1.55633	1
1.56000	1
1.56367	1
1.56733	1
1.57100	1
1.57467	1
1.57833	1
1.58200	1
1.58567	1
1.58933	1
1.59300	1
1.59667	0
1.60033	-0
1.60400	-1
1.60767	-3
1.61133	-5
1.61500	-7
1.61867	-10
1.62233	-12
1.62600	-15
1.62967	-19
1.63333	-22
1.63700	-25
1.64067	-28
1.64433	-32
1.64800	-35
1.65167	-38
1.65533	-42
1.65900	-46
1.66267	-50
1.66633	-54
1.67000	-58
1.67367	-63
1.67733	-68
1.68100	-73
1.68467	-77
1.68833	-81
1.69200	-84
1.69567	-87
1.69933	-89
1.70300	-91
1.70667	-93
1.71033	-94
1.71400	-95
1.71767	-96
1.72133	-96
1.72500	-96
1.72867	-96
1.73233	-97
1.73600	-97
1.73967	-98
1.74333	-99
1.74700	-99
1.75067	-100
1.75433	-100
1.75800	-100
1.76167	-100
1.76533	-100
1.76900	-100
1.77267	-100
1.77633	-100
1.78000	-100
1.78367	-101
1.78733	-101
1.79100	-102
1.79467	-102
1.79833	-103
1.80200	-103
1.80567	-104
1.80933	-104
1.81300	-105
1.81667	-105
1.82033	-104
1.82400	-104
1.82767	-104
1.83133	-104
1.83500	-103
1.83867	-103
1.84233	-103
1.84600	-103
1.84967	-104
1.85333	-104
1.85700	-104
1.86067	-105
1.86433	-105
1.86800	-105
1.87167	-105
1.87533	-105
1.87900	-104
1.88267	-104
1.88633	-103
1.89000	-103
1.89367	-102
1.89733	-102
1.90100	-102
1.90467	-102
1.90833	-102
1.91200	-102
1.91567	-102
1.91933	-102
1.92300	-102
1.92667	-102
1.93033	-102
1.93400	-101
1.93767	-101
1.94133	-100
1.94500	-100
1.94867	-99
1.95233	-99
1.95600	-98
1.95967	-98
1.96333	-97
1.96700	-96
1.97067	-96
1.97433	-95
1.97800	-95
1.98167	-95
1.98533	-95
1.98900	-96
1.99267	-96
1.99633	-96
2.00000	-96
2.00367	-96
2.00733	-96
2.01100	-97
2.01467	-96
2.01833	-96
2.02200	-95
2.02567	-95
2.02933	-95
2.03300	-94
2.03667	-94
2.04033	-94
2.04400	-93
2.04767	-93
2.05133	-93
2.05500	-92
2.05867	-92
2.06233	-91
2.06600	-91
2.06967	-91
2.07333	-91
2.07700	-91
2.08067	-91
2.08433	-91
2.08800	-90
2.09167	-90
2.09533	-90
2.09900	-89
2.10267	-89
2.10633	-89
2.11000	-89
2.11367	-89
2.11733	-89
2.12100	-89
2.12467	-90
2.12833	-90
2.13200	-89
2.13567	-89
2.13933	-88
2.14300	-86
2.14667	-86
2.15033	-85
2.15400	-84
2.15767	-84
2.16133	-83
2.16500	-83
2.16867	-83
2.17233	-84
2.17600	-83
2.17967	-83
2.18333	-82
2.18700	-81
2.19067	-80
2.19433	-80
2.19800	-79
2.20167	-79
2.20533	-79
2.20900	-79
2.21267	-79
2.21633	-79
2.22000	-79
2.22367	-79
2.22733	-79
2.23100	-79
2.23467	-79
2.23833	-79
2.24200	-78
2.24567	-77
2.24933	-76
2.25300	-76
2.25667	-75
2.26033	-75
2.26400	-74
2.26767	-74
2.27133	-74
2.27500	-73
2.27867	-73
2.28233	-73
2.28600	-73
2.28967	-73
2.29333	-73
2.29700	-73
2.30067	-73
2.30433	-73
2.30800	-73
2.31167	-73
2.31533	-73
2.31900	-72
2.32267	-72
2.32633	-71
2.33000	-70
2.33367	-70
2.33733	-70
2.34100	-69
2.34467	-69
2.34833	-68
2.35200	-67
2.35567	-66
2.35933	-64
2.36300	-63
2.36667	-61
2.37033	-59
2.37400	-57
2.37767	-54
2.38133	-50
2.38500	-47
2.38867	-43
2.39233	-39
2.39600	-35
2.39967	-30
2.40333	-26
2.40700	-22
2.41067	-17
2.41433	-13
2.41800	-9
2.42167	-6
2.42533	-3
2.42900	-1
2.43267	0
2.43633	1
2.44000	2
2.44367	3
2.44733	4
2.45100	6
2.45467	7
2.45833	9
2.46200	10
2.46567	11
2.46933	13
2.47300	14
2.47667	15
2.48033	15
2.48400	16
2.48767	16
2.49133	17
2.49500	17
2.49867	17
2.50233	17
2.50600	17
2.50967	17
2.51333	16
2.51700	16
2.52067	15
2.52433	14
2.52800	14
2.53167	13
2.53533	12
2.53900	11
2.54267	11
2.54633	11
2.55000	11
2.55367	12
2.55733	13
2.56100	14
2.56467	15
2.56833	15
2.57200	16
2.57567	17
2.57933	17
2.58300	18
2.58667	18
2.59033	19
2.59400	19
2.59767	20
2.60133	20
2.60500	20
2.60867	21
2.61233	21
2.61600	21
2.61967	22
2.62333	22
2.62700	22
2.63067	22
2.63433	22
2.63800	22
2.64167	22
2.64533	23
2.64900	23
2.65267	24
2.65633	25
2.66000	25
2.66367	26
2.66733	26
2.67100	26
2.67467	27
2.67833	27
2.68200	27
2.68567	27
2.68933	27
2.69300	27
2.69667	27
2.70033	27
2.70400	27
2.70767	27
2.71133	27
2.71500	27
2.71867	27
2.72233	28
2.72600	28
2.72967	29
2.73333	29
2.73700	29
2.74067	29
2.74433	29
2.74800	29
2.75167	29
2.75533	30
2.75900	30
2.76267	30
2.76633	31
2.77000	31
2.77367	31
2.77733	31
2.78100	31
2.78467	31
2.78833	30
2.79200	30
2.79567	31
2.79933	31
2.80300	31
2.80667	31
2.81033	31
2.81400	31
2.81767	31
2.82133	31
2.82500	32
2.82867	32
2.83233	32
2.83600	32
2.83967	32
2.84333	31
2.84700	31
2.85067	30
2.85433	29
2.85800	29
2.86167	27
2.86533	25
2.86900	22
2.87267	16
2.87633	6
2.88000	-7
2.88367	-25
2.88733	-47
2.89100	-75
2.89467	-108
2.89833	-146
2.90200	-189
2.90567	-236
2.90933	-287
2.91300	-341
2.91667	-399
2.92033	-458
2.92400	-518
2.92767	-579
2.93133	-640
2.93500	-700
2.93867	-758
2.94233	-813
2.94600	-865
2.94967	-916
2.95333	-969
2.95700	-1023
2.96067	-1069
2.96433	-1097
2.96800	-1101
2.97167	-1080
2.97533	-1037
2.97900	-976
2.98267	-904
2.98633	-826
2.99000	-746
2.99367	-666
2.99733	-590
3.00100	-519
3.00467	-453
3.00833	-393
3.01200	-340
3.01567	-292
3.01933	-251
3.02300	-214
3.02667	-182
3.03033	-154
3.03400	-129
3.03767	-108
3.04133	-90
3.04500	-75
3.04867	-61
3.05233	-50
3.05600	-40
3.05967	-32
3.06333	-25
3.06700	-19
3.07067	-13
3.07433	-9
3.07800	-5
3.08167	-2
3.08533	1
3.08900	4
3.09267	6
3.09633	8
3.10000	9
3.10367	11
3.10733	12
3.11100	13
3.11467	14
3.11833	15
3.12200	15
3.12567	16
3.12933	17
3.13300	17
3.13667	18
3.14033	18
3.14400	19
3.14767	19
3.15133	19
3.15500	20
3.15867	20
3.16233	21
3.16600	21
3.16967	22
3.17333	22
3.17700	22
3.18067	22
3.18433	23
3.18800	23
3.19167	23
3.19533	23
3.19900	24
3.20267	24
3.20633	24
3.21000	25
3.21367	25
3.21733	26
3.22100	26
3.22467	26
3.22833	27
3.23200	27
3.23567	27
3.23933	27
3.24300	27
3.24667	27
3.25033	27
3.25400	27
3.25767	28
3.26133	28
3.26500	28
3.26867	28
3.27233	28
3.27600	28
3.27967	28
3.28333	28
3.28700	28
3.29067	28
3.29433	29
3.29800	29
3.30167	29
3.30533	29
3.30900	29
3.31267	29
3.31633	29
3.32000	29
3.32367	29
3.32733	29
3.33100	29
3.33467	29
3.33833	29
3.34200	29
3.34567	29
3.34933	29
3.35300	29
3.35667	29
3.36033	29
3.36400	29
3.36767	29
3.37133	29
3.37500	29
3.37867	29
3.38233	29
3.38600	29
3.38967	29
3.39333	29
3.39700	30
3.40067	30
3.40433	29
3.40800	30
3.41167	30
3.41533	30
3.41900	30
3.42267	31
3.42633	31
3.43000	31
3.43367	31
3.43733	31
3.44100	31
3.44467	31
3.44833	32
3.45200	32
3.45567	32
3.45933	33
3.46300	33
3.46667	33
3.47033	33
3.47400	33
3.47767	33
3.48133	33
3.48500	33
3.48867	33
3.49233	33
3.49600	33
3.49967	33
3.50333	33
3.50700	33
3.51067	33
3.51433	33
3.51800	33
3.52167	33
3.52533	33
3.52900	33
3.53267	33
3.53633	32
3.54000	32
3.54367	32
3.54733	32
3.55100	32
3.55467	32
3.55833	32
3.56200	32
3.56567	32
3.56933	32
3.57300	32
3.57667	32
3.58033	32
3.58400	32
3.58767	32
3.59133	32
3.59500	31
3.59867	31
3.60233	32
3.60600	32
3.60967	32
3.61333	32
3.61700	32
3.62067	32
3.62433	32
3.62800	32
3.63167	32
3.63533	32
3.63900	32
3.64267	32
3.64633	32
3.65000	32
3.65367	32
3.65733	31
3.66100	31
3.66467	31
3.66833	31
3.67200	30
3.67567	30
3.67933	30
3.68300	30
3.68667	30
3.69033	30
3.69400	30
3.69767	30
3.70133	30
3.70500	30
3.70867	29
3.71233	29
3.71600	29
3.71967	29
3.72333	29
3.72700	29
3.73067	29
3.73433	29
3.73800	30
3.74167	30
3.74533	30
3.74900	31
3.75267	31
3.75633	31
3.76000	31
3.76367	32
3.76733	32
3.77100	32
3.77467	33
3.77833	33
3.78200	33
3.78567	33
3.78933	33
3.79300	33
3.79667	33
3.80033	33
3.80400	33
3.80767	33
3.81133	33
3.81500	33
3.81867	33
3.82233	33
3.82600	33
3.82967	33
3.83333	33
3.83700	33
3.84067	32
3.84433	32
3.84800	32
3.85167	31
3.85533	31
3.85900	31
3.86267	31
3.86633	31
3.87000	30
3.87367	30
3.87733	31
3.88100	31
3.88467	31
3.88833	31
3.89200	31
3.89567	31
3.89933	31
3.90300	31
3.90667	31
3.91033	31
3.91400	31
3.91767	31
3.92133	31
3.92500	31
3.92867	31
3.93233	31
3.93600	31
3.93967	31
3.94333	31
3.94700	31
3.95067	31
3.95433	31
3.95800	32
3.96167	32
3.96533	32
3.96900	32
3.97267	32
3.97633	32
3.98000	32
3.98367	32
3.98733	32
3.99100	32
3.99467	32
3.99833	32

[Chromatogram (Ch3)]
Interval(msec)	220
# of Points	1091
Start Time(min)	0.002
End Time(min)	3.998
R.Time (min)	Intensity
0.00167	0
0.00533	2
0.00900	5
0.01267	5
0.01633	3
0.02000	-1
0.02367	-2
0.02733	-2
0.03100	-1
0.03467	-1
0.03833	-1
0.04200	-3
0.04567	-6
0.04933	-6
0.05300	-4
0.05667	-1
0.06033	1
0.06400	2
0.06767	1
0.07133	1
0.07500	-2
0.07867	-2
0.08233	2
0.08600	2
0.08967	1
0.09333	-1
0.09700	-3
0.10067	-3
0.10433	-2
0.10800	-0
0.11167	3
0.11533	5
0.11900	4
0.12267	4
0.12633	4
0.13000	1
0.13367	0
0.13733	1
0.14100	3
0.14467	4
0.14833	6
0.15200	7
0.15567	6
0.15933	6
0.16300	6
0.16667	4
0.17033	3
0.17400	2
0.17767	3
0.18133	4
0.18500	4
0.18867	4
0.19233	6
0.19600	8
0.19967	8
0.20333	9
0.20700	10
0.21067	9
0.21433	8
0.21800	7
0.22167	8
0.22533	8
0.22900	8
0.23267	10
0.23633	11
0.24000	10
0.24367	8
0.24733	8
0.25100	7
0.25467	6
0.25833	4
0.26200	4
0.26567	4
0.26933	3
0.27300	3
0.27667	2
0.28033	1
0.28400	2
0.28767	2
0.29133	0
0.29500	2
0.29867	5
0.30233	7
0.30600	8
0.30967	9
0.31333	7
0.31700	7
0.32067	8
0.32433	10
0.32800	10
0.33167	8
0.33533	7
0.33900	5
0.34267	4
0.34633	1
0.35000	0
0.35367	-0
0.35733	-2
0.36100	-1
0.36467	0
0.36833	2
0.37200	4
0.37567	5
0.37933	6
0.38300	5
0.38667	5
0.39033	5
0.39400	3
0.39767	2
0.40133	2
0.40500	3
0.40867	6
0.41233	5
0.41600	4
0.41967	4
0.42333	4
0.42700	6
0.43067	7
0.43433	6
0.43800	7
0.44167	7
0.44533	9
0.44900	9
0.45267	8
0.45633	8
0.46000	9
0.46367	9
0.46733	9
0.47100	9
0.47467	9
0.47833	9
0.48200	7
0.48567	6
0.48933	8
0.49300	9
0.49667	8
0.50033	7
0.50400	8
0.50767	9
0.51133	9
0.51500	9
0.51867	9
0.52233	9
0.52600	9
0.52967	10
0.53333	10
0.53700	11
0.54067	11
0.54433	10
0.54800	11
0.55167	11
0.55533	9
0.55900	6
0.56267	5
0.56633	6
0.57000	7
0.57367	9
0.57733	10
0.58100	11
0.58467	12
0.58833	11
0.59200	10
0.59567	11
0.59933	11
0.60300	10
0.60667	9
0.61033	11
0.61400	14
0.61767	14
0.62133	13
0.62500	14
0.62867	15
0.63233	14
0.63600	13
0.63967	13
0.64333	13
0.64700	12
0.65067	11
0.65433	11
0.65800	8
0.66167	7
0.66533	8
0.66900	10
0.67267	12
0.67633	11
0.68000	11
0.68367	11
0.68733	12
0.69100	13
0.69467	13
0.69833	13
0.70200	13
0.70567	13
0.70933	11
0.71300	10
0.71667	10
0.72033	12
0.72400	14
0.72767	15
0.73133	15
0.73500	14
0.73867	13
0.74233	13
0.74600	13
0.74967	13
0.75333	15
0.75700	17
0.76067	18
0.76433	18
0.76800	18
0.77167	16
0.77533	14
0.77900	13
0.78267	12
0.78633	13
0.79000	13
0.79367	12
0.79733	12
0.80100	10
0.80467	11
0.80833	12
0.81200	12
0.81567	13
0.81933	15
0.82300	16
0.82667	15
0.83033	15
0.83400	16
0.83767	18
0.84133	19
0.84500	18
0.84867	20
0.85233	20
0.85600	18
0.85967	16
0.86333	15
0.86700	14
0.87067	13
0.87433	14
0.87800	15
0.88167	18
0.88533	20
0.88900	21
0.89267	19
0.89633	17
0.90000	20
0.90367	22
0.90733	21
0.91100	19
0.91467	19
0.91833	19
0.92200	18
0.92567	16
0.92933	16
0.93300	16
0.93667	14
0.94033	16
0.94400	16
0.94767	16
0.95133	17
0.95500	16
0.95867	18
0.96233	19
0.96600	19
0.96967	20
0.97333	23
0.97700	25
0.98067	23
0.98433	19
0.98800	17
0.99167	18
0.99533	19
0.99900	18
1.00267	18
1.00633	18
1.01000	17
1.01367	17
1.01733	19
1.02100	20
1.02467	21
1.02833	22
1.03200	22
1.03567	21
1.03933	21
1.04300	21
1.04667	22
1.05033	23
1.05400	21
1.05767	18
1.06133	14
1.06500	13
1.06867	12
1.07233	15
1.07600	18
1.07967	19
1.08333	20
1.08700	20
1.09067	20
1.09433	20
1.09800	20
1.10167	23
1.10533	25
1.10900	26
1.11267	26
1.11633	24
1.12000	20
1.12367	17
1.12733	14
1.13100	14
1.13467	15
1.13833	16
1.14200	17
1.14567	18
1.14933	19
1.15300	18
1.15667	18
1.16033	18
1.16400	20
1.16767	20
1.17133	21
1.17500	22
1.17867	22
1.18233	23
1.18600	22
1.18967	21
1.19333	21
1.19700	21
1.20067	21
1.20433	23
1.20800	25
1.21167	26
1.21533	25
1.21900	23
1.22267	21
1.22633	21
1.23000	23
1.23367	23
1.23733	25
1.24100	26
1.24467	24
1.24833	25
1.25200	26
1.25567	25
1.25933	24
1.26300	23
1.26667	23
1.27033	21
1.27400	18
1.27767	19
1.28133	21
1.28500	22
1.28867	23
1.29233	23
1.29600	22
1.29967	23
1.30333	21
1.30700	21
1.31067	21
1.31433	23
1.31800	24
1.32167	23
1.32533	21
1.32900	21
1.33267	22
1.33633	21
1.34000	20
1.34367	20
1.34733	22
1.35100	24
1.35467	24
1.35833	22
1.36200	22
1.36567	23
1.36933	23
1.37300	22
1.37667	20
1.38033	19
1.38400	19
1.38767	19
1.39133	20
1.39500	21
1.39867	21
1.40233	23
1.40600	24
1.40967	25
1.41333	24
1.41700	23
1.42067	24
1.42433	24
1.42800	22
1.43167	22
1.43533	23
1.43900	23
1.44267	25
1.44633	26
1.45000	26
1.45367	23
1.45733	20
1.46100	18
1.46467	17
1.46833	18
1.47200	20
1.47567	22
1.47933	24
1.48300	24
1.48667	24
1.49033	24
1.49400	24
1.49767	25
1.50133	25
1.50500	25
1.50867	25
1.51233	23
1.51600	21
1.51967	22
1.52333	23
1.52700	23
1.53067	20
1.53433	18
1.53800	16
1.54167	18
1.54533	20
1.54900	22
1.55267	25
1.55633	24
1.56000	24
1.56367	23
1.56733	21
1.57100	21
1.57467	19
1.57833	20
1.58200	20
1.58567	21
1.58933	22
1.59300	24
1.59667	25
1.60033	25
1.60400	25
1.60767	27
1.61133	29
1.61500	30
1.61867	29
1.62233	27
1.62600	27
1.62967	28
1.63333	28
1.63700	28
1.64067	29
1.64433	28
1.64800	26
1.65167	24
1.65533	24
1.65900	24
1.66267	23
1.66633	24
1.67000	23
1.67367	25
1.67733	30
1.68100	33
1.68467	32
1.68833	34
1.69200	35
1.69567	35
1.69933	37
1.70300	38
1.70667	41
1.71033	40
1.71400	39
1.71767	38
1.72133	40
1.72500	41
1.72867	40
1.73233	43
1.73600	46
1.73967	46
1.74333	45
1.74700	44
1.75067	42
1.75433	41
1.75800	41
1.76167	40
1.76533	41
1.76900	42
1.77267	42
1.77633	43
1.78000	43
1.78367	43
1.78733	44
1.79100	45
1.79467	45
1.79833	44
1.80200	42
1.80567	43
1.80933	45
1.81300	45
1.81667	46
1.82033	48
1.82400	49
1.82767	48
1.83133	48
1.83500	48
1.83867	48
1.84233	48
1.84600	48
1.84967	50
1.85333	52
1.85700	55
1.86067	55
1.86433	54
1.86800	55
1.87167	55
1.87533	56
1.87900	56
1.88267	54
1.88633	54
1.89000	54
1.89367	55
1.89733	57
1.90100	60
1.90467	61
1.90833	61
1.91200	62
1.91567	63
1.91933	63
1.92300	64
1.92667	65
1.93033	67
1.93400	69
1.93767	70
1.94133	70
1.94500	71
1.94867	72
1.95233	73
1.95600	73
1.95967	73
1.96333	73
1.96700	74
1.97067	75
1.97433	73
1.97800	71
1.98167	73
1.98533	76
1.98900	76
1.99267	79
1.99633	80
2.00000	80
2.00367	82
2.00733	83
2.01100	83
2.01467	85
2.01833	87
2.02200	90
2.02567	93
2.02933	94
2.03300	94
2.03667	93
2.04033	93
2.04400	91
2.04767	90
2.05133	91
2.05500	92
2.05867	95
2.06233	98
2.06600	98
2.06967	97
2.07333	98
2.07700	99
2.08067	101
2.08433	102
2.08800	103
2.09167	104
2.09533	105
2.09900	105
2.10267	106
2.10633	108
2.11000	109
2.11367	111
2.11733	112
2.12100	112
2.12467	113
2.12833	114
2.13200	114
2.13567	114
2.13933	111
2.14300	111
2.14667	114
2.15033	114
2.15400	116
2.15767	118
2.16133	123
2.16500	127
2.16867	127
2.17233	127
2.17600	128
2.17967	129
2.18333	127
2.18700	126
2.19067	125
2.19433	126
2.19800	127
2.20167	128
2.20533	130
2.20900	131
2.21267	132
2.21633	133
2.22000	135
2.22367	138
2.22733	141
2.23100	140
2.23467	140
2.23833	141
2.24200	141
2.24567	140
2.24933	139
2.25300	138
2.25667	138
2.26033	139
2.26400	138
2.26767	138
2.27133	140
2.27500	141
2.27867	141
2.28233	141
2.28600	142
2.28967	141
2.29333	142
2.29700	144
2.30067	146
2.30433	146
2.30800	145
2.31167	144
2.31533	146
2.31900	148
2.32267	150
2.32633	151
2.33000	151
2.33367	152
2.33733	151
2.34100	151
2.34467	151
2.34833	150
2.35200	150
2.35567	151
2.35933	154
2.36300	154
2.36667	154
2.37033	152
2.37400	150
2.37767	148
2.38133	146
2.38500	145
2.38867	144
2.39233	146
2.39600	148
2.39967	149
2.40333	151
2.40700	153
2.41067	154
2.41433	154
2.41800	152
2.42167	151
2.42533	152
2.42900	153
2.43267	155
2.43633	156
2.44000	160
2.44367	200
2.44733	286
2.45100	369
2.45467	433
2.45833	466
2.46200	463
2.46567	441
2.46933	418
2.47300	400
2.47667	386
2.48033	369
2.48400	346
2.48767	320
2.49133	294
2.49500	271
2.49867	253
2.50233	241
2.50600	232
2.50967	227
2.51333	226
2.51700	231
2.52067	238
2.52433	243
2.52800	243
2.53167	241
2.53533	236
2.53900	226
2.54267	212
2.54633	197
2.55000	180
2.55367	168
2.55733	159
2.56100	153
2.56467	147
2.56833	144
2.57200	141
2.57567	139
2.57933	139
2.58300	139
2.58667	141
2.59033	142
2.59400	144
2.59767	147
2.60133	151
2.60500	157
2.60867	161
2.61233	165
2.61600	171
2.61967	174
2.62333	175
2.62700	172
2.63067	167
2.63433	160
2.63800	154
2.64167	146
2.64533	138
2.64900	129
2.65267	120
2.65633	109
2.66000	101
2.66367	93
2.66733	83
2.67100	76
2.67467	71
2.67833	66
2.68200	63
2.68567	62
2.68933	63
2.69300	64
2.69667	64
2.70033	62
2.70400	60
2.70767	60
2.71133	61
2.71500	60
2.71867	61
2.72233	62
2.72600	64
2.72967	65
2.73333	66
2.73700	66
2.74067	54
2.74433	32
2.74800	17
2.75167	22
2.75533	54
2.75900	102
2.76267	154
2.76633	206
2.77000	255
2.77367	305
2.77733	350
2.78100	392
2.78467	433
2.78833	470
2.79200	503
2.79567	531
2.79933	555
2.80300	578
2.80667	598
2.81033	615
2.81400	631
2.81767	646
2.82133	660
2.82500	672
2.82867	682
2.83233	695
2.83600	714
2.83967	746
2.84333	802
2.84700	901
2.85067	1068
2.85433	1327
2.85800	1688
2.86167	2148
2.86533	2686
2.86900	3270
2.87267	3848
2.87633	4377
2.88000	4810
2.88367	5117
2.88733	5281
2.89100	5305
2.89467	5203
2.89833	5002
2.90200	4727
2.90567	4408
2.90933	4065
2.91300	3719
2.91667	3384
2.92033	3069
2.92400	2775
2.92767	2506
2.93133	2262
2.93500	2045
2.93867	1855
2.94233	1687
2.94600	1540
2.94967	1411
2.95333	1296
2.95700	1195
2.96067	1108
2.96433	1032
2.96800	969
2.97167	916
2.97533	869
2.97900	829
2.98267	792
2.98633	760
2.99000	733
2.99367	712
2.99733	693
3.00100	679
3.00467	668
3.00833	658
3.01200	648
3.01567	639
3.01933	630
3.02300	622
3.02667	617
3.03033	614
3.03400	612
3.03767	612
3.04133	613
3.04500	614
3.04867	613
3.05233	613
3.05600	611
3.05967	610
3.06333	610
3.06700	611
3.07067	613
3.07433	613
3.07800	615
3.08167	617
3.08533	618
3.08900	619
3.09267	618
3.09633	618
3.10000	618
3.10367	619
3.10733	619
3.11100	622
3.11467	625
3.11833	627
3.12200	628
3.12567	626
3.12933	624
3.13300	626
3.13667	628
3.14033	628
3.14400	626
3.14767	624
3.15133	621
3.15500	619
3.15867	616
3.16233	619
3.16600	621
3.16967	621
3.17333	621
3.17700	623
3.18067	624
3.18433	623
3.18800	621
3.19167	619
3.19533	620
3.19900	620
3.20267	620
3.20633	622
3.21000	621
3.21367	620
3.21733	621
3.22100	621
3.22467	621
3.22833	618
3.23200	617
3.23567	616
3.23933	614
3.24300	613
3.24667	611
3.25033	609
3.25400	608
3.25767	608
3.26133	606
3.26500	605
3.26867	605
3.27233	606
3.27600	607
3.27967	608
3.28333	606
3.28700	602
3.29067	598
3.29433	597
3.29800	595
3.30167	594
3.30533	594
3.30900	594
3.31267	592
3.31633	590
3.32000	588
3.32367	587
3.32733	588
3.33100	587
3.33467	586
3.33833	584
3.34200	582
3.34567	582
3.34933	582
3.35300	581
3.35667	579
3.36033	578
3.36400	575
3.36767	572
3.37133	572
3.37500	572
3.37867	569
3.38233	566
3.38600	565
3.38967	563
3.39333	561
3.39700	557
3.40067	550
3.40433	546
3.40800	545
3.41167	544
3.41533	544
3.41900	545
3.42267	544
3.42633	542
3.43000	542
3.43367	542
3.43733	540
3.44100	538
3.44467	537
3.44833	537
3.45200	537
3.45567	534
3.45933	530
3.46300	528
3.46667	528
3.47033	527
3.47400	525
3.47767	522
3.48133	521
3.48500	521
3.48867	520
3.49233	518
3.49600	519
3.49967	519
3.50333	516
3.50700	511
3.51067	509
3.51433	507
3.51800	507
3.52167	506
3.52533	505
3.52900	502
3.53267	500
3.53633	499
3.54000	498
3.54367	496
3.54733	495
3.55100	491
3.55467	489
3.55833	487
3.56200	485
3.56567	482
3.56933	481
3.57300	481
3.57667	482
3.58033	479
3.58400	478
3.58767	478
3.59133	476
3.59500	475
3.59867	473
3.60233	471
3.60600	469
3.60967	467
3.61333	465
3.61700	465
3.62067	465
3.62433	465
3.62800	464
3.63167	463
3.63533	462
3.63900	459
3.64267	459
3.64633	457
3.65000	456
3.65367	455
3.65733	454
3.66100	455
3.66467	453
3.66833	452
3.67200	451
3.67567	451
3.67933	450
3.68300	451
3.68667	450
3.69033	449
3.69400	446
3.69767	444
3.70133	441
3.70500	440
3.70867	438
3.71233	436
3.71600	435
3.71967	433
3.72333	432
3.72700	430
3.73067	429
3.73433	429
3.73800	429
3.74167	429
3.74533	430
3.74900	430
3.75267	427
3.75633	423
3.76000	420
3.76367	417
3.76733	415
3.77100	413
3.77467	412
3.77833	411
3.78200	410
3.78567	410
3.78933	410
3.79300	409
3.79667	408
3.80033	408
3.80400	408
3.80767	409
3.81133	409
3.81500	408
3.81867	406
3.82233	405
3.82600	404
3.82967	404
3.83333	402
3.83700	400
3.84067	399
3.84433	399
3.84800	396
3.85167	394
3.85533	394
3.85900	393
3.86267	391
3.86633	390
3.87000	390
3.87367	390
3.87733	389
3.88100	387
3.88467	385
3.88833	385
3.89200	387
3.89567	388
3.89933	386
3.90300	382
3.90667	379
3.91033	378
3.91400	380
3.91767	380
3.92133	379
3.92500	377
3.92867	376
3.93233	375
3.93600	376
3.93967	377
3.94333	377
3.94700	377
3.95067	375
3.95433	375
3.95800	374
3.96167	370
3.96533	369
3.96900	370
3.97267	368
3.97633	366
3.98000	367
3.98367	368
3.98733	368
3.99100	369
3.99467	368
3.99833	363

[Status Trace (Column Oven Temperature)]
Interval(msec)	1000
# of Points	240
Start Time(min)	0.013
End Time(min)	3.996
Intensity Units	
Intensity Multiplier	1
R.Time (min)	Intensity
0.01290	35.10
0.02957	35.10
0.04623	35.08
0.06290	35.08
0.07957	35.07
0.09623	35.06
0.11290	35.05
0.12957	35.05
0.14623	35.05
0.16290	35.04
0.17957	35.04
0.19623	35.04
0.21290	35.03
0.22957	35.03
0.24623	35.03
0.26290	35.02
0.27957	35.02
0.29623	35.00
0.31290	35.00
0.32957	35.00
0.34623	35.00
0.36290	35.00
0.37957	34.99
0.39623	34.99
0.41290	35.00
0.42957	35.02
0.44623	35.03
0.46290	35.04
0.47957	35.05
0.49623	35.07
0.51290	35.07
0.52957	35.07
0.54623	35.07
0.56290	35.06
0.57957	35.03
0.59623	35.02
0.61290	35.01
0.62957	35.00
0.64623	34.99
0.66290	34.98
0.67957	34.98
0.69623	34.97
0.71290	34.96
0.72957	34.97
0.74623	34.96
0.76290	34.97
0.77957	34.97
0.79623	34.98
0.81290	34.98
0.82957	34.98
0.84623	34.97
0.86290	34.97
0.87957	34.97
0.89623	34.97
0.91290	34.97
0.92957	34.98
0.94623	34.98
0.96290	34.98
0.97957	34.98
0.99623	34.98
1.01290	34.98
1.02957	34.98
1.04623	34.98
1.06290	34.97
1.07957	34.98
1.09623	34.99
1.11290	35.00
1.12957	35.00
1.14623	35.01
1.16290	35.01
1.17957	35.02
1.19623	35.02
1.21290	35.01
1.22957	35.01
1.24623	35.00
1.26290	34.99
1.27957	34.99
1.29623	34.99
1.31290	34.98
1.32957	34.99
1.34623	34.99
1.36290	34.99
1.37957	34.98
1.39623	34.98
1.41290	34.99
1.42957	34.99
1.44623	35.00
1.46290	35.01
1.47957	35.00
1.49623	35.00
1.51290	34.99
1.52957	34.99
1.54623	34.99
1.56290	34.99
1.57957	34.99
1.59623	35.00
1.61290	35.08
1.62957	35.21
1.64623	35.42
1.66290	35.70
1.67957	36.06
1.69623	36.43
1.71290	36.77
1.72957	37.10
1.74623	37.44
1.76290	37.76
1.77957	38.09
1.79623	38.43
1.81290	38.77
1.82957	39.09
1.84623	39.41
1.86290	39.75
1.87957	40.07
1.89623	40.41
1.91290	40.75
1.92957	41.08
1.94623	41.40
1.96290	41.72
1.97957	42.05
1.99623	42.37
2.01290	42.70
2.02957	43.02
2.04623	43.35
2.06290	43.68
2.07957	44.01
2.09623	44.34
2.11290	44.66
2.12957	45.00
2.14623	45.30
2.16290	45.64
2.17957	45.97
2.19623	46.28
2.21290	46.61
2.22957	46.95
2.24623	47.25
2.26290	47.60
2.27957	47.93
2.29623	48.27
2.31290	48.60
2.32957	48.92
2.34623	49.23
2.36290	49.49
2.37957	49.65
2.39623	49.68
2.41290	49.65
2.42957	49.65
2.44623	49.68
2.46290	49.68
2.47957	49.69
2.49623	49.70
2.51290	49.71
2.52957	49.73
2.54623	49.76
2.56290	49.77
2.57957	49.78
2.59623	49.79
2.61290	49.79
2.62957	49.81
2.64623	49.82
2.66290	49.83
2.67957	49.83
2.69623	49.85
2.71290	49.85
2.72957	49.85
2.74623	49.85
2.76290	49.85
2.77957	49.86
2.79623	49.86
2.81290	49.85
2.82957	49.84
2.84623	49.87
2.86290	49.90
2.87957	49.91
2.89623	49.91
2.91290	49.91
2.92957	49.91
2.94623	49.91
2.96290	49.91
2.97957	49.91
2.99623	49.92
3.01290	49.94
3.02957	49.95
3.04623	49.97
3.06290	49.97
3.07957	49.99
3.09623	50.00
3.11290	50.01
3.12957	50.02
3.14623	50.03
3.16290	50.03
3.17957	50.03
3.19623	50.04
3.21290	50.06
3.22957	50.05
3.24623	50.06
3.26290	50.06
3.27957	50.06
3.29623	50.07
3.31290	50.08
3.32957	50.08
3.34623	50.09
3.36290	50.10
3.37957	50.12
3.39623	50.11
3.41290	50.11
3.42957	50.09
3.44623	50.08
3.46290	50.06
3.47957	50.05
3.49623	50.05
3.51290	50.04
3.52957	50.04
3.54623	50.04
3.56290	50.03
3.57957	50.04
3.59623	50.05
3.61290	50.05
3.62957	50.05
3.64623	50.05
3.66290	50.06
3.67957	50.07
3.69623	50.07
3.71290	50.09
3.72957	50.09
3.74623	50.09
3.76290	50.08
3.77957	50.07
3.79623	50.06
3.81290	50.05
3.82957	50.05
3.84623	50.05
3.86290	50.06
3.87957	50.05
3.89623	50.06
3.91290	50.06
3.92957	50.06
3.94623	50.06
3.96290	50.06
3.97957	50.07
3.99623	50.06

[Status Trace (Injection Unit Temperature)]
Interval(msec)	1000
# of Points	240
Start Time(min)	0.013
End Time(min)	3.996
Intensity Units	
Intensity Multiplier	1
R.Time (min)	Intensity
0.01290	99.98
0.02957	99.98
0.04623	99.98
0.06290	99.98
0.07957	99.98
0.09623	99.98
0.11290	99.98
0.12957	99.98
0.14623	99.98
0.16290	99.99
0.17957	99.98
0.19623	99.98
0.21290	99.98
0.22957	99.99
0.24623	99.99
0.26290	99.98
0.27957	99.98
0.29623	99.98
0.31290	99.99
0.32957	99.98
0.34623	99.99
0.36290	99.99
0.37957	99.99
0.39623	99.99
0.41290	99.98
0.42957	99.99
0.44623	99.99
0.46290	99.99
0.47957	99.99
0.49623	99.98
0.51290	99.99
0.52957	99.98
0.54623	99.99
0.56290	99.99
0.57957	99.98
0.59623	99.99
0.61290	99.99
0.62957	99.99
0.64623	99.98
0.66290	99.99
0.67957	99.98
0.69623	99.98
0.71290	99.98
0.72957	99.99
0.74623	99.99
0.76290	99.98
0.77957	99.99
0.79623	99.99
0.81290	99.98
0.82957	99.99
0.84623	99.98
0.86290	99.99
0.87957	99.98
0.89623	99.98
0.91290	99.99
0.92957	99.98
0.94623	99.98
0.96290	99.98
0.97957	99.98
0.99623	99.98
1.01290	99.98
1.02957	99.98
1.04623	99.98
1.06290	99.98
1.07957	99.98
1.09623	99.98
1.11290	99.98
1.12957	99.98
1.14623	99.98
1.16290	99.98
1.17957	99.98
1.19623	99.98
1.21290	99.98
1.22957	99.99
1.24623	99.99
1.26290	99.98
1.27957	99.98
1.29623	99.98
1.31290	99.98
1.32957	99.98
1.34623	99.99
1.36290	99.98
1.37957	99.99
1.39623	99.99
1.41290	99.98
1.42957	99.98
1.44623	99.99
1.46290	99.99
1.47957	99.98
1.49623	99.99
1.51290	99.99
1.52957	99.99
1.54623	99.99
1.56290	99.99
1.57957	99.99
1.59623	99.99
1.61290	99.99
1.62957	99.99
1.64623	99.99
1.66290	99.99
1.67957	99.99
1.69623	99.99
1.71290	99.99
1.72957	99.99
1.74623	99.99
1.76290	99.98
1.77957	99.98
1.79623	99.98
1.81290	99.99
1.82957	99.99
1.84623	99.98
1.86290	99.99
1.87957	99.98
1.89623	99.98
1.91290	99.98
1.92957	99.98
1.94623	99.98
1.96290	99.98
1.97957	99.98
1.99623	99.98
2.01290	99.98
2.02957	99.98
2.04623	99.98
2.06290	99.98
2.07957	99.98
2.09623	99.97
2.11290	99.97
2.12957	99.97
2.14623	99.97
2.16290	99.97
2.17957	99.96
2.19623	99.97
2.21290	99.97
2.22957	99.97
2.24623	99.97
2.26290	99.97
2.27957	99.97
2.29623	99.97
2.31290	99.97
2.32957	99.97
2.34623	99.97
2.36290	99.97
2.37957	99.97
2.39623	99.97
2.41290	99.97
2.42957	99.97
2.44623	99.97
2.46290	99.97
2.47957	99.97
2.49623	99.97
2.51290	99.97
2.52957	99.97
2.54623	99.98
2.56290	99.97
2.57957	99.98
2.59623	99.98
2.61290	99.98
2.62957	99.98
2.64623	99.98
2.66290	99.98
2.67957	99.98
2.69623	99.98
2.71290	99.98
2.72957	99.99
2.74623	99.99
2.76290	99.99
2.77957	99.99
2.79623	99.99
2.81290	100.00
2.82957	100.00
2.84623	100.00
2.86290	100.00
2.87957	100.00
2.89623	100.00
2.91290	100.00
2.92957	100.00
2.94623	100.01
2.96290	100.01
2.97957	100.01
2.99623	100.00
3.01290	100.01
3.02957	100.01
3.04623	100.01
3.06290	100.01
3.07957	100.02
3.09623	100.02
3.11290	100.02
3.12957	100.02
3.14623	100.02
3.16290	100.02
3.17957	100.02
3.19623	100.02
3.21290	100.02
3.22957	100.02
3.24623	100.03
3.26290	100.02
3.27957	100.03
3.29623	100.03
3.31290	100.03
3.32957	100.03
3.34623	100.03
3.36290	100.03
3.37957	100.03
3.39623	100.03
3.41290	100.03
3.42957	100.04
3.44623	100.02
3.46290	100.03
3.47957	100.03
3.49623	100.04
3.51290	100.03
3.52957	100.04
3.54623	100.04
3.56290	100.04
3.57957	100.04
3.59623	100.04
3.61290	100.04
3.62957	100.04
3.64623	100.05
3.66290	100.04
3.67957	100.04
3.69623	100.04
3.71290	100.05
3.72957	100.05
3.74623	100.05
3.76290	100.05
3.77957	100.04
3.79623	100.04
3.81290	100.05
3.82957	100.05
3.84623	100.05
3.86290	100.05
3.87957	100.05
3.89623	100.05
3.91290	100.05
3.92957	100.05
3.94623	100.05
3.96290	100.05
3.97957	100.05
3.99623	100.06

[Status Trace (Carrier Gas Pressure)]
Interval(msec)	1000
# of Points	240
Start Time(min)	0.013
End Time(min)	3.996
Intensity Units	
Intensity Multiplier	1
R.Time (min)	Intensity
0.01290	57.92
0.02957	54.96
0.04623	57.83
0.06290	59.82
0.07957	58.76
0.09623	57.98
0.11290	58.00
0.12957	58.01
0.14623	58.01
0.16290	58.00
0.17957	58.00
0.19623	58.00
0.21290	58.00
0.22957	58.00
0.24623	58.00
0.26290	58.00
0.27957	58.00
0.29623	58.00
0.31290	58.00
0.32957	58.00
0.34623	58.00
0.36290	58.00
0.37957	58.00
0.39623	58.00
0.41290	58.00
0.42957	58.00
0.44623	58.00
0.46290	58.00
0.47957	58.00
0.49623	58.00
0.51290	58.00
0.52957	58.00
0.54623	58.00
0.56290	58.00
0.57957	58.00
0.59623	58.00
0.61290	58.00
0.62957	58.00
0.64623	58.00
0.66290	58.00
0.67957	58.00
0.69623	58.00
0.71290	58.00
0.72957	58.00
0.74623	58.00
0.76290	58.00
0.77957	58.00
0.79623	58.00
0.81290	58.00
0.82957	58.00
0.84623	58.00
0.86290	58.00
0.87957	58.00
0.89623	58.00
0.91290	58.00
0.92957	58.00
0.94623	58.00
0.96290	58.00
0.97957	58.00
0.99623	58.00
1.01290	58.00
1.02957	58.00
1.04623	58.00
1.06290	58.00
1.07957	58.00
1.09623	58.00
1.11290	58.00
1.12957	58.00
1.14623	58.00
1.16290	58.00
1.17957	58.00
1.19623	58.00
1.21290	58.00
1.22957	58.00
1.24623	58.00
1.26290	58.00
1.27957	58.00
1.29623	58.00
1.31290	58.00
1.32957	58.00
1.34623	58.00
1.36290	58.00
1.37957	58.00
1.39623	58.00
1.41290	58.00
1.42957	58.00
1.44623	58.00
1.46290	58.00
1.47957	58.00
1.49623	58.00
1.51290	58.00
1.52957	58.00
1.54623	58.00
1.56290	58.00
1.57957	58.00
1.59623	58.00
1.61290	58.00
1.62957	58.00
1.64623	58.00
1.66290	58.01
1.67957	58.01
1.69623	58.00
1.71290	58.00
1.72957	58.00
1.74623	58.00
1.76290	58.00
1.77957	58.00
1.79623	58.00
1.81290	58.00
1.82957	58.00
1.84623	58.00
1.86290	58.00
1.87957	58.00
1.89623	58.00
1.91290	58.00
1.92957	58.00
1.94623	58.00
1.96290	58.00
1.97957	58.00
1.99623	58.00
2.01290	58.00
2.02957	58.00
2.04623	58.00
2.06290	58.00
2.07957	58.00
2.09623	58.00
2.11290	58.00
2.12957	58.00
2.14623	58.00
2.16290	58.00
2.17957	58.00
2.19623	58.00
2.21290	58.00
2.22957	58.00
2.24623	58.00
2.26290	58.00
2.27957	58.00
2.29623	58.00
2.31290	58.00
2.32957	58.00
2.34623	58.00
2.36290	58.00
2.37957	58.00
2.39623	57.99
2.41290	57.99
2.42957	58.00
2.44623	58.00
2.46290	58.00
2.47957	58.00
2.49623	58.00
2.51290	57.99
2.52957	57.99
2.54623	58.00
2.56290	58.00
2.57957	58.00
2.59623	58.00
2.61290	58.00
2.62957	58.00
2.64623	58.00
2.66290	58.00
2.67957	58.00
2.69623	58.00
2.71290	58.00
2.72957	58.00
2.74623	58.00
2.76290	58.00
2.77957	58.00
2.79623	58.00
2.81290	58.00
2.82957	58.00
2.84623	58.00
2.86290	58.00
2.87957	58.00
2.89623	58.00
2.91290	58.00
2.92957	58.00
2.94623	58.00
2.96290	58.00
2.97957	58.00
2.99623	58.00
3.01290	58.00
3.02957	58.00
3.04623	58.00
3.06290	58.00
3.07957	58.00
3.09623	58.00
3.11290	58.00
3.12957	58.00
3.14623	58.00
3.16290	58.00
3.17957	58.00
3.19623	58.00
3.21290	58.00
3.22957	58.00
3.24623	58.00
3.26290	58.00
3.27957	58.00
3.29623	58.00
3.31290	58.00
3.32957	58.00
3.34623	58.00
3.36290	58.00
3.37957	58.00
3.39623	58.00
3.41290	58.00
3.42957	58.00
3.44623	58.00
3.46290	58.00
3.47957	58.00
3.49623	58.00
3.51290	58.00
3.52957	58.00
3.54623	58.00
3.56290	58.00
3.57957	58.00
3.59623	58.00
3.61290	58.00
3.62957	58.00
3.64623	58.00
3.66290	58.00
3.67957	58.00
3.69623	58.00
3.71290	58.00
3.72957	58.00
3.74623	58.00
3.76290	58.00
3.77957	58.00
3.79623	58.00
3.81290	58.00
3.82957	58.00
3.84623	58.00
3.86290	58.00
3.87957	58.00
3.89623	58.00
3.91290	58.00
3.92957	58.00
3.94623	58.00
3.96290	58.00
3.97957	58.00
3.99623	58.00

[Status Trace (Carrier Gas Flow)]
Interval(msec)	1000
# of Points	240
Start Time(min)	0.013
End Time(min)	3.996
Intensity Units	
Intensity Multiplier	1
R.Time (min)	Intensity
0.01290	34.67
0.02957	34.54
0.04623	34.54
0.06290	34.51
0.07957	34.51
0.09623	34.52
0.11290	34.52
0.12957	34.52
0.14623	34.52
0.16290	34.52
0.17957	34.52
0.19623	34.52
0.21290	34.52
0.22957	34.52
0.24623	34.52
0.26290	34.52
0.27957	34.52
0.29623	34.52
0.31290	34.52
0.32957	34.52
0.34623	34.52
0.36290	34.53
0.37957	34.51
0.39623	34.52
0.41290	34.52
0.42957	34.52
0.44623	34.52
0.46290	34.52
0.47957	34.52
0.49623	34.51
0.51290	34.52
0.52957	34.52
0.54623	34.52
0.56290	34.51
0.57957	34.52
0.59623	34.52
0.61290	34.51
0.62957	34.52
0.64623	34.52
0.66290	34.52
0.67957	34.52
0.69623	34.52
0.71290	34.52
0.72957	34.52
0.74623	34.52
0.76290	34.52
0.77957	34.52
0.79623	34.52
0.81290	34.52
0.82957	34.51
0.84623	34.51
0.86290	34.52
0.87957	34.52
0.89623	34.52
0.91290	34.52
0.92957	34.52
0.94623	34.52
0.96290	34.52
0.97957	34.51
0.99623	34.52
1.01290	34.52
1.02957	34.52
1.04623	34.52
1.06290	34.52
1.07957	34.52
1.09623	34.52
1.11290	34.52
1.12957	34.52
1.14623	34.51
1.16290	34.52
1.17957	34.52
1.19623	34.52
1.21290	34.52
1.22957	34.52
1.24623	34.52
1.26290	34.52
1.27957	34.52
1.29623	34.52
1.31290	34.52
1.32957	34.52
1.34623	34.52
1.36290	34.52
1.37957	34.52
1.39623	34.52
1.41290	34.52
1.42957	34.52
1.44623	34.52
1.46290	34.52
1.47957	34.52
1.49623	34.52
1.51290	34.52
1.52957	34.52
1.54623	34.51
1.56290	34.52
1.57957	34.52
1.59623	34.52
1.61290	34.52
1.62957	34.52
1.64623	34.52
1.66290	34.52
1.67957	34.52
1.69623	34.52
1.71290	34.52
1.72957	34.52
1.74623	34.52
1.76290	34.52
1.77957	34.52
1.79623	34.52
1.81290	34.52
1.82957	34.52
1.84623	34.52
1.86290	34.52
1.87957	34.52
1.89623	34.52
1.91290	34.52
1.92957	34.52
1.94623	34.52
1.96290	34.52
1.97957	34.52
1.99623	34.51
2.01290	34.52
2.02957	34.52
2.04623	34.52
2.06290	34.53
2.07957	34.52
2.09623	34.52
2.11290	34.52
2.12957	34.52
2.14623	34.52
2.16290	34.52
2.17957	34.53
2.19623	34.52
2.21290	34.52
2.22957	34.51
2.24623	34.52
2.26290	34.52
2.27957	34.52
2.29623	34.52
2.31290	34.52
2.32957	34.53
2.34623	34.53
2.36290	34.52
2.37957	34.52
2.39623	34.52
2.41290	34.52
2.42957	34.52
2.44623	34.52
2.46290	34.52
2.47957	34.51
2.49623	34.52
2.51290	34.52
2.52957	34.52
2.54623	34.52
2.56290	34.52
2.57957	34.52
2.59623	34.52
2.61290	34.52
2.62957	34.52
2.64623	34.52
2.66290	34.52
2.67957	34.52
2.69623	34.52
2.71290	34.52
2.72957	34.52
2.74623	34.52
2.76290	34.52
2.77957	34.52
2.79623	34.52
2.81290	34.52
2.82957	34.52
2.84623	34.52
2.86290	34.52
2.87957	34.52
2.89623	34.52
2.91290	34.52
2.92957	34.52
2.94623	34.52
2.96290	34.52
2.97957	34.52
2.99623	34.52
3.01290	34.52
3.02957	34.52
3.04623	34.52
3.06290	34.52
3.07957	34.51
3.09623	34.52
3.11290	34.52
3.12957	34.51
3.14623	34.52
3.16290	34.52
3.17957	34.52
3.19623	34.52
3.21290	34.52
3.22957	34.52
3.24623	34.52
3.26290	34.52
3.27957	34.52
3.29623	34.52
3.31290	34.52
3.32957	34.52
3.34623	34.52
3.36290	34.52
3.37957	34.51
3.39623	34.52
3.41290	34.52
3.42957	34.52
3.44623	34.52
3.46290	34.52
3.47957	34.52
3.49623	34.52
3.51290	34.52
3.52957	34.52
3.54623	34.52
3.56290	34.52
3.57957	34.52
3.59623	34.52
3.61290	34.52
3.62957	34.52
3.64623	34.52
3.66290	34.52
3.67957	34.52
3.69623	34.52
3.71290	34.52
3.72957	34.52
3.74623	34.52
3.76290	34.51
3.77957	34.52
3.79623	34.52
3.81290	34.52
3.82957	34.52
3.84623	34.52
3.86290	34.52
3.87957	34.52
3.89623	34.52
3.91290	34.52
3.92957	34.52
3.94623	34.52
3.96290	34.52
3.97957	34.52
3.99623	34.52

[Status Trace (Column Flow)]
Interval(msec)	1000
# of Points	240
Start Time(min)	0.013
End Time(min)	3.996
Intensity Units	
Intensity Multiplier	1
R.Time (min)	Intensity
0.01290	5.52
0.02957	5.18
0.04623	5.51
0.06290	5.74
0.07957	5.62
0.09623	5.53
0.11290	5.53
0.12957	5.53
0.14623	5.53
0.16290	5.53
0.17957	5.53
0.19623	5.53
0.21290	5.53
0.22957	5.53
0.24623	5.53
0.26290	5.53
0.27957	5.53
0.29623	5.53
0.31290	5.53
0.32957	5.53
0.34623	5.53
0.36290	5.53
0.37957	5.53
0.39623	5.53
0.41290	5.53
0.42957	5.53
0.44623	5.53
0.46290	5.53
0.47957	5.53
0.49623	5.53
0.51290	5.53
0.52957	5.53
0.54623	5.53
0.56290	5.53
0.57957	5.53
0.59623	5.53
0.61290	5.53
0.62957	5.53
0.64623	5.53
0.66290	5.53
0.67957	5.53
0.69623	5.53
0.71290	5.54
0.72957	5.53
0.74623	5.53
0.76290	5.53
0.77957	5.53
0.79623	5.53
0.81290	5.53
0.82957	5.53
0.84623	5.53
0.86290	5.53
0.87957	5.53
0.89623	5.53
0.91290	5.53
0.92957	5.53
0.94623	5.53
0.96290	5.53
0.97957	5.53
0.99623	5.53
1.01290	5.53
1.02957	5.53
1.04623	5.53
1.06290	5.53
1.07957	5.53
1.09623	5.53
1.11290	5.53
1.12957	5.53
1.14623	5.53
1.16290	5.53
1.17957	5.53
1.19623	5.53
1.21290	5.53
1.22957	5.53
1.24623	5.53
1.26290	5.53
1.27957	5.53
1.29623	5.53
1.31290	5.53
1.32957	5.53
1.34623	5.53
1.36290	5.53
1.37957	5.53
1.39623	5.53
1.41290	5.53
1.42957	5.53
1.44623	5.53
1.46290	5.53
1.47957	5.53
1.49623	5.53
1.51290	5.53
1.52957	5.53
1.54623	5.53
1.56290	5.53
1.57957	5.53
1.59623	5.53
1.61290	5.53
1.62957	5.53
1.64623	5.52
1.66290	5.51
1.67957	5.50
1.69623	5.49
1.71290	5.48
1.72957	5.47
1.74623	5.46
1.76290	5.45
1.77957	5.44
1.79623	5.43
1.81290	5.42
1.82957	5.41
1.84623	5.40
1.86290	5.39
1.87957	5.38
1.89623	5.37
1.91290	5.36
1.92957	5.35
1.94623	5.34
1.96290	5.33
1.97957	5.32
1.99623	5.31
2.01290	5.30
2.02957	5.29
2.04623	5.28
2.06290	5.27
2.07957	5.26
2.09623	5.25
2.11290	5.24
2.12957	5.23
2.14623	5.22
2.16290	5.21
2.17957	5.20
2.19623	5.19
2.21290	5.19
2.22957	5.18
2.24623	5.17
2.26290	5.16
2.27957	5.15
2.29623	5.14
2.31290	5.13
2.32957	5.12
2.34623	5.11
2.36290	5.10
2.37957	5.10
2.39623	5.10
2.41290	5.10
2.42957	5.10
2.44623	5.10
2.46290	5.10
2.47957	5.10
2.49623	5.10
2.51290	5.10
2.52957	5.10
2.54623	5.10
2.56290	5.10
2.57957	5.10
2.59623	5.10
2.61290	5.10
2.62957	5.10
2.64623	5.09
2.66290	5.09
2.67957	5.09
2.69623	5.09
2.71290	5.09
2.72957	5.09
2.74623	5.09
2.76290	5.09
2.77957	5.09
2.79623	5.09
2.81290	5.09
2.82957	5.09
2.84623	5.09
2.86290	5.09
2.87957	5.09
2.89623	5.09
2.91290	5.09
2.92957	5.09
2.94623	5.09
2.96290	5.09
2.97957	5.09
2.99623	5.09
3.01290	5.09
3.02957	5.09
3.04623	5.09
3.06290	5.09
3.07957	5.09
3.09623	5.09
3.11290	5.09
3.12957	5.09
3.14623	5.09
3.16290	5.09
3.17957	5.09
3.19623	5.09
3.21290	5.09
3.22957	5.09
3.24623	5.09
3.26290	5.09
3.27957	5.09
3.29623	5.09
3.31290	5.09
3.32957	5.09
3.34623	5.09
3.36290	5.09
3.37957	5.09
3.39623	5.09
3.41290	5.09
3.42957	5.09
3.44623	5.09
3.46290	5.09
3.47957	5.09
3.49623	5.09
3.51290	5.09
3.52957	5.09
3.54623	5.09
3.56290	5.09
3.57957	5.09
3.59623	5.09
3.61290	5.09
3.62957	5.09
3.64623	5.09
3.66290	5.09
3.67957	5.09
3.69623	5.09
3.71290	5.09
3.72957	5.09
3.74623	5.09
3.76290	5.09
3.77957	5.09
3.79623	5.09
3.81290	5.09
3.82957	5.09
3.84623	5.09
3.86290	5.09
3.87957	5.09
3.89623	5.09
3.91290	5.09
3.92957	5.09
3.94623	5.09
3.96290	5.09
3.97957	5.09
3.99623	5.09

[Status Trace (Linear Velocity)]
Interval(msec)	1000
# of Points	240
Start Time(min)	0.013
End Time(min)	3.996
Intensity Units	
Intensity Multiplier	1
R.Time (min)	Intensity
0.01290	38.96
0.02957	37.02
0.04623	38.90
0.06290	40.20
0.07957	39.51
0.09623	39.00
0.11290	39.01
0.12957	39.02
0.14623	39.02
0.16290	39.02
0.17957	39.02
0.19623	39.02
0.21290	39.02
0.22957	39.02
0.24623	39.02
0.26290	39.02
0.27957	39.02
0.29623	39.02
0.31290	39.02
0.32957	39.02
0.34623	39.02
0.36290	39.02
0.37957	39.02
0.39623	39.02
0.41290	39.02
0.42957	39.02
0.44623	39.02
0.46290	39.02
0.47957	39.01
0.49623	39.01
0.51290	39.01
0.52957	39.01
0.54623	39.01
0.56290	39.01
0.57957	39.02
0.59623	39.02
0.61290	39.02
0.62957	39.02
0.64623	39.02
0.66290	39.02
0.67957	39.02
0.69623	39.02
0.71290	39.02
0.72957	39.02
0.74623	39.02
0.76290	39.02
0.77957	39.02
0.79623	39.02
0.81290	39.02
0.82957	39.02
0.84623	39.02
0.86290	39.02
0.87957	39.02
0.89623	39.02
0.91290	39.02
0.92957	39.02
0.94623	39.02
0.96290	39.02
0.97957	39.02
0.99623	39.02
1.01290	39.02
1.02957	39.02
1.04623	39.02
1.06290	39.02
1.07957	39.02
1.09623	39.02
1.11290	39.02
1.12957	39.02
1.14623	39.02
1.16290	39.02
1.17957	39.02
1.19623	39.02
1.21290	39.02
1.22957	39.02
1.24623	39.02
1.26290	39.02
1.27957	39.02
1.29623	39.02
1.31290	39.02
1.32957	39.02
1.34623	39.02
1.36290	39.02
1.37957	39.02
1.39623	39.02
1.41290	39.02
1.42957	39.02
1.44623	39.02
1.46290	39.02
1.47957	39.02
1.49623	39.02
1.51290	39.02
1.52957	39.02
1.54623	39.02
1.56290	39.02
1.57957	39.02
1.59623	39.02
1.61290	39.01
1.62957	39.00
1.64623	38.98
1.66290	38.96
1.67957	38.92
1.69623	38.88
1.71290	38.85
1.72957	38.82
1.74623	38.79
1.76290	38.76
1.77957	38.73
1.79623	38.69
1.81290	38.66
1.82957	38.63
1.84623	38.60
1.86290	38.57
1.87957	38.54
1.89623	38.51
1.91290	38.48
1.92957	38.44
1.94623	38.41
1.96290	38.38
1.97957	38.35
1.99623	38.32
2.01290	38.29
2.02957	38.26
2.04623	38.23
2.06290	38.20
2.07957	38.17
2.09623	38.14
2.11290	38.11
2.12957	38.08
2.14623	38.06
2.16290	38.03
2.17957	38.00
2.19623	37.97
2.21290	37.94
2.22957	37.91
2.24623	37.88
2.26290	37.85
2.27957	37.82
2.29623	37.79
2.31290	37.76
2.32957	37.73
2.34623	37.70
2.36290	37.68
2.37957	37.66
2.39623	37.66
2.41290	37.66
2.42957	37.67
2.44623	37.66
2.46290	37.66
2.47957	37.66
2.49623	37.66
2.51290	37.66
2.52957	37.65
2.54623	37.66
2.56290	37.66
2.57957	37.65
2.59623	37.65
2.61290	37.65
2.62957	37.65
2.64623	37.65
2.66290	37.65
2.67957	37.65
2.69623	37.65
2.71290	37.65
2.72957	37.65
2.74623	37.65
2.76290	37.65
2.77957	37.65
2.79623	37.65
2.81290	37.65
2.82957	37.65
2.84623	37.65
2.86290	37.64
2.87957	37.64
2.89623	37.64
2.91290	37.64
2.92957	37.64
2.94623	37.64
2.96290	37.64
2.97957	37.64
2.99623	37.64
3.01290	37.64
3.02957	37.64
3.04623	37.64
3.06290	37.64
3.07957	37.64
3.09623	37.64
3.11290	37.63
3.12957	37.63
3.14623	37.63
3.16290	37.63
3.17957	37.63
3.19623	37.63
3.21290	37.63
3.22957	37.63
3.24623	37.63
3.26290	37.63
3.27957	37.63
3.29623	37.63
3.31290	37.63
3.32957	37.63
3.34623	37.63
3.36290	37.63
3.37957	37.63
3.39623	37.63
3.41290	37.63
3.42957	37.63
3.44623	37.63
3.46290	37.63
3.47957	37.63
3.49623	37.63
3.51290	37.63
3.52957	37.63
3.54623	37.63
3.56290	37.63
3.57957	37.63
3.59623	37.63
3.61290	37.63
3.62957	37.63
3.64623	37.63
3.66290	37.63
3.67957	37.63
3.69623	37.63
3.71290	37.63
3.72957	37.63
3.74623	37.63
3.76290	37.63
3.77957	37.63
3.79623	37.63
3.81290	37.63
3.82957	37.63
3.84623	37.63
3.86290	37.63
3.87957	37.63
3.89623	37.63
3.91290	37.63
3.92957	37.63
3.94623	37.63
3.96290	37.63
3.97957	37.63
3.99623	37.63

