[Header]
Application Name	LabSolutions
Version	5.110
Data File Name	C:\Users\User\Desktop\Junior\UIC Prairie Sampling\5.18.23\05182023_078.gcd
Output Date	6/5/2023
Output Time	2:17:30 PM

[File Information]
Type	Data File
Generated	5/24/2023 9:08:45 PM
Generated by	System Administrator
Modified	5/24/2023 9:16:15 PM
Modified by	System Administrator

[Sample Information]
Operator Name	System Administrator
Acquired	5/24/2023 9:12:14 PM
Sample Type	0:Unknown
Level	0
Sample Name	078
Sample ID	078
ISTD Amount1	1
ISTD Amount2	1
ISTD Amount3	1
ISTD Amount4	1
ISTD Amount5	1
ISTD Amount6	1
ISTD Amount7	1
ISTD Amount8	1
ISTD Amount9	1
ISTD Amount10	1
ISTD Amount11	1
ISTD Amount12	1
ISTD Amount13	1
ISTD Amount14	1
ISTD Amount15	1
ISTD Amount16	1
ISTD Amount17	1
ISTD Amount18	1
ISTD Amount19	1
ISTD Amount20	1
ISTD Amount21	1
ISTD Amount22	1
ISTD Amount23	1
ISTD Amount24	1
ISTD Amount25	1
ISTD Amount26	1
ISTD Amount27	1
ISTD Amount28	1
ISTD Amount29	1
ISTD Amount30	1
ISTD Amount31	1
ISTD Amount32	1
Sample Amount	1
Dilution Factor	1
Vial#	77
Injection Volume	1
Injection Count	1
Bar Code	

[Original Files]
Data File	C:\Users\User\Desktop\Junior\UIC Prairie Sampling\5.18.23\05182023_078.gcd
Method File	C:\LabSolutions\Data\GHG_4min_2022\ghg3_togas_w_acet_4 min_new_int.gcm
Batch File	C:\LabSolutions\Data\AutoSamplerTesting\05182023.gcb
Report Format File	c:\LabSolutions\System\DEFAULT.lsr

[File Description]


[Configuration]
Instrument Name	C0B7VH3-Instrument1
Instrument #	1
Line #	1
# of Detectors	3
Detector ID	DET#1	DET#2	DET#3
Detector Name	FID	PTCD	ECD
# of Channels	1	1	1

[Peak Table(Ch1)]
# of Peaks	3
Peak#	R.Time	I.Time	F.Time	Area	Height	A/H	Conc.	Mark	ID#	Name	k'	Plate #	Plate Ht.	Tailing	Resolution	Sep.Factor	Area Ratio	Height Ratio	Conc. %	Norm Conc.
1	1.483	1.465	1.512	325	223	1.456	0.000	   	1	CO	0.000	19345	7.754	1.266	0.000	0.000	0	0	0.000	0.000
2	1.564	1.527	1.626	17337	8815	1.967	84.522	   	2	CH4	0.054	11451	13.099	1.158	1.596	0.000	0	0	18.862	18.862
3	1.989	1.945	2.480	1886624	898566	2.100	363.587	   	3	CO2	0.341	17322	8.660	1.321	7.154	6.273	0	0	81.138	81.138

[Peak Table(Ch2)]
# of Peaks	0

[Peak Table(Ch3)]
# of Peaks	4
Peak#	R.Time	I.Time	F.Time	Area	Height	A/H	Conc.	Mark	ID#	Name	k'	Plate #	Plate Ht.	Tailing	Resolution	Sep.Factor	Area Ratio	Height Ratio	Conc. %	Norm Conc.
1	2.502	2.440	2.532	2477	571	4.337	0.000	   			0.000	1064	141.003	0.000	0.000	0.000	0	0	0.000	0.000
2	2.568	2.532	2.675	3767	547	6.893	0.000	 V 			0.026	259	578.478	0.000	0.140	0.000	0	0	0.000	0.000
3	2.719	2.675	2.796	2265	345	6.558	0.000	 V 			0.086	127	1184.318	0.000	0.187	3.278	0	0	0.000	0.000
4	2.891	2.796	3.254	52784	13023	4.053	0.781	 V 	1	N2O	0.155	12613	11.892	1.569	0.322	1.797	0	0	100.000	100.000

[Compound Results(Ch1)]
# of IDs	6
ID#	Name	R.Time	Area	Height	Conc.	Curve	3rd	2nd	1st	Constant	Area Ratio	Height Ratio	Conc. %	Norm Conc.
1	CO	1.483	325	223	0.000	Linear	0.000000e+00	0.000000e+00	0.000000e+00	0.000000e+00	0	0	0.000	0.000
2	CH4	1.564	17337	8815	84.522	Linear	0.000000e+00	0.000000e+00	2.051179e+002	0.000000e+00	0	0	18.862	18.862
3	CO2	1.989	1886624	898566	363.587	Linear	0.000000e+00	0.000000e+00	5.188919e+003	0.000000e+00	0	0	81.138	81.138
4	Ethylene	0.000	0	0	0.000	Linear	0.000000e+00	0.000000e+00	0.000000e+00	0.000000e+00	0	0	0.000	0.000
5	Acetylene	0.000	0	0	0.000	Linear	0.000000e+00	0.000000e+00	0.000000e+00	0.000000e+00	0	0	0.000	0.000
6	Ethane	0.000	0	0	0.000	Linear	0.000000e+00	0.000000e+00	0.000000e+00	0.000000e+00	0	0	0.000	0.000

[Compound Results(Ch2)]
# of IDs	5
ID#	Name	R.Time	Area	Height	Conc.	Curve	3rd	2nd	1st	Constant	Area Ratio	Height Ratio	Conc. %	Norm Conc.
1	Hydrogen	0.000	0	0	0.000	Linear	0.000000e+00	0.000000e+00	0.000000e+00	0.000000e+00	0	0	0.000	0.000
2	Oxygen	0.000	0	0	0.000	Linear	0.000000e+00	0.000000e+00	0.000000e+00	0.000000e+00	0	0	0.000	0.000
3	Nitrogen	0.000	0	0	0.000	Linear	0.000000e+00	0.000000e+00	0.000000e+00	0.000000e+00	0	0	0.000	0.000
4	Methane	0.000	0	0	0.000	Linear	0.000000e+00	0.000000e+00	0.000000e+00	0.000000e+00	0	0	0.000	0.000
5	Carbon Monoxide	0.000	0	0	0.000	Linear	0.000000e+00	0.000000e+00	0.000000e+00	0.000000e+00	0	0	0.000	0.000

[Compound Results(Ch3)]
# of IDs	2
ID#	Name	R.Time	Area	Height	Conc.	Curve	3rd	2nd	1st	Constant	Area Ratio	Height Ratio	Conc. %	Norm Conc.
1	N2O	2.891	52784	13023	0.781	Linear	0.000000e+00	0.000000e+00	6.759880e+004	0.000000e+00	0	0	100.000	100.000
2	SF6	0.000	0	0	0.000	Linear	0.000000e+00	0.000000e+00	0.000000e+00	0.000000e+00	0	0	0.000	0.000

[Group Results(Ch1)]
# of Groups	0

[Group Results(Ch2)]
# of Groups	0

[Group Results(Ch3)]
# of Groups	0

[Chromatogram (Ch1)]
Interval(msec)	220
# of Points	1091
Start Time(min)	0.002
End Time(min)	3.998
R.Time (min)	Intensity
0.00167	0
0.00533	-1
0.00900	-2
0.01267	-5
0.01633	-8
0.02000	-7
0.02367	-2
0.02733	3
0.03100	3
0.03467	7
0.03833	12
0.04200	16
0.04567	16
0.04933	14
0.05300	11
0.05667	8
0.06033	4
0.06400	2
0.06767	-2
0.07133	-5
0.07500	-5
0.07867	-5
0.08233	-5
0.08600	-6
0.08967	-6
0.09333	-2
0.09700	4
0.10067	8
0.10433	7
0.10800	3
0.11167	1
0.11533	1
0.11900	1
0.12267	-1
0.12633	1
0.13000	5
0.13367	9
0.13733	10
0.14100	10
0.14467	9
0.14833	10
0.15200	14
0.15567	17
0.15933	18
0.16300	18
0.16667	16
0.17033	11
0.17400	10
0.17767	9
0.18133	9
0.18500	11
0.18867	12
0.19233	12
0.19600	12
0.19967	10
0.20333	5
0.20700	-0
0.21067	-2
0.21433	-4
0.21800	-10
0.22167	-18
0.22533	-22
0.22900	-19
0.23267	-10
0.23633	1
0.24000	7
0.24367	10
0.24733	14
0.25100	15
0.25467	11
0.25833	7
0.26200	5
0.26567	4
0.26933	3
0.27300	6
0.27667	10
0.28033	8
0.28400	2
0.28767	-6
0.29133	-8
0.29500	-6
0.29867	-2
0.30233	-1
0.30600	-1
0.30967	-3
0.31333	-4
0.31700	-2
0.32067	3
0.32433	6
0.32800	2
0.33167	-8
0.33533	-20
0.33900	-28
0.34267	-31
0.34633	-29
0.35000	-27
0.35367	-24
0.35733	-18
0.36100	-9
0.36467	-1
0.36833	3
0.37200	-4
0.37567	-18
0.37933	-31
0.38300	-37
0.38667	-37
0.39033	-34
0.39400	-30
0.39767	-27
0.40133	-26
0.40500	-24
0.40867	-22
0.41233	-17
0.41600	-14
0.41967	-14
0.42333	-16
0.42700	-17
0.43067	-13
0.43433	-6
0.43800	2
0.44167	8
0.44533	7
0.44900	2
0.45267	-0
0.45633	3
0.46000	4
0.46367	2
0.46733	-3
0.47100	-11
0.47467	-15
0.47833	-11
0.48200	-2
0.48567	3
0.48933	3
0.49300	0
0.49667	-3
0.50033	-4
0.50400	-6
0.50767	-8
0.51133	-8
0.51500	-1
0.51867	9
0.52233	20
0.52600	26
0.52967	22
0.53333	12
0.53700	1
0.54067	-8
0.54433	-14
0.54800	-16
0.55167	-16
0.55533	-16
0.55900	-17
0.56267	-18
0.56633	-17
0.57000	-16
0.57367	-15
0.57733	-13
0.58100	-11
0.58467	-8
0.58833	-11
0.59200	-15
0.59567	-12
0.59933	-7
0.60300	-4
0.60667	-0
0.61033	5
0.61400	7
0.61767	6
0.62133	5
0.62500	2
0.62867	-6
0.63233	-14
0.63600	-20
0.63967	-21
0.64333	-21
0.64700	-21
0.65067	-20
0.65433	-15
0.65800	-11
0.66167	-9
0.66533	-10
0.66900	-8
0.67267	-2
0.67633	2
0.68000	5
0.68367	4
0.68733	-2
0.69100	-7
0.69467	-12
0.69833	-15
0.70200	-18
0.70567	-20
0.70933	-19
0.71300	-17
0.71667	-10
0.72033	0
0.72400	10
0.72767	14
0.73133	11
0.73500	4
0.73867	-1
0.74233	-5
0.74600	-9
0.74967	-13
0.75333	-16
0.75700	-17
0.76067	-16
0.76433	-11
0.76800	-5
0.77167	2
0.77533	8
0.77900	10
0.78267	7
0.78633	-2
0.79000	-15
0.79367	-25
0.79733	-31
0.80100	-31
0.80467	-30
0.80833	-29
0.81200	-29
0.81567	-30
0.81933	-29
0.82300	-31
0.82667	-32
0.83033	-30
0.83400	-23
0.83767	-8
0.84133	3
0.84500	5
0.84867	0
0.85233	-4
0.85600	-2
0.85967	3
0.86333	2
0.86700	-5
0.87067	-11
0.87433	-17
0.87800	-19
0.88167	-20
0.88533	-20
0.88900	-22
0.89267	-25
0.89633	-27
0.90000	-26
0.90367	-23
0.90733	-21
0.91100	-17
0.91467	-15
0.91833	-16
0.92200	-26
0.92567	-36
0.92933	-38
0.93300	-35
0.93667	-28
0.94033	-22
0.94400	-18
0.94767	-16
0.95133	-15
0.95500	-15
0.95867	-12
0.96233	-6
0.96600	-1
0.96967	0
0.97333	0
0.97700	-3
0.98067	-13
0.98433	-23
0.98800	-28
0.99167	-30
0.99533	-29
0.99900	-28
1.00267	-26
1.00633	-23
1.01000	-19
1.01367	-15
1.01733	-10
1.02100	-11
1.02467	-18
1.02833	-25
1.03200	-30
1.03567	-33
1.03933	-30
1.04300	-28
1.04667	-29
1.05033	-27
1.05400	-26
1.05767	-28
1.06133	-31
1.06500	-32
1.06867	-30
1.07233	-25
1.07600	-20
1.07967	-18
1.08333	-22
1.08700	-30
1.09067	-37
1.09433	-41
1.09800	-43
1.10167	-40
1.10533	-32
1.10900	-21
1.11267	-12
1.11633	-11
1.12000	-15
1.12367	-21
1.12733	-26
1.13100	-28
1.13467	-26
1.13833	-24
1.14200	-20
1.14567	-17
1.14933	-18
1.15300	-23
1.15667	-29
1.16033	-31
1.16400	-30
1.16767	-27
1.17133	-23
1.17500	-20
1.17867	-18
1.18233	-18
1.18600	-16
1.18967	-19
1.19333	-25
1.19700	-30
1.20067	-33
1.20433	-36
1.20800	-37
1.21167	-39
1.21533	-41
1.21900	-40
1.22267	-35
1.22633	-31
1.23000	-30
1.23367	-30
1.23733	-32
1.24100	-34
1.24467	-36
1.24833	-36
1.25200	-34
1.25567	-34
1.25933	-38
1.26300	-41
1.26667	-45
1.27033	-50
1.27400	-52
1.27767	-46
1.28133	-31
1.28500	-20
1.28867	-16
1.29233	-18
1.29600	-22
1.29967	-28
1.30333	-34
1.30700	-36
1.31067	-36
1.31433	-34
1.31800	-33
1.32167	-32
1.32533	-31
1.32900	-30
1.33267	-30
1.33633	-31
1.34000	-33
1.34367	-32
1.34733	-34
1.35100	-40
1.35467	-45
1.35833	-52
1.36200	-61
1.36567	-65
1.36933	-68
1.37300	-71
1.37667	-70
1.38033	-65
1.38400	-54
1.38767	-42
1.39133	-30
1.39500	-26
1.39867	-26
1.40233	-28
1.40600	-27
1.40967	-28
1.41333	-31
1.41700	-33
1.42067	-38
1.42433	-41
1.42800	-41
1.43167	-35
1.43533	-18
1.43900	11
1.44267	21
1.44633	-13
1.45000	-58
1.45367	-80
1.45733	-78
1.46100	-58
1.46467	-22
1.46833	31
1.47200	95
1.47567	155
1.47933	190
1.48300	191
1.48667	162
1.49033	120
1.49400	81
1.49767	49
1.50133	20
1.50500	-5
1.50867	-28
1.51233	-47
1.51600	-60
1.51967	-66
1.52333	-63
1.52700	-58
1.53067	-25
1.53433	135
1.53800	647
1.54167	1727
1.54533	3304
1.54900	5040
1.55267	6602
1.55633	7808
1.56000	8565
1.56367	8770
1.56733	8325
1.57100	7279
1.57467	5885
1.57833	4453
1.58200	3195
1.58567	2200
1.58933	1468
1.59300	956
1.59667	610
1.60033	381
1.60400	228
1.60767	127
1.61133	64
1.61500	24
1.61867	-0
1.62233	-15
1.62600	-24
1.62967	-28
1.63333	-32
1.63700	-36
1.64067	-40
1.64433	-44
1.64800	-45
1.65167	-44
1.65533	-47
1.65900	-58
1.66267	-71
1.66633	-81
1.67000	-83
1.67367	-79
1.67733	-73
1.68100	-65
1.68467	-64
1.68833	-69
1.69200	-74
1.69567	-75
1.69933	-71
1.70300	-67
1.70667	-68
1.71033	-73
1.71400	-75
1.71767	-74
1.72133	-73
1.72500	-72
1.72867	-72
1.73233	-75
1.73600	-76
1.73967	-74
1.74333	-74
1.74700	-74
1.75067	-72
1.75433	-66
1.75800	-58
1.76167	-53
1.76533	-51
1.76900	-49
1.77267	-47
1.77633	-43
1.78000	-41
1.78367	-45
1.78733	-56
1.79100	-67
1.79467	-75
1.79833	-76
1.80200	-76
1.80567	-76
1.80933	-74
1.81300	-71
1.81667	-66
1.82033	-59
1.82400	-56
1.82767	-56
1.83133	-56
1.83500	-57
1.83867	-56
1.84233	-51
1.84600	-45
1.84967	-44
1.85333	-47
1.85700	-50
1.86067	-51
1.86433	-52
1.86800	-49
1.87167	-46
1.87533	-46
1.87900	-47
1.88267	-48
1.88633	-50
1.89000	-51
1.89367	-52
1.89733	-53
1.90100	-57
1.90467	-62
1.90833	-65
1.91200	-67
1.91567	-67
1.91933	-63
1.92300	-58
1.92667	-55
1.93033	-51
1.93400	-47
1.93767	-45
1.94133	-44
1.94500	-34
1.94867	73
1.95233	766
1.95600	4128
1.95967	16337
1.96333	50020
1.96700	121698
1.97067	240843
1.97433	398976
1.97800	571140
1.98167	727195
1.98533	841870
1.98900	898565
1.99267	890837
1.99633	823176
2.00000	711479
2.00367	578535
2.00733	446292
2.01100	330059
2.01467	236725
2.01833	166514
2.02200	116065
2.02567	80921
2.02933	56915
2.03300	40688
2.03667	29750
2.04033	22345
2.04400	17278
2.04767	13756
2.05133	11261
2.05500	9452
2.05867	8102
2.06233	7067
2.06600	6252
2.06967	5597
2.07333	5062
2.07700	4617
2.08067	4242
2.08433	3923
2.08800	3643
2.09167	3396
2.09533	3175
2.09900	2980
2.10267	2807
2.10633	2649
2.11000	2504
2.11367	2370
2.11733	2251
2.12100	2143
2.12467	2043
2.12833	1949
2.13200	1863
2.13567	1788
2.13933	1719
2.14300	1655
2.14667	1596
2.15033	1539
2.15400	1486
2.15767	1438
2.16133	1391
2.16500	1346
2.16867	1304
2.17233	1259
2.17600	1213
2.17967	1171
2.18333	1135
2.18700	1101
2.19067	1069
2.19433	1041
2.19800	1017
2.20167	996
2.20533	977
2.20900	959
2.21267	938
2.21633	917
2.22000	897
2.22367	873
2.22733	847
2.23100	826
2.23467	808
2.23833	791
2.24200	773
2.24567	757
2.24933	743
2.25300	727
2.25667	711
2.26033	694
2.26400	673
2.26767	652
2.27133	636
2.27500	625
2.27867	618
2.28233	614
2.28600	610
2.28967	607
2.29333	602
2.29700	598
2.30067	593
2.30433	584
2.30800	571
2.31167	557
2.31533	546
2.31900	540
2.32267	531
2.32633	523
2.33000	519
2.33367	522
2.33733	528
2.34100	526
2.34467	516
2.34833	499
2.35200	476
2.35567	458
2.35933	447
2.36300	443
2.36667	443
2.37033	443
2.37400	442
2.37767	435
2.38133	424
2.38500	417
2.38867	411
2.39233	412
2.39600	417
2.39967	424
2.40333	428
2.40700	431
2.41067	433
2.41433	426
2.41800	416
2.42167	409
2.42533	402
2.42900	397
2.43267	394
2.43633	391
2.44000	386
2.44367	383
2.44733	383
2.45100	384
2.45467	389
2.45833	394
2.46200	396
2.46567	391
2.46933	383
2.47300	374
2.47667	366
2.48033	358
2.48400	352
2.48767	352
2.49133	357
2.49500	361
2.49867	363
2.50233	366
2.50600	370
2.50967	371
2.51333	366
2.51700	359
2.52067	357
2.52433	358
2.52800	361
2.53167	363
2.53533	363
2.53900	361
2.54267	356
2.54633	352
2.55000	353
2.55367	354
2.55733	351
2.56100	343
2.56467	334
2.56833	333
2.57200	335
2.57567	337
2.57933	332
2.58300	329
2.58667	328
2.59033	326
2.59400	325
2.59767	325
2.60133	328
2.60500	329
2.60867	327
2.61233	325
2.61600	329
2.61967	334
2.62333	339
2.62700	346
2.63067	349
2.63433	348
2.63800	343
2.64167	335
2.64533	328
2.64900	327
2.65267	330
2.65633	332
2.66000	332
2.66367	332
2.66733	332
2.67100	333
2.67467	336
2.67833	340
2.68200	343
2.68567	343
2.68933	344
2.69300	346
2.69667	349
2.70033	347
2.70400	345
2.70767	345
2.71133	352
2.71500	357
2.71867	358
2.72233	353
2.72600	344
2.72967	335
2.73333	328
2.73700	326
2.74067	335
2.74433	346
2.74800	354
2.75167	355
2.75533	353
2.75900	350
2.76267	349
2.76633	349
2.77000	348
2.77367	344
2.77733	340
2.78100	336
2.78467	330
2.78833	323
2.79200	321
2.79567	323
2.79933	324
2.80300	331
2.80667	340
2.81033	349
2.81400	355
2.81767	357
2.82133	357
2.82500	354
2.82867	350
2.83233	348
2.83600	345
2.83967	346
2.84333	349
2.84700	354
2.85067	357
2.85433	359
2.85800	358
2.86167	360
2.86533	363
2.86900	366
2.87267	371
2.87633	380
2.88000	389
2.88367	397
2.88733	399
2.89100	393
2.89467	380
2.89833	367
2.90200	359
2.90567	358
2.90933	357
2.91300	359
2.91667	358
2.92033	356
2.92400	353
2.92767	348
2.93133	343
2.93500	338
2.93867	331
2.94233	327
2.94600	333
2.94967	344
2.95333	358
2.95700	373
2.96067	383
2.96433	388
2.96800	392
2.97167	397
2.97533	402
2.97900	404
2.98267	399
2.98633	395
2.99000	389
2.99367	385
2.99733	386
3.00100	392
3.00467	399
3.00833	402
3.01200	401
3.01567	400
3.01933	398
3.02300	395
3.02667	390
3.03033	382
3.03400	377
3.03767	375
3.04133	377
3.04500	378
3.04867	379
3.05233	380
3.05600	385
3.05967	392
3.06333	401
3.06700	411
3.07067	418
3.07433	418
3.07800	416
3.08167	413
3.08533	408
3.08900	403
3.09267	400
3.09633	399
3.10000	398
3.10367	397
3.10733	397
3.11100	398
3.11467	400
3.11833	402
3.12200	403
3.12567	401
3.12933	396
3.13300	392
3.13667	390
3.14033	390
3.14400	391
3.14767	391
3.15133	389
3.15500	387
3.15867	386
3.16233	387
3.16600	388
3.16967	392
3.17333	400
3.17700	409
3.18067	415
3.18433	417
3.18800	413
3.19167	409
3.19533	406
3.19900	404
3.20267	404
3.20633	403
3.21000	404
3.21367	406
3.21733	405
3.22100	403
3.22467	401
3.22833	397
3.23200	394
3.23567	394
3.23933	397
3.24300	398
3.24667	398
3.25033	396
3.25400	391
3.25767	386
3.26133	386
3.26500	388
3.26867	392
3.27233	393
3.27600	391
3.27967	391
3.28333	398
3.28700	405
3.29067	403
3.29433	396
3.29800	389
3.30167	385
3.30533	385
3.30900	387
3.31267	390
3.31633	394
3.32000	401
3.32367	405
3.32733	406
3.33100	406
3.33467	408
3.33833	408
3.34200	403
3.34567	393
3.34933	386
3.35300	383
3.35667	385
3.36033	389
3.36400	390
3.36767	392
3.37133	394
3.37500	395
3.37867	396
3.38233	399
3.38600	408
3.38967	416
3.39333	417
3.39700	414
3.40067	406
3.40433	401
3.40800	399
3.41167	397
3.41533	394
3.41900	394
3.42267	400
3.42633	404
3.43000	403
3.43367	395
3.43733	386
3.44100	378
3.44467	373
3.44833	374
3.45200	376
3.45567	381
3.45933	388
3.46300	398
3.46667	404
3.47033	404
3.47400	395
3.47767	381
3.48133	370
3.48500	367
3.48867	366
3.49233	366
3.49600	367
3.49967	370
3.50333	374
3.50700	381
3.51067	388
3.51433	393
3.51800	393
3.52167	388
3.52533	388
3.52900	389
3.53267	387
3.53633	381
3.54000	373
3.54367	366
3.54733	361
3.55100	355
3.55467	354
3.55833	360
3.56200	367
3.56567	367
3.56933	365
3.57300	362
3.57667	360
3.58033	359
3.58400	359
3.58767	358
3.59133	357
3.59500	356
3.59867	358
3.60233	359
3.60600	362
3.60967	365
3.61333	363
3.61700	361
3.62067	358
3.62433	357
3.62800	357
3.63167	358
3.63533	360
3.63900	362
3.64267	362
3.64633	359
3.65000	355
3.65367	352
3.65733	352
3.66100	355
3.66467	360
3.66833	363
3.67200	363
3.67567	364
3.67933	367
3.68300	369
3.68667	367
3.69033	359
3.69400	351
3.69767	344
3.70133	336
3.70500	328
3.70867	325
3.71233	329
3.71600	339
3.71967	349
3.72333	357
3.72700	360
3.73067	360
3.73433	358
3.73800	357
3.74167	356
3.74533	353
3.74900	347
3.75267	344
3.75633	348
3.76000	353
3.76367	352
3.76733	348
3.77100	346
3.77467	345
3.77833	345
3.78200	347
3.78567	347
3.78933	345
3.79300	343
3.79667	342
3.80033	345
3.80400	348
3.80767	344
3.81133	338
3.81500	336
3.81867	336
3.82233	335
3.82600	334
3.82967	336
3.83333	339
3.83700	340
3.84067	342
3.84433	348
3.84800	349
3.85167	346
3.85533	342
3.85900	335
3.86267	330
3.86633	324
3.87000	324
3.87367	329
3.87733	337
3.88100	345
3.88467	349
3.88833	352
3.89200	354
3.89567	355
3.89933	354
3.90300	352
3.90667	350
3.91033	348
3.91400	345
3.91767	338
3.92133	329
3.92500	321
3.92867	316
3.93233	314
3.93600	313
3.93967	315
3.94333	320
3.94700	324
3.95067	325
3.95433	331
3.95800	341
3.96167	349
3.96533	354
3.96900	355
3.97267	351
3.97633	346
3.98000	341
3.98367	339
3.98733	337
3.99100	326
3.99467	312
3.99833	303

[Chromatogram (Ch2)]
Interval(msec)	220
# of Points	1091
Start Time(min)	0.002
End Time(min)	3.998
R.Time (min)	Intensity
0.00167	-0
0.00533	-0
0.00900	-0
0.01267	-0
0.01633	-1
0.02000	-0
0.02367	-0
0.02733	-0
0.03100	0
0.03467	0
0.03833	0
0.04200	0
0.04567	0
0.04933	0
0.05300	0
0.05667	-0
0.06033	-0
0.06400	-0
0.06767	0
0.07133	0
0.07500	1
0.07867	1
0.08233	1
0.08600	1
0.08967	2
0.09333	2
0.09700	2
0.10067	2
0.10433	2
0.10800	2
0.11167	2
0.11533	2
0.11900	1
0.12267	1
0.12633	1
0.13000	1
0.13367	1
0.13733	1
0.14100	1
0.14467	1
0.14833	1
0.15200	1
0.15567	1
0.15933	1
0.16300	1
0.16667	1
0.17033	1
0.17400	0
0.17767	0
0.18133	0
0.18500	0
0.18867	0
0.19233	0
0.19600	-0
0.19967	-1
0.20333	-1
0.20700	-1
0.21067	-1
0.21433	-1
0.21800	-1
0.22167	-1
0.22533	-1
0.22900	-1
0.23267	-1
0.23633	-1
0.24000	-1
0.24367	-1
0.24733	-1
0.25100	-1
0.25467	-2
0.25833	-2
0.26200	-2
0.26567	-2
0.26933	-2
0.27300	-1
0.27667	-1
0.28033	-1
0.28400	-1
0.28767	-1
0.29133	-1
0.29500	-1
0.29867	-1
0.30233	-1
0.30600	-1
0.30967	-1
0.31333	-1
0.31700	-1
0.32067	-1
0.32433	-1
0.32800	-1
0.33167	-1
0.33533	-1
0.33900	-2
0.34267	-2
0.34633	-2
0.35000	-2
0.35367	-2
0.35733	-2
0.36100	-2
0.36467	-2
0.36833	-2
0.37200	-2
0.37567	-1
0.37933	-1
0.38300	-1
0.38667	-0
0.39033	-0
0.39400	0
0.39767	0
0.40133	0
0.40500	0
0.40867	0
0.41233	0
0.41600	0
0.41967	0
0.42333	0
0.42700	-0
0.43067	-0
0.43433	-1
0.43800	-1
0.44167	-1
0.44533	-1
0.44900	-1
0.45267	-1
0.45633	-1
0.46000	-1
0.46367	-1
0.46733	-1
0.47100	-1
0.47467	-1
0.47833	-1
0.48200	-1
0.48567	-1
0.48933	-2
0.49300	-2
0.49667	-2
0.50033	-2
0.50400	-2
0.50767	-2
0.51133	-2
0.51500	-2
0.51867	-2
0.52233	-2
0.52600	-2
0.52967	-2
0.53333	-2
0.53700	-2
0.54067	-2
0.54433	-2
0.54800	-2
0.55167	-2
0.55533	-2
0.55900	-2
0.56267	-2
0.56633	-2
0.57000	-2
0.57367	-2
0.57733	-2
0.58100	-3
0.58467	-3
0.58833	-3
0.59200	-3
0.59567	-3
0.59933	-3
0.60300	-3
0.60667	-3
0.61033	-3
0.61400	-3
0.61767	-3
0.62133	-3
0.62500	-2
0.62867	-2
0.63233	-2
0.63600	-2
0.63967	-2
0.64333	-2
0.64700	-2
0.65067	-2
0.65433	-2
0.65800	-2
0.66167	-2
0.66533	-1
0.66900	-1
0.67267	-1
0.67633	-1
0.68000	-1
0.68367	-2
0.68733	-2
0.69100	-2
0.69467	-2
0.69833	-2
0.70200	-2
0.70567	-2
0.70933	-2
0.71300	-2
0.71667	-2
0.72033	-3
0.72400	-3
0.72767	-3
0.73133	-3
0.73500	-3
0.73867	-3
0.74233	-3
0.74600	-3
0.74967	-3
0.75333	-3
0.75700	-3
0.76067	-3
0.76433	-4
0.76800	-4
0.77167	-4
0.77533	-4
0.77900	-4
0.78267	-4
0.78633	-4
0.79000	-4
0.79367	-4
0.79733	-3
0.80100	-3
0.80467	-2
0.80833	-2
0.81200	-2
0.81567	-2
0.81933	-2
0.82300	-2
0.82667	-2
0.83033	-2
0.83400	-2
0.83767	-2
0.84133	-2
0.84500	-2
0.84867	-2
0.85233	-2
0.85600	-2
0.85967	-2
0.86333	-2
0.86700	-2
0.87067	-2
0.87433	-2
0.87800	-2
0.88167	-2
0.88533	-2
0.88900	-2
0.89267	-2
0.89633	-1
0.90000	-1
0.90367	-1
0.90733	-1
0.91100	-1
0.91467	-1
0.91833	-1
0.92200	-1
0.92567	-1
0.92933	-1
0.93300	-2
0.93667	-2
0.94033	-2
0.94400	-2
0.94767	-2
0.95133	-2
0.95500	-2
0.95867	-2
0.96233	-2
0.96600	-2
0.96967	-2
0.97333	-2
0.97700	-2
0.98067	-2
0.98433	-2
0.98800	-2
0.99167	-2
0.99533	-2
0.99900	-2
1.00267	-2
1.00633	-2
1.01000	-3
1.01367	-3
1.01733	-3
1.02100	-3
1.02467	-3
1.02833	-4
1.03200	-4
1.03567	-4
1.03933	-5
1.04300	-5
1.04667	-5
1.05033	-5
1.05400	-6
1.05767	-6
1.06133	-6
1.06500	-7
1.06867	-6
1.07233	-6
1.07600	-6
1.07967	-5
1.08333	-5
1.08700	-5
1.09067	-5
1.09433	-5
1.09800	-5
1.10167	-5
1.10533	-5
1.10900	-4
1.11267	-4
1.11633	-4
1.12000	-4
1.12367	-4
1.12733	-4
1.13100	-4
1.13467	-4
1.13833	-4
1.14200	-3
1.14567	-3
1.14933	-3
1.15300	-3
1.15667	-3
1.16033	-3
1.16400	-3
1.16767	-3
1.17133	-3
1.17500	-3
1.17867	-3
1.18233	-3
1.18600	-3
1.18967	-3
1.19333	-3
1.19700	-3
1.20067	-3
1.20433	-3
1.20800	-3
1.21167	-3
1.21533	-3
1.21900	-3
1.22267	-3
1.22633	-2
1.23000	-2
1.23367	-2
1.23733	-3
1.24100	-3
1.24467	-3
1.24833	-3
1.25200	-3
1.25567	-3
1.25933	-3
1.26300	-3
1.26667	-3
1.27033	-3
1.27400	-3
1.27767	-3
1.28133	-3
1.28500	-3
1.28867	-3
1.29233	-3
1.29600	-3
1.29967	-3
1.30333	-3
1.30700	-3
1.31067	-3
1.31433	-3
1.31800	-3
1.32167	-3
1.32533	-3
1.32900	-3
1.33267	-3
1.33633	-3
1.34000	-4
1.34367	-4
1.34733	-4
1.35100	-4
1.35467	-4
1.35833	-4
1.36200	-4
1.36567	-4
1.36933	-4
1.37300	-4
1.37667	-4
1.38033	-4
1.38400	-4
1.38767	-4
1.39133	-3
1.39500	-3
1.39867	-3
1.40233	-3
1.40600	-3
1.40967	-3
1.41333	-3
1.41700	-3
1.42067	-3
1.42433	-2
1.42800	-2
1.43167	-2
1.43533	-2
1.43900	-2
1.44267	-2
1.44633	-3
1.45000	-3
1.45367	-3
1.45733	-3
1.46100	-3
1.46467	-3
1.46833	-4
1.47200	-4
1.47567	-4
1.47933	-4
1.48300	-4
1.48667	-4
1.49033	-4
1.49400	-4
1.49767	-4
1.50133	-4
1.50500	-4
1.50867	-4
1.51233	-5
1.51600	-5
1.51967	-5
1.52333	-5
1.52700	-5
1.53067	-5
1.53433	-5
1.53800	-5
1.54167	-5
1.54533	-5
1.54900	-5
1.55267	-5
1.55633	-5
1.56000	-5
1.56367	-5
1.56733	-5
1.57100	-5
1.57467	-6
1.57833	-6
1.58200	-6
1.58567	-6
1.58933	-6
1.59300	-7
1.59667	-7
1.60033	-8
1.60400	-9
1.60767	-10
1.61133	-12
1.61500	-14
1.61867	-16
1.62233	-18
1.62600	-21
1.62967	-24
1.63333	-27
1.63700	-30
1.64067	-32
1.64433	-35
1.64800	-39
1.65167	-42
1.65533	-45
1.65900	-49
1.66267	-53
1.66633	-57
1.67000	-61
1.67367	-65
1.67733	-70
1.68100	-74
1.68467	-79
1.68833	-83
1.69200	-87
1.69567	-91
1.69933	-94
1.70300	-97
1.70667	-99
1.71033	-101
1.71400	-102
1.71767	-103
1.72133	-103
1.72500	-103
1.72867	-103
1.73233	-102
1.73600	-102
1.73967	-102
1.74333	-102
1.74700	-102
1.75067	-101
1.75433	-100
1.75800	-100
1.76167	-100
1.76533	-100
1.76900	-100
1.77267	-101
1.77633	-101
1.78000	-102
1.78367	-103
1.78733	-103
1.79100	-104
1.79467	-105
1.79833	-106
1.80200	-106
1.80567	-107
1.80933	-107
1.81300	-107
1.81667	-107
1.82033	-107
1.82400	-107
1.82767	-107
1.83133	-107
1.83500	-107
1.83867	-107
1.84233	-108
1.84600	-108
1.84967	-108
1.85333	-108
1.85700	-108
1.86067	-108
1.86433	-108
1.86800	-108
1.87167	-108
1.87533	-107
1.87900	-107
1.88267	-106
1.88633	-106
1.89000	-106
1.89367	-106
1.89733	-106
1.90100	-105
1.90467	-105
1.90833	-105
1.91200	-105
1.91567	-105
1.91933	-105
1.92300	-104
1.92667	-104
1.93033	-104
1.93400	-103
1.93767	-103
1.94133	-103
1.94500	-102
1.94867	-102
1.95233	-102
1.95600	-102
1.95967	-102
1.96333	-102
1.96700	-103
1.97067	-103
1.97433	-103
1.97800	-103
1.98167	-103
1.98533	-102
1.98900	-101
1.99267	-101
1.99633	-101
2.00000	-100
2.00367	-100
2.00733	-100
2.01100	-101
2.01467	-101
2.01833	-101
2.02200	-101
2.02567	-101
2.02933	-100
2.03300	-99
2.03667	-98
2.04033	-97
2.04400	-97
2.04767	-97
2.05133	-97
2.05500	-96
2.05867	-96
2.06233	-96
2.06600	-95
2.06967	-95
2.07333	-95
2.07700	-95
2.08067	-95
2.08433	-95
2.08800	-95
2.09167	-95
2.09533	-94
2.09900	-94
2.10267	-93
2.10633	-92
2.11000	-91
2.11367	-90
2.11733	-89
2.12100	-89
2.12467	-88
2.12833	-88
2.13200	-89
2.13567	-89
2.13933	-89
2.14300	-89
2.14667	-89
2.15033	-89
2.15400	-89
2.15767	-89
2.16133	-89
2.16500	-89
2.16867	-89
2.17233	-89
2.17600	-89
2.17967	-89
2.18333	-88
2.18700	-87
2.19067	-86
2.19433	-86
2.19800	-85
2.20167	-85
2.20533	-85
2.20900	-85
2.21267	-84
2.21633	-84
2.22000	-83
2.22367	-82
2.22733	-82
2.23100	-82
2.23467	-81
2.23833	-81
2.24200	-80
2.24567	-80
2.24933	-79
2.25300	-79
2.25667	-78
2.26033	-78
2.26400	-78
2.26767	-78
2.27133	-77
2.27500	-77
2.27867	-77
2.28233	-77
2.28600	-76
2.28967	-76
2.29333	-76
2.29700	-76
2.30067	-76
2.30433	-76
2.30800	-76
2.31167	-76
2.31533	-77
2.31900	-76
2.32267	-76
2.32633	-76
2.33000	-75
2.33367	-74
2.33733	-73
2.34100	-73
2.34467	-72
2.34833	-71
2.35200	-70
2.35567	-69
2.35933	-68
2.36300	-68
2.36667	-67
2.37033	-65
2.37400	-63
2.37767	-60
2.38133	-57
2.38500	-53
2.38867	-49
2.39233	-44
2.39600	-40
2.39967	-35
2.40333	-31
2.40700	-27
2.41067	-23
2.41433	-19
2.41800	-16
2.42167	-13
2.42533	-11
2.42900	-8
2.43267	-6
2.43633	-4
2.44000	-2
2.44367	-0
2.44733	1
2.45100	3
2.45467	4
2.45833	5
2.46200	6
2.46567	7
2.46933	8
2.47300	9
2.47667	9
2.48033	10
2.48400	11
2.48767	12
2.49133	13
2.49500	14
2.49867	14
2.50233	14
2.50600	14
2.50967	13
2.51333	13
2.51700	12
2.52067	12
2.52433	11
2.52800	11
2.53167	11
2.53533	11
2.53900	11
2.54267	11
2.54633	10
2.55000	11
2.55367	11
2.55733	11
2.56100	12
2.56467	12
2.56833	13
2.57200	14
2.57567	15
2.57933	15
2.58300	16
2.58667	16
2.59033	17
2.59400	18
2.59767	18
2.60133	19
2.60500	19
2.60867	20
2.61233	20
2.61600	21
2.61967	21
2.62333	21
2.62700	21
2.63067	21
2.63433	21
2.63800	21
2.64167	21
2.64533	21
2.64900	21
2.65267	21
2.65633	22
2.66000	22
2.66367	22
2.66733	23
2.67100	23
2.67467	24
2.67833	24
2.68200	24
2.68567	24
2.68933	24
2.69300	24
2.69667	24
2.70033	24
2.70400	24
2.70767	24
2.71133	24
2.71500	24
2.71867	24
2.72233	24
2.72600	25
2.72967	25
2.73333	25
2.73700	26
2.74067	26
2.74433	27
2.74800	27
2.75167	28
2.75533	28
2.75900	28
2.76267	28
2.76633	28
2.77000	27
2.77367	27
2.77733	27
2.78100	27
2.78467	27
2.78833	27
2.79200	27
2.79567	27
2.79933	27
2.80300	28
2.80667	28
2.81033	28
2.81400	28
2.81767	28
2.82133	29
2.82500	29
2.82867	29
2.83233	28
2.83600	28
2.83967	27
2.84333	27
2.84700	26
2.85067	26
2.85433	26
2.85800	25
2.86167	24
2.86533	22
2.86900	18
2.87267	11
2.87633	1
2.88000	-13
2.88367	-32
2.88733	-57
2.89100	-88
2.89467	-126
2.89833	-169
2.90200	-219
2.90567	-275
2.90933	-336
2.91300	-402
2.91667	-473
2.92033	-548
2.92400	-627
2.92767	-709
2.93133	-794
2.93500	-881
2.93867	-970
2.94233	-1060
2.94600	-1151
2.94967	-1244
2.95333	-1337
2.95700	-1422
2.96067	-1486
2.96433	-1518
2.96800	-1514
2.97167	-1475
2.97533	-1407
2.97900	-1319
2.98267	-1217
2.98633	-1108
2.99000	-999
2.99367	-891
2.99733	-789
3.00100	-694
3.00467	-607
3.00833	-528
3.01200	-457
3.01567	-395
3.01933	-340
3.02300	-291
3.02667	-249
3.03033	-212
3.03400	-180
3.03767	-153
3.04133	-129
3.04500	-109
3.04867	-92
3.05233	-76
3.05600	-63
3.05967	-52
3.06333	-43
3.06700	-35
3.07067	-28
3.07433	-22
3.07800	-17
3.08167	-12
3.08533	-9
3.08900	-6
3.09267	-3
3.09633	-1
3.10000	1
3.10367	3
3.10733	4
3.11100	6
3.11467	7
3.11833	8
3.12200	9
3.12567	10
3.12933	10
3.13300	11
3.13667	12
3.14033	13
3.14400	13
3.14767	14
3.15133	14
3.15500	15
3.15867	15
3.16233	15
3.16600	15
3.16967	16
3.17333	16
3.17700	16
3.18067	17
3.18433	17
3.18800	18
3.19167	18
3.19533	18
3.19900	18
3.20267	18
3.20633	19
3.21000	19
3.21367	19
3.21733	19
3.22100	19
3.22467	19
3.22833	20
3.23200	20
3.23567	20
3.23933	20
3.24300	20
3.24667	20
3.25033	20
3.25400	20
3.25767	21
3.26133	21
3.26500	21
3.26867	22
3.27233	22
3.27600	22
3.27967	22
3.28333	23
3.28700	23
3.29067	23
3.29433	23
3.29800	23
3.30167	24
3.30533	24
3.30900	24
3.31267	24
3.31633	24
3.32000	24
3.32367	24
3.32733	24
3.33100	24
3.33467	24
3.33833	24
3.34200	24
3.34567	24
3.34933	25
3.35300	25
3.35667	25
3.36033	25
3.36400	25
3.36767	26
3.37133	26
3.37500	26
3.37867	26
3.38233	26
3.38600	26
3.38967	26
3.39333	26
3.39700	26
3.40067	26
3.40433	26
3.40800	26
3.41167	26
3.41533	26
3.41900	26
3.42267	26
3.42633	26
3.43000	26
3.43367	26
3.43733	26
3.44100	26
3.44467	26
3.44833	26
3.45200	27
3.45567	27
3.45933	27
3.46300	27
3.46667	27
3.47033	27
3.47400	27
3.47767	28
3.48133	28
3.48500	28
3.48867	28
3.49233	28
3.49600	28
3.49967	28
3.50333	29
3.50700	29
3.51067	29
3.51433	29
3.51800	30
3.52167	30
3.52533	30
3.52900	30
3.53267	29
3.53633	29
3.54000	29
3.54367	29
3.54733	29
3.55100	29
3.55467	29
3.55833	29
3.56200	29
3.56567	29
3.56933	29
3.57300	29
3.57667	29
3.58033	29
3.58400	29
3.58767	29
3.59133	29
3.59500	29
3.59867	29
3.60233	29
3.60600	29
3.60967	29
3.61333	29
3.61700	29
3.62067	29
3.62433	29
3.62800	28
3.63167	28
3.63533	28
3.63900	28
3.64267	28
3.64633	28
3.65000	28
3.65367	29
3.65733	29
3.66100	29
3.66467	29
3.66833	30
3.67200	30
3.67567	30
3.67933	30
3.68300	30
3.68667	30
3.69033	30
3.69400	30
3.69767	30
3.70133	30
3.70500	30
3.70867	29
3.71233	29
3.71600	29
3.71967	29
3.72333	28
3.72700	28
3.73067	28
3.73433	28
3.73800	28
3.74167	28
3.74533	28
3.74900	28
3.75267	28
3.75633	28
3.76000	28
3.76367	29
3.76733	29
3.77100	29
3.77467	29
3.77833	29
3.78200	29
3.78567	29
3.78933	29
3.79300	29
3.79667	29
3.80033	29
3.80400	29
3.80767	28
3.81133	28
3.81500	28
3.81867	28
3.82233	28
3.82600	28
3.82967	28
3.83333	28
3.83700	28
3.84067	28
3.84433	28
3.84800	28
3.85167	28
3.85533	27
3.85900	27
3.86267	28
3.86633	28
3.87000	28
3.87367	28
3.87733	28
3.88100	28
3.88467	28
3.88833	28
3.89200	28
3.89567	28
3.89933	28
3.90300	28
3.90667	28
3.91033	28
3.91400	27
3.91767	27
3.92133	27
3.92500	27
3.92867	27
3.93233	27
3.93600	26
3.93967	26
3.94333	26
3.94700	26
3.95067	26
3.95433	26
3.95800	26
3.96167	26
3.96533	26
3.96900	26
3.97267	26
3.97633	26
3.98000	26
3.98367	26
3.98733	26
3.99100	26
3.99467	26
3.99833	26

[Chromatogram (Ch3)]
Interval(msec)	220
# of Points	1091
Start Time(min)	0.002
End Time(min)	3.998
R.Time (min)	Intensity
0.00167	1
0.00533	3
0.00900	3
0.01267	2
0.01633	0
0.02000	-1
0.02367	-1
0.02733	-2
0.03100	-2
0.03467	-1
0.03833	-2
0.04200	-2
0.04567	0
0.04933	3
0.05300	5
0.05667	3
0.06033	-0
0.06400	-2
0.06767	-2
0.07133	-1
0.07500	-3
0.07867	-2
0.08233	-2
0.08600	-2
0.08967	-2
0.09333	-1
0.09700	-3
0.10067	-6
0.10433	-6
0.10800	-5
0.11167	-4
0.11533	-3
0.11900	-1
0.12267	0
0.12633	3
0.13000	4
0.13367	5
0.13733	6
0.14100	7
0.14467	6
0.14833	5
0.15200	5
0.15567	4
0.15933	3
0.16300	2
0.16667	4
0.17033	5
0.17400	5
0.17767	6
0.18133	6
0.18500	6
0.18867	4
0.19233	3
0.19600	6
0.19967	6
0.20333	6
0.20700	4
0.21067	4
0.21433	5
0.21800	5
0.22167	4
0.22533	4
0.22900	4
0.23267	5
0.23633	4
0.24000	3
0.24367	5
0.24733	7
0.25100	6
0.25467	6
0.25833	7
0.26200	7
0.26567	5
0.26933	3
0.27300	3
0.27667	5
0.28033	4
0.28400	4
0.28767	4
0.29133	4
0.29500	3
0.29867	4
0.30233	4
0.30600	2
0.30967	4
0.31333	5
0.31700	7
0.32067	8
0.32433	7
0.32800	7
0.33167	5
0.33533	4
0.33900	6
0.34267	8
0.34633	9
0.35000	9
0.35367	8
0.35733	8
0.36100	9
0.36467	9
0.36833	9
0.37200	11
0.37567	9
0.37933	8
0.38300	7
0.38667	7
0.39033	6
0.39400	7
0.39767	8
0.40133	9
0.40500	9
0.40867	9
0.41233	10
0.41600	13
0.41967	14
0.42333	14
0.42700	13
0.43067	13
0.43433	13
0.43800	13
0.44167	14
0.44533	16
0.44900	15
0.45267	14
0.45633	12
0.46000	12
0.46367	12
0.46733	12
0.47100	13
0.47467	13
0.47833	13
0.48200	14
0.48567	15
0.48933	15
0.49300	15
0.49667	15
0.50033	15
0.50400	13
0.50767	11
0.51133	10
0.51500	9
0.51867	10
0.52233	11
0.52600	12
0.52967	10
0.53333	9
0.53700	7
0.54067	6
0.54433	6
0.54800	8
0.55167	9
0.55533	9
0.55900	10
0.56267	12
0.56633	14
0.57000	13
0.57367	11
0.57733	10
0.58100	12
0.58467	14
0.58833	16
0.59200	16
0.59567	15
0.59933	16
0.60300	16
0.60667	15
0.61033	15
0.61400	15
0.61767	14
0.62133	12
0.62500	10
0.62867	11
0.63233	14
0.63600	15
0.63967	14
0.64333	14
0.64700	14
0.65067	14
0.65433	16
0.65800	15
0.66167	13
0.66533	13
0.66900	12
0.67267	13
0.67633	13
0.68000	14
0.68367	17
0.68733	16
0.69100	14
0.69467	14
0.69833	13
0.70200	14
0.70567	12
0.70933	10
0.71300	8
0.71667	7
0.72033	9
0.72400	12
0.72767	16
0.73133	19
0.73500	19
0.73867	18
0.74233	16
0.74600	15
0.74967	15
0.75333	16
0.75700	17
0.76067	19
0.76433	20
0.76800	20
0.77167	18
0.77533	16
0.77900	14
0.78267	16
0.78633	17
0.79000	18
0.79367	21
0.79733	21
0.80100	18
0.80467	17
0.80833	16
0.81200	16
0.81567	16
0.81933	15
0.82300	16
0.82667	16
0.83033	17
0.83400	18
0.83767	20
0.84133	21
0.84500	22
0.84867	25
0.85233	26
0.85600	24
0.85967	21
0.86333	21
0.86700	21
0.87067	22
0.87433	21
0.87800	21
0.88167	20
0.88533	19
0.88900	19
0.89267	20
0.89633	22
0.90000	23
0.90367	22
0.90733	21
0.91100	19
0.91467	17
0.91833	15
0.92200	14
0.92567	15
0.92933	17
0.93300	20
0.93667	21
0.94033	23
0.94400	25
0.94767	25
0.95133	24
0.95500	23
0.95867	20
0.96233	19
0.96600	20
0.96967	21
0.97333	21
0.97700	21
0.98067	23
0.98433	24
0.98800	24
0.99167	23
0.99533	24
0.99900	25
1.00267	25
1.00633	24
1.01000	24
1.01367	25
1.01733	27
1.02100	29
1.02467	30
1.02833	30
1.03200	30
1.03567	29
1.03933	27
1.04300	27
1.04667	26
1.05033	24
1.05400	22
1.05767	21
1.06133	20
1.06500	20
1.06867	20
1.07233	21
1.07600	21
1.07967	22
1.08333	24
1.08700	23
1.09067	23
1.09433	24
1.09800	26
1.10167	27
1.10533	27
1.10900	28
1.11267	28
1.11633	28
1.12000	27
1.12367	26
1.12733	25
1.13100	24
1.13467	25
1.13833	24
1.14200	24
1.14567	25
1.14933	28
1.15300	27
1.15667	25
1.16033	25
1.16400	27
1.16767	28
1.17133	27
1.17500	24
1.17867	23
1.18233	20
1.18600	19
1.18967	21
1.19333	24
1.19700	25
1.20067	28
1.20433	28
1.20800	29
1.21167	30
1.21533	28
1.21900	28
1.22267	30
1.22633	29
1.23000	28
1.23367	26
1.23733	26
1.24100	26
1.24467	26
1.24833	27
1.25200	25
1.25567	25
1.25933	26
1.26300	26
1.26667	26
1.27033	26
1.27400	27
1.27767	27
1.28133	27
1.28500	27
1.28867	27
1.29233	28
1.29600	26
1.29967	26
1.30333	26
1.30700	25
1.31067	25
1.31433	26
1.31800	28
1.32167	28
1.32533	28
1.32900	26
1.33267	27
1.33633	28
1.34000	29
1.34367	30
1.34733	29
1.35100	28
1.35467	27
1.35833	28
1.36200	28
1.36567	27
1.36933	25
1.37300	25
1.37667	26
1.38033	28
1.38400	30
1.38767	30
1.39133	28
1.39500	29
1.39867	31
1.40233	31
1.40600	31
1.40967	31
1.41333	31
1.41700	31
1.42067	31
1.42433	30
1.42800	29
1.43167	29
1.43533	28
1.43900	26
1.44267	27
1.44633	28
1.45000	28
1.45367	27
1.45733	28
1.46100	30
1.46467	31
1.46833	32
1.47200	32
1.47567	33
1.47933	34
1.48300	35
1.48667	35
1.49033	33
1.49400	31
1.49767	32
1.50133	31
1.50500	31
1.50867	30
1.51233	32
1.51600	35
1.51967	35
1.52333	35
1.52700	36
1.53067	37
1.53433	36
1.53800	35
1.54167	32
1.54533	29
1.54900	27
1.55267	28
1.55633	30
1.56000	30
1.56367	30
1.56733	30
1.57100	31
1.57467	31
1.57833	30
1.58200	29
1.58567	31
1.58933	32
1.59300	31
1.59667	31
1.60033	30
1.60400	29
1.60767	30
1.61133	32
1.61500	32
1.61867	30
1.62233	31
1.62600	33
1.62967	36
1.63333	37
1.63700	35
1.64067	35
1.64433	36
1.64800	37
1.65167	37
1.65533	37
1.65900	36
1.66267	35
1.66633	35
1.67000	37
1.67367	38
1.67733	36
1.68100	34
1.68467	35
1.68833	36
1.69200	37
1.69567	38
1.69933	40
1.70300	42
1.70667	41
1.71033	40
1.71400	38
1.71767	38
1.72133	39
1.72500	39
1.72867	39
1.73233	40
1.73600	41
1.73967	40
1.74333	40
1.74700	40
1.75067	41
1.75433	43
1.75800	44
1.76167	45
1.76533	46
1.76900	47
1.77267	46
1.77633	45
1.78000	46
1.78367	45
1.78733	43
1.79100	43
1.79467	43
1.79833	42
1.80200	44
1.80567	45
1.80933	44
1.81300	46
1.81667	48
1.82033	49
1.82400	50
1.82767	51
1.83133	51
1.83500	53
1.83867	56
1.84233	58
1.84600	59
1.84967	58
1.85333	55
1.85700	51
1.86067	50
1.86433	51
1.86800	54
1.87167	55
1.87533	57
1.87900	57
1.88267	56
1.88633	56
1.89000	58
1.89367	61
1.89733	63
1.90100	63
1.90467	63
1.90833	63
1.91200	64
1.91567	65
1.91933	67
1.92300	70
1.92667	72
1.93033	73
1.93400	73
1.93767	73
1.94133	73
1.94500	73
1.94867	72
1.95233	73
1.95600	75
1.95967	76
1.96333	76
1.96700	76
1.97067	77
1.97433	79
1.97800	79
1.98167	80
1.98533	82
1.98900	83
1.99267	85
1.99633	88
2.00000	89
2.00367	89
2.00733	87
2.01100	86
2.01467	89
2.01833	90
2.02200	89
2.02567	89
2.02933	86
2.03300	83
2.03667	82
2.04033	84
2.04400	89
2.04767	94
2.05133	97
2.05500	99
2.05867	98
2.06233	97
2.06600	97
2.06967	98
2.07333	101
2.07700	103
2.08067	106
2.08433	108
2.08800	108
2.09167	106
2.09533	106
2.09900	106
2.10267	106
2.10633	105
2.11000	105
2.11367	104
2.11733	104
2.12100	107
2.12467	111
2.12833	114
2.13200	118
2.13567	120
2.13933	117
2.14300	115
2.14667	115
2.15033	116
2.15400	118
2.15767	119
2.16133	119
2.16500	121
2.16867	123
2.17233	123
2.17600	124
2.17967	123
2.18333	121
2.18700	121
2.19067	122
2.19433	125
2.19800	127
2.20167	127
2.20533	127
2.20900	125
2.21267	123
2.21633	122
2.22000	124
2.22367	127
2.22733	129
2.23100	129
2.23467	129
2.23833	129
2.24200	129
2.24567	130
2.24933	131
2.25300	132
2.25667	131
2.26033	133
2.26400	135
2.26767	134
2.27133	132
2.27500	131
2.27867	130
2.28233	129
2.28600	130
2.28967	131
2.29333	133
2.29700	132
2.30067	131
2.30433	130
2.30800	132
2.31167	135
2.31533	136
2.31900	136
2.32267	134
2.32633	132
2.33000	132
2.33367	132
2.33733	135
2.34100	134
2.34467	132
2.34833	133
2.35200	134
2.35567	136
2.35933	136
2.36300	137
2.36667	137
2.37033	138
2.37400	138
2.37767	139
2.38133	140
2.38500	139
2.38867	136
2.39233	134
2.39600	133
2.39967	135
2.40333	139
2.40700	141
2.41067	144
2.41433	149
2.41800	148
2.42167	147
2.42533	146
2.42900	147
2.43267	148
2.43633	145
2.44000	150
2.44367	195
2.44733	292
2.45100	398
2.45467	479
2.45833	539
2.46200	587
2.46567	620
2.46933	639
2.47300	649
2.47667	658
2.48033	669
2.48400	682
2.48767	698
2.49133	715
2.49500	731
2.49867	743
2.50233	748
2.50600	745
2.50967	736
2.51333	725
2.51700	714
2.52067	707
2.52433	702
2.52800	699
2.53167	700
2.53533	702
2.53900	705
2.54267	707
2.54633	710
2.55000	716
2.55367	721
2.55733	730
2.56100	740
2.56467	748
2.56833	751
2.57200	748
2.57567	742
2.57933	733
2.58300	722
2.58667	709
2.59033	696
2.59400	683
2.59767	671
2.60133	660
2.60500	649
2.60867	641
2.61233	635
2.61600	627
2.61967	620
2.62333	614
2.62700	610
2.63067	607
2.63433	603
2.63800	597
2.64167	592
2.64533	586
2.64900	582
2.65267	581
2.65633	578
2.66000	575
2.66367	575
2.66733	575
2.67100	577
2.67467	580
2.67833	582
2.68200	584
2.68567	585
2.68933	589
2.69300	592
2.69667	594
2.70033	596
2.70400	599
2.70767	603
2.71133	607
2.71500	611
2.71867	613
2.72233	613
2.72600	612
2.72967	610
2.73333	607
2.73700	602
2.74067	595
2.74433	590
2.74800	587
2.75167	584
2.75533	581
2.75900	577
2.76267	573
2.76633	569
2.77000	566
2.77367	565
2.77733	561
2.78100	560
2.78467	559
2.78833	556
2.79200	556
2.79567	557
2.79933	560
2.80300	562
2.80667	565
2.81033	568
2.81400	570
2.81767	574
2.82133	578
2.82500	583
2.82867	591
2.83233	606
2.83600	642
2.83967	721
2.84333	887
2.84700	1193
2.85067	1693
2.85433	2437
2.85800	3447
2.86167	4711
2.86533	6176
2.86900	7747
2.87267	9310
2.87633	10740
2.88000	11922
2.88367	12773
2.88733	13253
2.89100	13362
2.89467	13139
2.89833	12648
2.90200	11959
2.90567	11145
2.90933	10265
2.91300	9362
2.91667	8475
2.92033	7630
2.92400	6837
2.92767	6107
2.93133	5447
2.93500	4852
2.93867	4318
2.94233	3843
2.94600	3420
2.94967	3047
2.95333	2718
2.95700	2429
2.96067	2178
2.96433	1960
2.96800	1770
2.97167	1604
2.97533	1458
2.97900	1332
2.98267	1222
2.98633	1128
2.99000	1048
2.99367	978
2.99733	917
3.00100	865
3.00467	821
3.00833	783
3.01200	751
3.01567	726
3.01933	702
3.02300	679
3.02667	662
3.03033	647
3.03400	633
3.03767	622
3.04133	611
3.04500	600
3.04867	591
3.05233	584
3.05600	580
3.05967	574
3.06333	568
3.06700	565
3.07067	562
3.07433	560
3.07800	558
3.08167	556
3.08533	556
3.08900	556
3.09267	554
3.09633	551
3.10000	548
3.10367	546
3.10733	543
3.11100	542
3.11467	539
3.11833	538
3.12200	535
3.12567	535
3.12933	535
3.13300	535
3.13667	533
3.14033	532
3.14400	530
3.14767	529
3.15133	527
3.15500	525
3.15867	525
3.16233	525
3.16600	524
3.16967	522
3.17333	520
3.17700	518
3.18067	517
3.18433	516
3.18800	514
3.19167	513
3.19533	513
3.19900	512
3.20267	512
3.20633	511
3.21000	511
3.21367	510
3.21733	508
3.22100	505
3.22467	503
3.22833	504
3.23200	505
3.23567	503
3.23933	501
3.24300	501
3.24667	499
3.25033	494
3.25400	492
3.25767	491
3.26133	488
3.26500	488
3.26867	486
3.27233	484
3.27600	483
3.27967	483
3.28333	484
3.28700	483
3.29067	479
3.29433	477
3.29800	475
3.30167	475
3.30533	473
3.30900	472
3.31267	473
3.31633	473
3.32000	472
3.32367	469
3.32733	466
3.33100	464
3.33467	462
3.33833	458
3.34200	457
3.34567	458
3.34933	459
3.35300	457
3.35667	454
3.36033	452
3.36400	449
3.36767	448
3.37133	446
3.37500	444
3.37867	443
3.38233	443
3.38600	443
3.38967	442
3.39333	440
3.39700	437
3.40067	434
3.40433	432
3.40800	431
3.41167	430
3.41533	429
3.41900	425
3.42267	422
3.42633	421
3.43000	419
3.43367	416
3.43733	413
3.44100	411
3.44467	409
3.44833	408
3.45200	407
3.45567	406
3.45933	407
3.46300	408
3.46667	406
3.47033	405
3.47400	403
3.47767	401
3.48133	396
3.48500	392
3.48867	389
3.49233	387
3.49600	387
3.49967	388
3.50333	387
3.50700	385
3.51067	385
3.51433	385
3.51800	384
3.52167	383
3.52533	380
3.52900	379
3.53267	379
3.53633	380
3.54000	380
3.54367	379
3.54733	379
3.55100	377
3.55467	376
3.55833	373
3.56200	370
3.56567	367
3.56933	364
3.57300	361
3.57667	356
3.58033	352
3.58400	351
3.58767	353
3.59133	354
3.59500	352
3.59867	350
3.60233	349
3.60600	348
3.60967	345
3.61333	345
3.61700	346
3.62067	347
3.62433	349
3.62800	349
3.63167	348
3.63533	345
3.63900	344
3.64267	342
3.64633	339
3.65000	338
3.65367	336
3.65733	336
3.66100	334
3.66467	330
3.66833	328
3.67200	328
3.67567	328
3.67933	328
3.68300	327
3.68667	323
3.69033	322
3.69400	322
3.69767	322
3.70133	320
3.70500	317
3.70867	315
3.71233	315
3.71600	314
3.71967	312
3.72333	309
3.72700	308
3.73067	307
3.73433	305
3.73800	303
3.74167	303
3.74533	303
3.74900	303
3.75267	300
3.75633	297
3.76000	297
3.76367	298
3.76733	298
3.77100	296
3.77467	293
3.77833	290
3.78200	289
3.78567	287
3.78933	286
3.79300	285
3.79667	283
3.80033	282
3.80400	280
3.80767	279
3.81133	275
3.81500	271
3.81867	270
3.82233	270
3.82600	270
3.82967	269
3.83333	267
3.83700	264
3.84067	263
3.84433	262
3.84800	260
3.85167	258
3.85533	258
3.85900	258
3.86267	256
3.86633	253
3.87000	250
3.87367	247
3.87733	246
3.88100	247
3.88467	248
3.88833	249
3.89200	247
3.89567	247
3.89933	247
3.90300	248
3.90667	245
3.91033	244
3.91400	242
3.91767	238
3.92133	235
3.92500	235
3.92867	236
3.93233	237
3.93600	237
3.93967	236
3.94333	234
3.94700	230
3.95067	229
3.95433	229
3.95800	226
3.96167	225
3.96533	223
3.96900	221
3.97267	218
3.97633	215
3.98000	214
3.98367	214
3.98733	214
3.99100	211
3.99467	208
3.99833	203

[Status Trace (Column Oven Temperature)]
Interval(msec)	1000
# of Points	240
Start Time(min)	0.008
End Time(min)	3.992
Intensity Units	
Intensity Multiplier	1
R.Time (min)	Intensity
0.00835	35.04
0.02502	35.02
0.04168	35.02
0.05835	35.04
0.07502	35.03
0.09168	35.01
0.10835	35.01
0.12502	35.01
0.14168	35.01
0.15835	35.00
0.17502	35.00
0.19168	35.00
0.20835	35.01
0.22502	35.01
0.24168	35.01
0.25835	35.02
0.27502	35.03
0.29168	35.02
0.30835	35.02
0.32502	35.02
0.34168	35.02
0.35835	35.01
0.37502	35.01
0.39168	35.00
0.40835	34.99
0.42502	34.99
0.44168	34.99
0.45835	34.99
0.47502	35.00
0.49168	35.01
0.50835	35.01
0.52502	35.01
0.54168	35.02
0.55835	35.02
0.57502	35.02
0.59168	35.03
0.60835	35.02
0.62502	35.02
0.64168	35.01
0.65835	35.00
0.67502	35.00
0.69168	35.00
0.70835	35.00
0.72502	35.00
0.74168	35.01
0.75835	35.02
0.77502	35.02
0.79168	35.02
0.80835	35.01
0.82502	35.00
0.84168	35.01
0.85835	35.00
0.87502	35.00
0.89168	34.99
0.90835	34.98
0.92502	34.99
0.94168	34.97
0.95835	34.97
0.97502	34.98
0.99168	34.97
1.00835	34.98
1.02502	34.98
1.04168	34.99
1.05835	35.01
1.07502	35.01
1.09168	35.01
1.10835	35.01
1.12502	35.02
1.14168	35.02
1.15835	35.02
1.17502	35.01
1.19168	35.02
1.20835	35.01
1.22502	35.01
1.24168	35.00
1.25835	35.01
1.27502	35.00
1.29168	34.99
1.30835	34.99
1.32502	35.00
1.34168	35.00
1.35835	35.01
1.37502	35.00
1.39168	35.00
1.40835	34.99
1.42502	34.99
1.44168	34.98
1.45835	34.98
1.47502	34.99
1.49168	34.99
1.50835	34.99
1.52502	34.98
1.54168	34.98
1.55835	35.00
1.57502	35.01
1.59168	35.03
1.60835	35.09
1.62502	35.21
1.64168	35.38
1.65835	35.63
1.67502	35.96
1.69168	36.35
1.70835	36.71
1.72502	37.04
1.74168	37.35
1.75835	37.65
1.77502	37.98
1.79168	38.32
1.80835	38.67
1.82502	39.00
1.84168	39.33
1.85835	39.67
1.87502	40.00
1.89168	40.32
1.90835	40.65
1.92502	40.97
1.94168	41.29
1.95835	41.63
1.97502	41.97
1.99168	42.29
2.00835	42.62
2.02502	42.94
2.04168	43.26
2.05835	43.58
2.07502	43.91
2.09168	44.23
2.10835	44.55
2.12502	44.87
2.14168	45.20
2.15835	45.54
2.17502	45.87
2.19168	46.20
2.20835	46.53
2.22502	46.86
2.24168	47.18
2.25835	47.51
2.27502	47.83
2.29168	48.15
2.30835	48.49
2.32502	48.82
2.34168	49.13
2.35835	49.44
2.37502	49.65
2.39168	49.71
2.40835	49.71
2.42502	49.71
2.44168	49.72
2.45835	49.73
2.47502	49.74
2.49168	49.74
2.50835	49.76
2.52502	49.76
2.54168	49.78
2.55835	49.79
2.57502	49.81
2.59168	49.82
2.60835	49.82
2.62502	49.81
2.64168	49.83
2.65835	49.83
2.67502	49.84
2.69168	49.83
2.70835	49.85
2.72502	49.86
2.74168	49.84
2.75835	49.85
2.77502	49.86
2.79168	49.86
2.80835	49.85
2.82502	49.85
2.84168	49.88
2.85835	49.89
2.87502	49.90
2.89168	49.92
2.90835	49.93
2.92502	49.93
2.94168	49.94
2.95835	49.94
2.97502	49.95
2.99168	49.95
3.00835	49.96
3.02502	49.96
3.04168	49.95
3.05835	49.93
3.07502	49.93
3.09168	49.94
3.10835	49.95
3.12502	49.96
3.14168	49.97
3.15835	49.98
3.17502	49.98
3.19168	49.98
3.20835	49.99
3.22502	50.00
3.24168	50.01
3.25835	50.02
3.27502	50.02
3.29168	50.03
3.30835	50.04
3.32502	50.06
3.34168	50.06
3.35835	50.06
3.37502	50.07
3.39168	50.08
3.40835	50.09
3.42502	50.10
3.44168	50.11
3.45835	50.10
3.47502	50.10
3.49168	50.09
3.50835	50.08
3.52502	50.07
3.54168	50.08
3.55835	50.08
3.57502	50.08
3.59168	50.07
3.60835	50.07
3.62502	50.07
3.64168	50.07
3.65835	50.06
3.67502	50.06
3.69168	50.04
3.70835	50.04
3.72502	50.05
3.74168	50.05
3.75835	50.07
3.77502	50.07
3.79168	50.06
3.80835	50.06
3.82502	50.05
3.84168	50.05
3.85835	50.05
3.87502	50.05
3.89168	50.04
3.90835	50.06
3.92502	50.07
3.94168	50.08
3.95835	50.09
3.97502	50.11
3.99168	50.12

[Status Trace (Injection Unit Temperature)]
Interval(msec)	1000
# of Points	240
Start Time(min)	0.008
End Time(min)	3.992
Intensity Units	
Intensity Multiplier	1
R.Time (min)	Intensity
0.00835	99.98
0.02502	99.98
0.04168	99.98
0.05835	99.98
0.07502	99.98
0.09168	99.98
0.10835	99.98
0.12502	99.98
0.14168	99.98
0.15835	99.98
0.17502	99.98
0.19168	99.99
0.20835	99.98
0.22502	99.98
0.24168	99.98
0.25835	99.98
0.27502	99.98
0.29168	99.98
0.30835	99.98
0.32502	99.99
0.34168	99.99
0.35835	99.99
0.37502	99.98
0.39168	99.99
0.40835	99.98
0.42502	99.99
0.44168	99.99
0.45835	99.98
0.47502	99.98
0.49168	99.99
0.50835	99.99
0.52502	99.99
0.54168	99.99
0.55835	99.99
0.57502	99.98
0.59168	99.99
0.60835	99.99
0.62502	99.98
0.64168	99.98
0.65835	99.98
0.67502	99.98
0.69168	99.99
0.70835	99.98
0.72502	99.98
0.74168	99.98
0.75835	99.99
0.77502	99.99
0.79168	99.98
0.80835	99.99
0.82502	99.99
0.84168	99.98
0.85835	99.98
0.87502	99.98
0.89168	99.98
0.90835	99.99
0.92502	99.99
0.94168	99.98
0.95835	99.99
0.97502	99.99
0.99168	99.98
1.00835	99.99
1.02502	99.99
1.04168	99.98
1.05835	99.99
1.07502	99.98
1.09168	99.99
1.10835	99.98
1.12502	99.99
1.14168	99.99
1.15835	99.99
1.17502	99.99
1.19168	99.98
1.20835	99.99
1.22502	99.99
1.24168	99.98
1.25835	99.98
1.27502	99.99
1.29168	99.99
1.30835	99.99
1.32502	99.99
1.34168	99.99
1.35835	99.99
1.37502	99.99
1.39168	99.99
1.40835	99.99
1.42502	99.99
1.44168	99.99
1.45835	99.99
1.47502	99.99
1.49168	99.99
1.50835	99.98
1.52502	99.98
1.54168	99.99
1.55835	99.99
1.57502	99.99
1.59168	99.99
1.60835	99.99
1.62502	99.99
1.64168	99.98
1.65835	99.99
1.67502	99.99
1.69168	99.99
1.70835	99.98
1.72502	99.99
1.74168	99.99
1.75835	99.99
1.77502	99.99
1.79168	99.99
1.80835	99.99
1.82502	99.99
1.84168	99.99
1.85835	99.98
1.87502	99.99
1.89168	99.98
1.90835	99.98
1.92502	99.98
1.94168	99.98
1.95835	99.98
1.97502	99.98
1.99168	99.98
2.00835	99.98
2.02502	99.98
2.04168	99.98
2.05835	99.97
2.07502	99.97
2.09168	99.97
2.10835	99.97
2.12502	99.97
2.14168	99.97
2.15835	99.97
2.17502	99.97
2.19168	99.96
2.20835	99.97
2.22502	99.97
2.24168	99.97
2.25835	99.96
2.27502	99.96
2.29168	99.97
2.30835	99.96
2.32502	99.97
2.34168	99.96
2.35835	99.97
2.37502	99.97
2.39168	99.96
2.40835	99.97
2.42502	99.97
2.44168	99.96
2.45835	99.96
2.47502	99.97
2.49168	99.97
2.50835	99.97
2.52502	99.97
2.54168	99.97
2.55835	99.97
2.57502	99.97
2.59168	99.98
2.60835	99.98
2.62502	99.98
2.64168	99.98
2.65835	99.98
2.67502	99.98
2.69168	99.99
2.70835	99.99
2.72502	99.99
2.74168	99.98
2.75835	99.99
2.77502	99.99
2.79168	100.00
2.80835	100.00
2.82502	100.00
2.84168	100.00
2.85835	100.00
2.87502	100.00
2.89168	100.00
2.90835	100.01
2.92502	100.01
2.94168	100.01
2.95835	100.01
2.97502	100.01
2.99168	100.01
3.00835	100.02
3.02502	100.01
3.04168	100.01
3.05835	100.02
3.07502	100.02
3.09168	100.02
3.10835	100.02
3.12502	100.02
3.14168	100.02
3.15835	100.02
3.17502	100.03
3.19168	100.02
3.20835	100.02
3.22502	100.03
3.24168	100.02
3.25835	100.03
3.27502	100.03
3.29168	100.03
3.30835	100.03
3.32502	100.03
3.34168	100.03
3.35835	100.03
3.37502	100.03
3.39168	100.03
3.40835	100.03
3.42502	100.03
3.44168	100.03
3.45835	100.03
3.47502	100.03
3.49168	100.03
3.50835	100.03
3.52502	100.03
3.54168	100.03
3.55835	100.03
3.57502	100.04
3.59168	100.04
3.60835	100.03
3.62502	100.04
3.64168	100.04
3.65835	100.04
3.67502	100.03
3.69168	100.04
3.70835	100.04
3.72502	100.04
3.74168	100.04
3.75835	100.04
3.77502	100.04
3.79168	100.04
3.80835	100.04
3.82502	100.04
3.84168	100.04
3.85835	100.04
3.87502	100.04
3.89168	100.04
3.90835	100.04
3.92502	100.04
3.94168	100.04
3.95835	100.04
3.97502	100.04
3.99168	100.04

[Status Trace (Carrier Gas Pressure)]
Interval(msec)	1000
# of Points	240
Start Time(min)	0.008
End Time(min)	3.992
Intensity Units	
Intensity Multiplier	1
R.Time (min)	Intensity
0.00835	58.00
0.02502	55.32
0.04168	57.26
0.05835	59.35
0.07502	59.26
0.09168	58.03
0.10835	57.98
0.12502	58.01
0.14168	58.01
0.15835	58.00
0.17502	58.00
0.19168	58.00
0.20835	58.00
0.22502	58.00
0.24168	58.00
0.25835	58.00
0.27502	58.00
0.29168	58.00
0.30835	58.00
0.32502	58.00
0.34168	58.00
0.35835	58.00
0.37502	58.00
0.39168	58.00
0.40835	58.00
0.42502	58.00
0.44168	58.00
0.45835	58.00
0.47502	58.00
0.49168	58.00
0.50835	58.00
0.52502	58.00
0.54168	58.00
0.55835	58.00
0.57502	58.00
0.59168	58.00
0.60835	58.00
0.62502	58.00
0.64168	58.00
0.65835	58.00
0.67502	58.00
0.69168	58.00
0.70835	58.00
0.72502	58.00
0.74168	58.00
0.75835	58.00
0.77502	58.00
0.79168	58.00
0.80835	58.00
0.82502	58.00
0.84168	58.00
0.85835	58.00
0.87502	58.00
0.89168	58.00
0.90835	58.00
0.92502	58.00
0.94168	58.00
0.95835	58.00
0.97502	58.00
0.99168	58.00
1.00835	58.00
1.02502	58.00
1.04168	58.00
1.05835	58.00
1.07502	58.00
1.09168	58.00
1.10835	58.00
1.12502	58.00
1.14168	58.00
1.15835	58.00
1.17502	58.00
1.19168	58.00
1.20835	58.00
1.22502	58.00
1.24168	58.00
1.25835	58.00
1.27502	58.00
1.29168	58.00
1.30835	58.00
1.32502	58.00
1.34168	58.00
1.35835	58.00
1.37502	58.00
1.39168	58.00
1.40835	58.00
1.42502	58.00
1.44168	58.00
1.45835	58.00
1.47502	58.00
1.49168	58.00
1.50835	58.00
1.52502	58.00
1.54168	58.00
1.55835	58.00
1.57502	58.00
1.59168	58.00
1.60835	58.00
1.62502	58.00
1.64168	58.00
1.65835	58.00
1.67502	58.01
1.69168	58.00
1.70835	58.00
1.72502	58.00
1.74168	58.00
1.75835	58.00
1.77502	58.00
1.79168	58.00
1.80835	58.00
1.82502	58.00
1.84168	58.00
1.85835	58.00
1.87502	58.00
1.89168	58.00
1.90835	58.00
1.92502	58.00
1.94168	58.00
1.95835	58.00
1.97502	58.00
1.99168	58.00
2.00835	58.00
2.02502	58.00
2.04168	58.00
2.05835	58.00
2.07502	58.00
2.09168	58.00
2.10835	58.00
2.12502	58.00
2.14168	58.00
2.15835	58.00
2.17502	58.00
2.19168	58.00
2.20835	58.00
2.22502	58.00
2.24168	58.00
2.25835	58.00
2.27502	58.00
2.29168	58.00
2.30835	58.00
2.32502	58.00
2.34168	58.00
2.35835	58.00
2.37502	58.00
2.39168	57.99
2.40835	57.99
2.42502	58.00
2.44168	58.00
2.45835	58.00
2.47502	58.00
2.49168	58.00
2.50835	58.00
2.52502	57.98
2.54168	58.00
2.55835	58.00
2.57502	58.00
2.59168	58.00
2.60835	58.00
2.62502	58.00
2.64168	58.00
2.65835	58.00
2.67502	58.00
2.69168	58.00
2.70835	58.00
2.72502	58.00
2.74168	58.00
2.75835	58.00
2.77502	58.00
2.79168	58.00
2.80835	58.00
2.82502	58.00
2.84168	58.00
2.85835	58.00
2.87502	58.00
2.89168	58.00
2.90835	58.00
2.92502	58.00
2.94168	58.00
2.95835	58.00
2.97502	58.00
2.99168	58.00
3.00835	58.00
3.02502	58.00
3.04168	58.00
3.05835	58.00
3.07502	58.00
3.09168	58.00
3.10835	58.00
3.12502	58.00
3.14168	58.00
3.15835	58.00
3.17502	58.00
3.19168	58.00
3.20835	58.00
3.22502	58.00
3.24168	58.00
3.25835	58.00
3.27502	58.00
3.29168	58.00
3.30835	58.00
3.32502	58.00
3.34168	58.00
3.35835	58.00
3.37502	58.00
3.39168	58.00
3.40835	58.00
3.42502	58.00
3.44168	58.00
3.45835	58.00
3.47502	58.00
3.49168	58.00
3.50835	58.00
3.52502	58.00
3.54168	58.00
3.55835	58.00
3.57502	58.00
3.59168	58.00
3.60835	58.00
3.62502	58.00
3.64168	58.00
3.65835	58.00
3.67502	58.00
3.69168	58.00
3.70835	58.00
3.72502	58.00
3.74168	58.00
3.75835	58.00
3.77502	58.00
3.79168	58.00
3.80835	58.00
3.82502	58.00
3.84168	58.00
3.85835	58.00
3.87502	58.00
3.89168	58.00
3.90835	58.00
3.92502	58.00
3.94168	58.00
3.95835	58.00
3.97502	58.00
3.99168	58.00

[Status Trace (Carrier Gas Flow)]
Interval(msec)	1000
# of Points	240
Start Time(min)	0.008
End Time(min)	3.992
Intensity Units	
Intensity Multiplier	1
R.Time (min)	Intensity
0.00835	34.52
0.02502	34.53
0.04168	34.55
0.05835	34.55
0.07502	34.50
0.09168	34.52
0.10835	34.52
0.12502	34.52
0.14168	34.52
0.15835	34.53
0.17502	34.52
0.19168	34.51
0.20835	34.52
0.22502	34.52
0.24168	34.52
0.25835	34.52
0.27502	34.52
0.29168	34.52
0.30835	34.52
0.32502	34.52
0.34168	34.51
0.35835	34.51
0.37502	34.52
0.39168	34.53
0.40835	34.52
0.42502	34.52
0.44168	34.52
0.45835	34.51
0.47502	34.51
0.49168	34.52
0.50835	34.53
0.52502	34.52
0.54168	34.52
0.55835	34.52
0.57502	34.52
0.59168	34.51
0.60835	34.52
0.62502	34.52
0.64168	34.52
0.65835	34.52
0.67502	34.53
0.69168	34.52
0.70835	34.51
0.72502	34.52
0.74168	34.52
0.75835	34.52
0.77502	34.52
0.79168	34.52
0.80835	34.52
0.82502	34.52
0.84168	34.52
0.85835	34.52
0.87502	34.52
0.89168	34.52
0.90835	34.52
0.92502	34.52
0.94168	34.52
0.95835	34.52
0.97502	34.52
0.99168	34.52
1.00835	34.52
1.02502	34.52
1.04168	34.52
1.05835	34.52
1.07502	34.52
1.09168	34.52
1.10835	34.52
1.12502	34.52
1.14168	34.52
1.15835	34.52
1.17502	34.51
1.19168	34.52
1.20835	34.52
1.22502	34.52
1.24168	34.52
1.25835	34.52
1.27502	34.52
1.29168	34.52
1.30835	34.53
1.32502	34.52
1.34168	34.52
1.35835	34.52
1.37502	34.52
1.39168	34.52
1.40835	34.52
1.42502	34.52
1.44168	34.52
1.45835	34.51
1.47502	34.51
1.49168	34.52
1.50835	34.51
1.52502	34.52
1.54168	34.52
1.55835	34.52
1.57502	34.52
1.59168	34.52
1.60835	34.52
1.62502	34.52
1.64168	34.52
1.65835	34.52
1.67502	34.52
1.69168	34.52
1.70835	34.52
1.72502	34.52
1.74168	34.52
1.75835	34.52
1.77502	34.52
1.79168	34.52
1.80835	34.51
1.82502	34.53
1.84168	34.52
1.85835	34.53
1.87502	34.51
1.89168	34.52
1.90835	34.52
1.92502	34.52
1.94168	34.51
1.95835	34.53
1.97502	34.52
1.99168	34.52
2.00835	34.53
2.02502	34.52
2.04168	34.52
2.05835	34.51
2.07502	34.52
2.09168	34.52
2.10835	34.51
2.12502	34.52
2.14168	34.52
2.15835	34.52
2.17502	34.52
2.19168	34.52
2.20835	34.52
2.22502	34.51
2.24168	34.51
2.25835	34.52
2.27502	34.52
2.29168	34.52
2.30835	34.52
2.32502	34.52
2.34168	34.51
2.35835	34.52
2.37502	34.52
2.39168	34.52
2.40835	34.52
2.42502	34.51
2.44168	34.52
2.45835	34.51
2.47502	34.51
2.49168	34.52
2.50835	34.40
2.52502	34.52
2.54168	34.51
2.55835	34.52
2.57502	34.52
2.59168	34.52
2.60835	34.52
2.62502	34.52
2.64168	34.52
2.65835	34.52
2.67502	34.52
2.69168	34.52
2.70835	34.51
2.72502	34.52
2.74168	34.53
2.75835	34.51
2.77502	34.52
2.79168	34.52
2.80835	34.52
2.82502	34.52
2.84168	34.52
2.85835	34.52
2.87502	34.52
2.89168	34.52
2.90835	34.52
2.92502	34.52
2.94168	34.52
2.95835	34.52
2.97502	34.52
2.99168	34.52
3.00835	34.52
3.02502	34.52
3.04168	34.52
3.05835	34.52
3.07502	34.51
3.09168	34.52
3.10835	34.52
3.12502	34.52
3.14168	34.52
3.15835	34.52
3.17502	34.52
3.19168	34.52
3.20835	34.52
3.22502	34.52
3.24168	34.52
3.25835	34.51
3.27502	34.52
3.29168	34.52
3.30835	34.52
3.32502	34.52
3.34168	34.51
3.35835	34.52
3.37502	34.52
3.39168	34.52
3.40835	34.52
3.42502	34.52
3.44168	34.52
3.45835	34.51
3.47502	34.52
3.49168	34.52
3.50835	34.52
3.52502	34.52
3.54168	34.52
3.55835	34.52
3.57502	34.52
3.59168	34.51
3.60835	34.52
3.62502	34.52
3.64168	34.51
3.65835	34.52
3.67502	34.53
3.69168	34.52
3.70835	34.51
3.72502	34.52
3.74168	34.52
3.75835	34.52
3.77502	34.52
3.79168	34.52
3.80835	34.52
3.82502	34.52
3.84168	34.51
3.85835	34.52
3.87502	34.52
3.89168	34.52
3.90835	34.52
3.92502	34.52
3.94168	34.53
3.95835	34.52
3.97502	34.52
3.99168	34.52

[Status Trace (Column Flow)]
Interval(msec)	1000
# of Points	240
Start Time(min)	0.008
End Time(min)	3.992
Intensity Units	
Intensity Multiplier	1
R.Time (min)	Intensity
0.00835	5.53
0.02502	5.22
0.04168	5.44
0.05835	5.69
0.07502	5.68
0.09168	5.54
0.10835	5.53
0.12502	5.53
0.14168	5.53
0.15835	5.53
0.17502	5.53
0.19168	5.53
0.20835	5.53
0.22502	5.53
0.24168	5.53
0.25835	5.53
0.27502	5.53
0.29168	5.53
0.30835	5.53
0.32502	5.53
0.34168	5.53
0.35835	5.53
0.37502	5.53
0.39168	5.53
0.40835	5.53
0.42502	5.53
0.44168	5.53
0.45835	5.53
0.47502	5.53
0.49168	5.53
0.50835	5.53
0.52502	5.53
0.54168	5.53
0.55835	5.53
0.57502	5.53
0.59168	5.53
0.60835	5.53
0.62502	5.53
0.64168	5.53
0.65835	5.53
0.67502	5.53
0.69168	5.53
0.70835	5.53
0.72502	5.53
0.74168	5.53
0.75835	5.53
0.77502	5.53
0.79168	5.53
0.80835	5.53
0.82502	5.53
0.84168	5.53
0.85835	5.53
0.87502	5.53
0.89168	5.53
0.90835	5.53
0.92502	5.53
0.94168	5.53
0.95835	5.53
0.97502	5.53
0.99168	5.53
1.00835	5.53
1.02502	5.53
1.04168	5.53
1.05835	5.53
1.07502	5.53
1.09168	5.53
1.10835	5.53
1.12502	5.53
1.14168	5.53
1.15835	5.53
1.17502	5.53
1.19168	5.53
1.20835	5.53
1.22502	5.53
1.24168	5.53
1.25835	5.53
1.27502	5.53
1.29168	5.53
1.30835	5.53
1.32502	5.53
1.34168	5.53
1.35835	5.53
1.37502	5.53
1.39168	5.53
1.40835	5.53
1.42502	5.53
1.44168	5.53
1.45835	5.53
1.47502	5.53
1.49168	5.53
1.50835	5.53
1.52502	5.53
1.54168	5.53
1.55835	5.53
1.57502	5.53
1.59168	5.53
1.60835	5.53
1.62502	5.53
1.64168	5.52
1.65835	5.51
1.67502	5.50
1.69168	5.49
1.70835	5.48
1.72502	5.47
1.74168	5.46
1.75835	5.45
1.77502	5.44
1.79168	5.43
1.80835	5.42
1.82502	5.41
1.84168	5.40
1.85835	5.39
1.87502	5.38
1.89168	5.37
1.90835	5.36
1.92502	5.35
1.94168	5.34
1.95835	5.33
1.97502	5.32
1.99168	5.31
2.00835	5.30
2.02502	5.29
2.04168	5.28
2.05835	5.27
2.07502	5.26
2.09168	5.25
2.10835	5.24
2.12502	5.23
2.14168	5.22
2.15835	5.21
2.17502	5.20
2.19168	5.19
2.20835	5.19
2.22502	5.18
2.24168	5.17
2.25835	5.16
2.27502	5.15
2.29168	5.14
2.30835	5.13
2.32502	5.12
2.34168	5.11
2.35835	5.10
2.37502	5.10
2.39168	5.09
2.40835	5.10
2.42502	5.10
2.44168	5.10
2.45835	5.10
2.47502	5.10
2.49168	5.10
2.50835	5.09
2.52502	5.09
2.54168	5.09
2.55835	5.09
2.57502	5.09
2.59168	5.09
2.60835	5.09
2.62502	5.09
2.64168	5.09
2.65835	5.09
2.67502	5.09
2.69168	5.09
2.70835	5.09
2.72502	5.09
2.74168	5.09
2.75835	5.09
2.77502	5.09
2.79168	5.09
2.80835	5.09
2.82502	5.09
2.84168	5.09
2.85835	5.09
2.87502	5.09
2.89168	5.09
2.90835	5.09
2.92502	5.09
2.94168	5.09
2.95835	5.09
2.97502	5.09
2.99168	5.09
3.00835	5.09
3.02502	5.09
3.04168	5.09
3.05835	5.09
3.07502	5.09
3.09168	5.09
3.10835	5.09
3.12502	5.09
3.14168	5.09
3.15835	5.09
3.17502	5.09
3.19168	5.09
3.20835	5.09
3.22502	5.09
3.24168	5.09
3.25835	5.09
3.27502	5.09
3.29168	5.09
3.30835	5.09
3.32502	5.09
3.34168	5.09
3.35835	5.09
3.37502	5.09
3.39168	5.09
3.40835	5.09
3.42502	5.08
3.44168	5.08
3.45835	5.08
3.47502	5.08
3.49168	5.08
3.50835	5.09
3.52502	5.09
3.54168	5.09
3.55835	5.09
3.57502	5.09
3.59168	5.09
3.60835	5.09
3.62502	5.09
3.64168	5.09
3.65835	5.09
3.67502	5.09
3.69168	5.09
3.70835	5.09
3.72502	5.09
3.74168	5.09
3.75835	5.09
3.77502	5.09
3.79168	5.09
3.80835	5.09
3.82502	5.09
3.84168	5.09
3.85835	5.09
3.87502	5.09
3.89168	5.09
3.90835	5.09
3.92502	5.09
3.94168	5.09
3.95835	5.09
3.97502	5.08
3.99168	5.08

[Status Trace (Linear Velocity)]
Interval(msec)	1000
# of Points	240
Start Time(min)	0.008
End Time(min)	3.992
Intensity Units	
Intensity Multiplier	1
R.Time (min)	Intensity
0.00835	39.02
0.02502	37.26
0.04168	38.53
0.05835	39.90
0.07502	39.84
0.09168	39.04
0.10835	39.01
0.12502	39.02
0.14168	39.02
0.15835	39.02
0.17502	39.02
0.19168	39.02
0.20835	39.02
0.22502	39.02
0.24168	39.02
0.25835	39.02
0.27502	39.02
0.29168	39.02
0.30835	39.02
0.32502	39.02
0.34168	39.02
0.35835	39.02
0.37502	39.02
0.39168	39.02
0.40835	39.02
0.42502	39.02
0.44168	39.02
0.45835	39.02
0.47502	39.02
0.49168	39.02
0.50835	39.02
0.52502	39.02
0.54168	39.02
0.55835	39.02
0.57502	39.02
0.59168	39.02
0.60835	39.02
0.62502	39.02
0.64168	39.02
0.65835	39.02
0.67502	39.02
0.69168	39.02
0.70835	39.02
0.72502	39.02
0.74168	39.02
0.75835	39.02
0.77502	39.02
0.79168	39.02
0.80835	39.02
0.82502	39.02
0.84168	39.02
0.85835	39.02
0.87502	39.02
0.89168	39.02
0.90835	39.02
0.92502	39.02
0.94168	39.02
0.95835	39.02
0.97502	39.02
0.99168	39.02
1.00835	39.02
1.02502	39.02
1.04168	39.02
1.05835	39.02
1.07502	39.02
1.09168	39.02
1.10835	39.02
1.12502	39.02
1.14168	39.02
1.15835	39.02
1.17502	39.02
1.19168	39.02
1.20835	39.02
1.22502	39.02
1.24168	39.02
1.25835	39.02
1.27502	39.02
1.29168	39.02
1.30835	39.02
1.32502	39.02
1.34168	39.02
1.35835	39.02
1.37502	39.02
1.39168	39.02
1.40835	39.02
1.42502	39.02
1.44168	39.02
1.45835	39.02
1.47502	39.02
1.49168	39.02
1.50835	39.02
1.52502	39.02
1.54168	39.02
1.55835	39.02
1.57502	39.02
1.59168	39.02
1.60835	39.01
1.62502	39.00
1.64168	38.99
1.65835	38.96
1.67502	38.93
1.69168	38.89
1.70835	38.86
1.72502	38.82
1.74168	38.79
1.75835	38.77
1.77502	38.74
1.79168	38.70
1.80835	38.67
1.82502	38.64
1.84168	38.61
1.85835	38.58
1.87502	38.54
1.89168	38.51
1.90835	38.48
1.92502	38.45
1.94168	38.42
1.95835	38.39
1.97502	38.36
1.99168	38.33
2.00835	38.30
2.02502	38.27
2.04168	38.24
2.05835	38.21
2.07502	38.18
2.09168	38.15
2.10835	38.12
2.12502	38.09
2.14168	38.07
2.15835	38.03
2.17502	38.00
2.19168	37.97
2.20835	37.94
2.22502	37.92
2.24168	37.89
2.25835	37.86
2.27502	37.83
2.29168	37.80
2.30835	37.77
2.32502	37.74
2.34168	37.71
2.35835	37.68
2.37502	37.66
2.39168	37.66
2.40835	37.66
2.42502	37.66
2.44168	37.66
2.45835	37.66
2.47502	37.66
2.49168	37.66
2.50835	37.65
2.52502	37.65
2.54168	37.65
2.55835	37.65
2.57502	37.65
2.59168	37.65
2.60835	37.65
2.62502	37.65
2.64168	37.65
2.65835	37.65
2.67502	37.65
2.69168	37.65
2.70835	37.65
2.72502	37.65
2.74168	37.65
2.75835	37.65
2.77502	37.65
2.79168	37.65
2.80835	37.65
2.82502	37.65
2.84168	37.65
2.85835	37.64
2.87502	37.64
2.89168	37.64
2.90835	37.64
2.92502	37.64
2.94168	37.64
2.95835	37.64
2.97502	37.64
2.99168	37.64
3.00835	37.64
3.02502	37.64
3.04168	37.64
3.05835	37.64
3.07502	37.64
3.09168	37.64
3.10835	37.64
3.12502	37.64
3.14168	37.64
3.15835	37.64
3.17502	37.64
3.19168	37.64
3.20835	37.64
3.22502	37.63
3.24168	37.63
3.25835	37.63
3.27502	37.63
3.29168	37.63
3.30835	37.63
3.32502	37.63
3.34168	37.63
3.35835	37.63
3.37502	37.63
3.39168	37.63
3.40835	37.63
3.42502	37.63
3.44168	37.63
3.45835	37.63
3.47502	37.63
3.49168	37.63
3.50835	37.63
3.52502	37.63
3.54168	37.63
3.55835	37.63
3.57502	37.63
3.59168	37.63
3.60835	37.63
3.62502	37.63
3.64168	37.63
3.65835	37.63
3.67502	37.63
3.69168	37.63
3.70835	37.63
3.72502	37.63
3.74168	37.63
3.75835	37.63
3.77502	37.63
3.79168	37.63
3.80835	37.63
3.82502	37.63
3.84168	37.63
3.85835	37.63
3.87502	37.63
3.89168	37.63
3.90835	37.63
3.92502	37.63
3.94168	37.63
3.95835	37.63
3.97502	37.63
3.99168	37.62

