[Header]
Application Name	LabSolutions
Version	5.110
Data File Name	C:\Users\User\Desktop\Junior\UIC Prairie Sampling\5.18.23\05182023_051.gcd
Output Date	6/5/2023
Output Time	2:17:28 PM

[File Information]
Type	Data File
Generated	5/24/2023 5:45:29 PM
Generated by	System Administrator
Modified	5/24/2023 5:52:54 PM
Modified by	System Administrator

[Sample Information]
Operator Name	System Administrator
Acquired	5/24/2023 5:48:53 PM
Sample Type	0:Unknown
Level	0
Sample Name	051
Sample ID	051
ISTD Amount1	1
ISTD Amount2	1
ISTD Amount3	1
ISTD Amount4	1
ISTD Amount5	1
ISTD Amount6	1
ISTD Amount7	1
ISTD Amount8	1
ISTD Amount9	1
ISTD Amount10	1
ISTD Amount11	1
ISTD Amount12	1
ISTD Amount13	1
ISTD Amount14	1
ISTD Amount15	1
ISTD Amount16	1
ISTD Amount17	1
ISTD Amount18	1
ISTD Amount19	1
ISTD Amount20	1
ISTD Amount21	1
ISTD Amount22	1
ISTD Amount23	1
ISTD Amount24	1
ISTD Amount25	1
ISTD Amount26	1
ISTD Amount27	1
ISTD Amount28	1
ISTD Amount29	1
ISTD Amount30	1
ISTD Amount31	1
ISTD Amount32	1
Sample Amount	1
Dilution Factor	1
Vial#	50
Injection Volume	1
Injection Count	1
Bar Code	

[Original Files]
Data File	C:\Users\User\Desktop\Junior\UIC Prairie Sampling\5.18.23\05182023_051.gcd
Method File	C:\LabSolutions\Data\GHG_4min_2022\ghg3_togas_w_acet_4 min_new_int.gcm
Batch File	C:\LabSolutions\Data\AutoSamplerTesting\05182023.gcb
Report Format File	c:\LabSolutions\System\DEFAULT.lsr

[File Description]


[Configuration]
Instrument Name	C0B7VH3-Instrument1
Instrument #	1
Line #	1
# of Detectors	3
Detector ID	DET#1	DET#2	DET#3
Detector Name	FID	PTCD	ECD
# of Channels	1	1	1

[Peak Table(Ch1)]
# of Peaks	4
Peak#	R.Time	I.Time	F.Time	Area	Height	A/H	Conc.	Mark	ID#	Name	k'	Plate #	Plate Ht.	Tailing	Resolution	Sep.Factor	Area Ratio	Height Ratio	Conc. %	Norm Conc.
1	1.479	1.457	1.512	456	302	1.509	0.000	   	1	CO	0.000	16393	9.150	1.185	0.000	0.000	0	0	0.000	0.000
2	1.564	1.527	1.648	16670	8446	1.974	81.270	   	2	CH4	0.057	11484	13.062	1.148	1.613	0.000	0	0	18.830	18.830
3	1.989	1.941	2.466	1817790	866891	2.097	350.322	   	3	CO2	0.345	17265	8.688	1.306	7.153	6.043	0	0	81.170	81.170
4	3.188	2.803	3.701	2778	94	29.519	0.000	   	5	Acetylene	1.155	1189	126.110	1.163	5.573	3.353	0	0	0.000	0.000

[Peak Table(Ch2)]
# of Peaks	0

[Peak Table(Ch3)]
# of Peaks	5
Peak#	R.Time	I.Time	F.Time	Area	Height	A/H	Conc.	Mark	ID#	Name	k'	Plate #	Plate Ht.	Tailing	Resolution	Sep.Factor	Area Ratio	Height Ratio	Conc. %	Norm Conc.
1	2.458	2.440	2.510	661	291	2.272	0.000	   			0.000	20163	7.439	0.000	0.000	0.000	0	0	0.000	0.000
2	2.524	2.510	2.543	84	55	1.524	0.000	 V 			0.027	16844	8.905	0.000	0.898	0.000	0	0	0.000	0.000
3	2.605	2.543	2.682	2937	521	5.639	0.000	 V 			0.060	2844	52.748	0.000	0.591	2.222	0	0	0.000	0.000
4	2.730	2.682	2.825	2782	364	7.637	0.000	 V 			0.110	301	498.722	0.000	0.302	1.850	0	0	0.000	0.000
5	2.891	2.825	3.239	49976	12484	4.003	0.739	 V 	1	N2O	0.176	12737	11.777	1.577	0.441	1.595	0	0	100.000	100.000

[Compound Results(Ch1)]
# of IDs	6
ID#	Name	R.Time	Area	Height	Conc.	Curve	3rd	2nd	1st	Constant	Area Ratio	Height Ratio	Conc. %	Norm Conc.
1	CO	1.479	456	302	0.000	Linear	0.000000e+00	0.000000e+00	0.000000e+00	0.000000e+00	0	0	0.000	0.000
2	CH4	1.564	16670	8446	81.270	Linear	0.000000e+00	0.000000e+00	2.051179e+002	0.000000e+00	0	0	18.830	18.830
3	CO2	1.989	1817790	866891	350.322	Linear	0.000000e+00	0.000000e+00	5.188919e+003	0.000000e+00	0	0	81.170	81.170
4	Ethylene	0.000	0	0	0.000	Linear	0.000000e+00	0.000000e+00	0.000000e+00	0.000000e+00	0	0	0.000	0.000
5	Acetylene	3.188	2778	94	0.000	Linear	0.000000e+00	0.000000e+00	0.000000e+00	0.000000e+00	0	0	0.000	0.000
6	Ethane	0.000	0	0	0.000	Linear	0.000000e+00	0.000000e+00	0.000000e+00	0.000000e+00	0	0	0.000	0.000

[Compound Results(Ch2)]
# of IDs	5
ID#	Name	R.Time	Area	Height	Conc.	Curve	3rd	2nd	1st	Constant	Area Ratio	Height Ratio	Conc. %	Norm Conc.
1	Hydrogen	0.000	0	0	0.000	Linear	0.000000e+00	0.000000e+00	0.000000e+00	0.000000e+00	0	0	0.000	0.000
2	Oxygen	0.000	0	0	0.000	Linear	0.000000e+00	0.000000e+00	0.000000e+00	0.000000e+00	0	0	0.000	0.000
3	Nitrogen	0.000	0	0	0.000	Linear	0.000000e+00	0.000000e+00	0.000000e+00	0.000000e+00	0	0	0.000	0.000
4	Methane	0.000	0	0	0.000	Linear	0.000000e+00	0.000000e+00	0.000000e+00	0.000000e+00	0	0	0.000	0.000
5	Carbon Monoxide	0.000	0	0	0.000	Linear	0.000000e+00	0.000000e+00	0.000000e+00	0.000000e+00	0	0	0.000	0.000

[Compound Results(Ch3)]
# of IDs	2
ID#	Name	R.Time	Area	Height	Conc.	Curve	3rd	2nd	1st	Constant	Area Ratio	Height Ratio	Conc. %	Norm Conc.
1	N2O	2.891	49976	12484	0.739	Linear	0.000000e+00	0.000000e+00	6.759880e+004	0.000000e+00	0	0	100.000	100.000
2	SF6	0.000	0	0	0.000	Linear	0.000000e+00	0.000000e+00	0.000000e+00	0.000000e+00	0	0	0.000	0.000

[Group Results(Ch1)]
# of Groups	0

[Group Results(Ch2)]
# of Groups	0

[Group Results(Ch3)]
# of Groups	0

[Chromatogram (Ch1)]
Interval(msec)	220
# of Points	1091
Start Time(min)	0.002
End Time(min)	3.998
R.Time (min)	Intensity
0.00167	16
0.00533	23
0.00900	29
0.01267	33
0.01633	34
0.02000	34
0.02367	33
0.02733	32
0.03100	35
0.03467	37
0.03833	38
0.04200	39
0.04567	38
0.04933	36
0.05300	40
0.05667	47
0.06033	52
0.06400	52
0.06767	47
0.07133	43
0.07500	39
0.07867	35
0.08233	29
0.08600	23
0.08967	16
0.09333	10
0.09700	6
0.10067	6
0.10433	8
0.10800	11
0.11167	17
0.11533	23
0.11900	27
0.12267	30
0.12633	33
0.13000	34
0.13367	31
0.13733	24
0.14100	18
0.14467	18
0.14833	24
0.15200	34
0.15567	45
0.15933	51
0.16300	52
0.16667	47
0.17033	41
0.17400	32
0.17767	22
0.18133	17
0.18500	17
0.18867	19
0.19233	19
0.19600	16
0.19967	17
0.20333	23
0.20700	31
0.21067	35
0.21433	34
0.21800	34
0.22167	32
0.22533	34
0.22900	34
0.23267	29
0.23633	22
0.24000	15
0.24367	9
0.24733	10
0.25100	10
0.25467	10
0.25833	9
0.26200	7
0.26567	7
0.26933	10
0.27300	14
0.27667	19
0.28033	23
0.28400	26
0.28767	32
0.29133	41
0.29500	47
0.29867	48
0.30233	47
0.30600	41
0.30967	36
0.31333	36
0.31700	35
0.32067	30
0.32433	24
0.32800	21
0.33167	18
0.33533	17
0.33900	20
0.34267	27
0.34633	32
0.35000	32
0.35367	31
0.35733	29
0.36100	30
0.36467	30
0.36833	27
0.37200	25
0.37567	25
0.37933	26
0.38300	29
0.38667	32
0.39033	30
0.39400	24
0.39767	19
0.40133	15
0.40500	11
0.40867	8
0.41233	8
0.41600	9
0.41967	6
0.42333	2
0.42700	-0
0.43067	-2
0.43433	-4
0.43800	-7
0.44167	-7
0.44533	-4
0.44900	2
0.45267	4
0.45633	7
0.46000	8
0.46367	9
0.46733	13
0.47100	19
0.47467	25
0.47833	28
0.48200	26
0.48567	21
0.48933	19
0.49300	23
0.49667	31
0.50033	37
0.50400	42
0.50767	47
0.51133	48
0.51500	45
0.51867	40
0.52233	33
0.52600	25
0.52967	18
0.53333	14
0.53700	9
0.54067	3
0.54433	-1
0.54800	0
0.55167	4
0.55533	11
0.55900	19
0.56267	21
0.56633	17
0.57000	12
0.57367	5
0.57733	2
0.58100	5
0.58467	9
0.58833	10
0.59200	10
0.59567	6
0.59933	4
0.60300	4
0.60667	4
0.61033	6
0.61400	12
0.61767	20
0.62133	23
0.62500	23
0.62867	17
0.63233	12
0.63600	11
0.63967	12
0.64333	13
0.64700	14
0.65067	14
0.65433	15
0.65800	17
0.66167	20
0.66533	20
0.66900	16
0.67267	13
0.67633	12
0.68000	16
0.68367	19
0.68733	18
0.69100	16
0.69467	15
0.69833	13
0.70200	9
0.70567	8
0.70933	10
0.71300	14
0.71667	17
0.72033	17
0.72400	17
0.72767	18
0.73133	20
0.73500	20
0.73867	18
0.74233	14
0.74600	11
0.74967	7
0.75333	1
0.75700	-6
0.76067	-9
0.76433	-5
0.76800	3
0.77167	11
0.77533	15
0.77900	16
0.78267	15
0.78633	16
0.79000	16
0.79367	16
0.79733	13
0.80100	8
0.80467	7
0.80833	8
0.81200	8
0.81567	5
0.81933	3
0.82300	3
0.82667	6
0.83033	14
0.83400	24
0.83767	30
0.84133	32
0.84500	30
0.84867	28
0.85233	26
0.85600	24
0.85967	23
0.86333	23
0.86700	22
0.87067	18
0.87433	16
0.87800	16
0.88167	13
0.88533	11
0.88900	9
0.89267	10
0.89633	10
0.90000	6
0.90367	0
0.90733	-2
0.91100	-0
0.91467	5
0.91833	10
0.92200	9
0.92567	3
0.92933	-3
0.93300	-5
0.93667	-7
0.94033	-9
0.94400	-7
0.94767	-2
0.95133	7
0.95500	12
0.95867	11
0.96233	7
0.96600	3
0.96967	-1
0.97333	-2
0.97700	0
0.98067	3
0.98433	5
0.98800	3
0.99167	-1
0.99533	-4
0.99900	-6
1.00267	-6
1.00633	-4
1.01000	1
1.01367	6
1.01733	9
1.02100	12
1.02467	17
1.02833	20
1.03200	16
1.03567	7
1.03933	-0
1.04300	-5
1.04667	-12
1.05033	-16
1.05400	-17
1.05767	-15
1.06133	-11
1.06500	-5
1.06867	-2
1.07233	-3
1.07600	-4
1.07967	-1
1.08333	4
1.08700	6
1.09067	2
1.09433	-3
1.09800	-10
1.10167	-16
1.10533	-15
1.10900	-11
1.11267	-5
1.11633	-1
1.12000	-2
1.12367	-3
1.12733	-4
1.13100	-2
1.13467	2
1.13833	3
1.14200	1
1.14567	-5
1.14933	-13
1.15300	-17
1.15667	-18
1.16033	-21
1.16400	-22
1.16767	-23
1.17133	-21
1.17500	-18
1.17867	-15
1.18233	-10
1.18600	-2
1.18967	6
1.19333	8
1.19700	5
1.20067	-1
1.20433	-5
1.20800	-12
1.21167	-24
1.21533	-32
1.21900	-34
1.22267	-31
1.22633	-25
1.23000	-14
1.23367	-4
1.23733	2
1.24100	5
1.24467	7
1.24833	8
1.25200	6
1.25567	1
1.25933	-7
1.26300	-14
1.26667	-19
1.27033	-19
1.27400	-12
1.27767	-5
1.28133	-1
1.28500	-2
1.28867	-6
1.29233	-10
1.29600	-16
1.29967	-26
1.30333	-31
1.30700	-30
1.31067	-26
1.31433	-21
1.31800	-17
1.32167	-14
1.32533	-13
1.32900	-12
1.33267	-11
1.33633	-11
1.34000	-14
1.34367	-16
1.34733	-20
1.35100	-26
1.35467	-32
1.35833	-37
1.36200	-37
1.36567	-34
1.36933	-31
1.37300	-30
1.37667	-30
1.38033	-30
1.38400	-30
1.38767	-30
1.39133	-27
1.39500	-23
1.39867	-22
1.40233	-21
1.40600	-22
1.40967	-24
1.41333	-23
1.41700	-19
1.42067	-9
1.42433	-5
1.42800	-6
1.43167	-7
1.43533	2
1.43900	30
1.44267	41
1.44633	9
1.45000	-26
1.45367	-34
1.45733	-15
1.46100	22
1.46467	76
1.46833	143
1.47200	212
1.47567	267
1.47933	289
1.48300	271
1.48667	224
1.49033	165
1.49400	110
1.49767	64
1.50133	32
1.50500	13
1.50867	-1
1.51233	-11
1.51600	-18
1.51967	-24
1.52333	-25
1.52700	-21
1.53067	13
1.53433	179
1.53800	701
1.54167	1776
1.54533	3312
1.54900	4974
1.55267	6447
1.55633	7575
1.56000	8267
1.56367	8415
1.56733	7934
1.57100	6890
1.57467	5533
1.57833	4158
1.58200	2969
1.58567	2042
1.58933	1364
1.59300	886
1.59667	559
1.60033	343
1.60400	206
1.60767	125
1.61133	76
1.61500	45
1.61867	20
1.62233	0
1.62600	-13
1.62967	-23
1.63333	-32
1.63700	-38
1.64067	-43
1.64433	-49
1.64800	-52
1.65167	-48
1.65533	-41
1.65900	-36
1.66267	-35
1.66633	-40
1.67000	-50
1.67367	-62
1.67733	-71
1.68100	-78
1.68467	-81
1.68833	-82
1.69200	-82
1.69567	-79
1.69933	-73
1.70300	-67
1.70667	-62
1.71033	-57
1.71400	-55
1.71767	-54
1.72133	-53
1.72500	-53
1.72867	-54
1.73233	-57
1.73600	-59
1.73967	-58
1.74333	-58
1.74700	-59
1.75067	-58
1.75433	-57
1.75800	-55
1.76167	-52
1.76533	-48
1.76900	-49
1.77267	-55
1.77633	-61
1.78000	-65
1.78367	-67
1.78733	-67
1.79100	-66
1.79467	-62
1.79833	-54
1.80200	-45
1.80567	-37
1.80933	-29
1.81300	-24
1.81667	-20
1.82033	-22
1.82400	-29
1.82767	-33
1.83133	-37
1.83500	-46
1.83867	-57
1.84233	-64
1.84600	-68
1.84967	-65
1.85333	-61
1.85700	-57
1.86067	-53
1.86433	-46
1.86800	-38
1.87167	-32
1.87533	-30
1.87900	-29
1.88267	-29
1.88633	-32
1.89000	-38
1.89367	-43
1.89733	-47
1.90100	-47
1.90467	-45
1.90833	-42
1.91200	-40
1.91567	-40
1.91933	-39
1.92300	-36
1.92667	-34
1.93033	-33
1.93400	-33
1.93767	-31
1.94133	-28
1.94500	-13
1.94867	114
1.95233	880
1.95600	4475
1.95967	17212
1.96333	51667
1.96700	123743
1.97067	241664
1.97433	395788
1.97800	560995
1.98167	708612
1.98533	815596
1.98900	866899
1.99267	856051
1.99633	787964
2.00000	678476
2.00367	549665
2.00733	422605
2.01100	311671
2.01467	223047
2.01833	156647
2.02200	109098
2.02567	76062
2.02933	53536
2.03300	38319
2.03667	28058
2.04033	21106
2.04400	16351
2.04767	13052
2.05133	10711
2.05500	9004
2.05867	7723
2.06233	6733
2.06600	5952
2.06967	5326
2.07333	4817
2.07700	4393
2.08067	4033
2.08433	3726
2.08800	3462
2.09167	3231
2.09533	3028
2.09900	2846
2.10267	2682
2.10633	2534
2.11000	2398
2.11367	2273
2.11733	2163
2.12100	2067
2.12467	1976
2.12833	1888
2.13200	1803
2.13567	1725
2.13933	1651
2.14300	1582
2.14667	1520
2.15033	1460
2.15400	1403
2.15767	1351
2.16133	1308
2.16500	1270
2.16867	1233
2.17233	1198
2.17600	1164
2.17967	1129
2.18333	1092
2.18700	1056
2.19067	1022
2.19433	991
2.19800	965
2.20167	944
2.20533	925
2.20900	904
2.21267	883
2.21633	858
2.22000	832
2.22367	811
2.22733	796
2.23100	781
2.23467	772
2.23833	765
2.24200	754
2.24567	743
2.24933	728
2.25300	710
2.25667	691
2.26033	668
2.26400	645
2.26767	628
2.27133	618
2.27500	611
2.27867	605
2.28233	600
2.28600	593
2.28967	581
2.29333	568
2.29700	558
2.30067	548
2.30433	538
2.30800	529
2.31167	522
2.31533	521
2.31900	520
2.32267	517
2.32633	510
2.33000	501
2.33367	494
2.33733	489
2.34100	486
2.34467	481
2.34833	476
2.35200	473
2.35567	472
2.35933	468
2.36300	460
2.36667	449
2.37033	442
2.37400	440
2.37767	444
2.38133	450
2.38500	452
2.38867	450
2.39233	450
2.39600	448
2.39967	435
2.40333	417
2.40700	401
2.41067	390
2.41433	384
2.41800	387
2.42167	391
2.42533	398
2.42900	407
2.43267	414
2.43633	415
2.44000	410
2.44367	402
2.44733	395
2.45100	391
2.45467	388
2.45833	383
2.46200	376
2.46567	371
2.46933	367
2.47300	366
2.47667	370
2.48033	378
2.48400	378
2.48767	372
2.49133	370
2.49500	371
2.49867	373
2.50233	375
2.50600	374
2.50967	371
2.51333	370
2.51700	371
2.52067	374
2.52433	378
2.52800	379
2.53167	374
2.53533	366
2.53900	358
2.54267	351
2.54633	347
2.55000	343
2.55367	340
2.55733	336
2.56100	338
2.56467	343
2.56833	349
2.57200	354
2.57567	355
2.57933	353
2.58300	347
2.58667	342
2.59033	345
2.59400	352
2.59767	353
2.60133	350
2.60500	345
2.60867	342
2.61233	342
2.61600	344
2.61967	346
2.62333	349
2.62700	349
2.63067	346
2.63433	342
2.63800	343
2.64167	350
2.64533	353
2.64900	356
2.65267	362
2.65633	370
2.66000	378
2.66367	387
2.66733	393
2.67100	393
2.67467	388
2.67833	382
2.68200	373
2.68567	362
2.68933	353
2.69300	351
2.69667	353
2.70033	358
2.70400	362
2.70767	367
2.71133	368
2.71500	369
2.71867	373
2.72233	378
2.72600	383
2.72967	388
2.73333	393
2.73700	396
2.74067	396
2.74433	391
2.74800	383
2.75167	376
2.75533	373
2.75900	377
2.76267	384
2.76633	392
2.77000	397
2.77367	398
2.77733	394
2.78100	389
2.78467	385
2.78833	379
2.79200	374
2.79567	375
2.79933	379
2.80300	384
2.80667	389
2.81033	392
2.81400	395
2.81767	396
2.82133	401
2.82500	406
2.82867	410
2.83233	413
2.83600	414
2.83967	415
2.84333	416
2.84700	417
2.85067	417
2.85433	417
2.85800	415
2.86167	411
2.86533	409
2.86900	410
2.87267	408
2.87633	403
2.88000	402
2.88367	406
2.88733	412
2.89100	417
2.89467	419
2.89833	421
2.90200	421
2.90567	419
2.90933	419
2.91300	424
2.91667	430
2.92033	433
2.92400	431
2.92767	429
2.93133	428
2.93500	425
2.93867	424
2.94233	427
2.94600	436
2.94967	447
2.95333	451
2.95700	448
2.96067	443
2.96433	438
2.96800	436
2.97167	433
2.97533	428
2.97900	425
2.98267	427
2.98633	435
2.99000	444
2.99367	447
2.99733	449
3.00100	451
3.00467	453
3.00833	458
3.01200	463
3.01567	466
3.01933	467
3.02300	466
3.02667	462
3.03033	453
3.03400	443
3.03767	434
3.04133	429
3.04500	430
3.04867	433
3.05233	436
3.05600	440
3.05967	446
3.06333	454
3.06700	459
3.07067	460
3.07433	462
3.07800	467
3.08167	474
3.08533	471
3.08900	459
3.09267	450
3.09633	446
3.10000	445
3.10367	447
3.10733	449
3.11100	446
3.11467	441
3.11833	437
3.12200	434
3.12567	433
3.12933	435
3.13300	440
3.13667	447
3.14033	452
3.14400	452
3.14767	450
3.15133	451
3.15500	450
3.15867	448
3.16233	449
3.16600	453
3.16967	459
3.17333	466
3.17700	473
3.18067	479
3.18433	482
3.18800	483
3.19167	480
3.19533	473
3.19900	464
3.20267	456
3.20633	455
3.21000	453
3.21367	453
3.21733	456
3.22100	458
3.22467	458
3.22833	459
3.23200	459
3.23567	456
3.23933	454
3.24300	453
3.24667	453
3.25033	456
3.25400	460
3.25767	464
3.26133	464
3.26500	461
3.26867	459
3.27233	460
3.27600	463
3.27967	464
3.28333	462
3.28700	460
3.29067	459
3.29433	459
3.29800	457
3.30167	451
3.30533	447
3.30900	448
3.31267	452
3.31633	457
3.32000	464
3.32367	470
3.32733	472
3.33100	474
3.33467	473
3.33833	467
3.34200	457
3.34567	447
3.34933	437
3.35300	430
3.35667	430
3.36033	434
3.36400	442
3.36767	451
3.37133	459
3.37500	463
3.37867	464
3.38233	464
3.38600	463
3.38967	463
3.39333	465
3.39700	469
3.40067	473
3.40433	473
3.40800	466
3.41167	454
3.41533	444
3.41900	437
3.42267	436
3.42633	443
3.43000	452
3.43367	460
3.43733	464
3.44100	462
3.44467	453
3.44833	444
3.45200	441
3.45567	445
3.45933	451
3.46300	456
3.46667	460
3.47033	461
3.47400	464
3.47767	466
3.48133	465
3.48500	461
3.48867	455
3.49233	445
3.49600	432
3.49967	422
3.50333	420
3.50700	426
3.51067	436
3.51433	447
3.51800	452
3.52167	451
3.52533	447
3.52900	445
3.53267	442
3.53633	436
3.54000	426
3.54367	416
3.54733	410
3.55100	409
3.55467	415
3.55833	423
3.56200	431
3.56567	435
3.56933	435
3.57300	434
3.57667	433
3.58033	431
3.58400	429
3.58767	430
3.59133	429
3.59500	426
3.59867	424
3.60233	427
3.60600	434
3.60967	437
3.61333	434
3.61700	427
3.62067	423
3.62433	424
3.62800	428
3.63167	433
3.63533	435
3.63900	433
3.64267	427
3.64633	421
3.65000	420
3.65367	419
3.65733	420
3.66100	421
3.66467	422
3.66833	420
3.67200	417
3.67567	415
3.67933	415
3.68300	417
3.68667	414
3.69033	407
3.69400	400
3.69767	396
3.70133	395
3.70500	396
3.70867	396
3.71233	396
3.71600	394
3.71967	393
3.72333	395
3.72700	399
3.73067	406
3.73433	414
3.73800	419
3.74167	416
3.74533	407
3.74900	397
3.75267	390
3.75633	390
3.76000	391
3.76367	395
3.76733	398
3.77100	399
3.77467	399
3.77833	399
3.78200	397
3.78567	395
3.78933	389
3.79300	381
3.79667	375
3.80033	373
3.80400	372
3.80767	373
3.81133	372
3.81500	368
3.81867	363
3.82233	357
3.82600	353
3.82967	353
3.83333	357
3.83700	366
3.84067	377
3.84433	385
3.84800	391
3.85167	393
3.85533	394
3.85900	392
3.86267	386
3.86633	383
3.87000	385
3.87367	389
3.87733	392
3.88100	394
3.88467	397
3.88833	399
3.89200	397
3.89567	394
3.89933	392
3.90300	391
3.90667	389
3.91033	385
3.91400	382
3.91767	379
3.92133	371
3.92500	363
3.92867	363
3.93233	368
3.93600	376
3.93967	381
3.94333	382
3.94700	378
3.95067	368
3.95433	359
3.95800	351
3.96167	348
3.96533	352
3.96900	362
3.97267	370
3.97633	373
3.98000	374
3.98367	371
3.98733	365
3.99100	361
3.99467	361
3.99833	359

[Chromatogram (Ch2)]
Interval(msec)	220
# of Points	1091
Start Time(min)	0.002
End Time(min)	3.998
R.Time (min)	Intensity
0.00167	1
0.00533	2
0.00900	2
0.01267	2
0.01633	2
0.02000	3
0.02367	3
0.02733	3
0.03100	3
0.03467	3
0.03833	3
0.04200	3
0.04567	3
0.04933	3
0.05300	2
0.05667	2
0.06033	2
0.06400	2
0.06767	2
0.07133	2
0.07500	2
0.07867	2
0.08233	2
0.08600	2
0.08967	2
0.09333	2
0.09700	2
0.10067	2
0.10433	2
0.10800	2
0.11167	3
0.11533	3
0.11900	3
0.12267	3
0.12633	3
0.13000	3
0.13367	3
0.13733	3
0.14100	3
0.14467	3
0.14833	3
0.15200	3
0.15567	4
0.15933	3
0.16300	3
0.16667	3
0.17033	3
0.17400	3
0.17767	3
0.18133	2
0.18500	2
0.18867	2
0.19233	1
0.19600	1
0.19967	1
0.20333	1
0.20700	1
0.21067	1
0.21433	2
0.21800	2
0.22167	2
0.22533	2
0.22900	1
0.23267	1
0.23633	1
0.24000	1
0.24367	1
0.24733	1
0.25100	1
0.25467	1
0.25833	1
0.26200	1
0.26567	0
0.26933	0
0.27300	-0
0.27667	-0
0.28033	-0
0.28400	-0
0.28767	-0
0.29133	-0
0.29500	-0
0.29867	-0
0.30233	-0
0.30600	-0
0.30967	-0
0.31333	-1
0.31700	-1
0.32067	-1
0.32433	-1
0.32800	-1
0.33167	-1
0.33533	-1
0.33900	-1
0.34267	-1
0.34633	-1
0.35000	-1
0.35367	-1
0.35733	-1
0.36100	-2
0.36467	-2
0.36833	-1
0.37200	-1
0.37567	-1
0.37933	-1
0.38300	-1
0.38667	-0
0.39033	-0
0.39400	-1
0.39767	-1
0.40133	-1
0.40500	-1
0.40867	-1
0.41233	-2
0.41600	-2
0.41967	-2
0.42333	-2
0.42700	-2
0.43067	-2
0.43433	-2
0.43800	-1
0.44167	-1
0.44533	-1
0.44900	-1
0.45267	-0
0.45633	-0
0.46000	-0
0.46367	-0
0.46733	-0
0.47100	-1
0.47467	-1
0.47833	-1
0.48200	-2
0.48567	-2
0.48933	-2
0.49300	-3
0.49667	-3
0.50033	-3
0.50400	-3
0.50767	-3
0.51133	-3
0.51500	-3
0.51867	-3
0.52233	-2
0.52600	-2
0.52967	-2
0.53333	-2
0.53700	-1
0.54067	-1
0.54433	-1
0.54800	-1
0.55167	-1
0.55533	-1
0.55900	-1
0.56267	-1
0.56633	-1
0.57000	-1
0.57367	-1
0.57733	-2
0.58100	-2
0.58467	-1
0.58833	-1
0.59200	-1
0.59567	-0
0.59933	0
0.60300	0
0.60667	0
0.61033	0
0.61400	-0
0.61767	-0
0.62133	-1
0.62500	-1
0.62867	-1
0.63233	-1
0.63600	-1
0.63967	-1
0.64333	-1
0.64700	-1
0.65067	-1
0.65433	-1
0.65800	-1
0.66167	-1
0.66533	-1
0.66900	-1
0.67267	-1
0.67633	-1
0.68000	-1
0.68367	-1
0.68733	-0
0.69100	-0
0.69467	-0
0.69833	-1
0.70200	-1
0.70567	-0
0.70933	-0
0.71300	-0
0.71667	-0
0.72033	-1
0.72400	-1
0.72767	-1
0.73133	-1
0.73500	-2
0.73867	-2
0.74233	-2
0.74600	-2
0.74967	-2
0.75333	-2
0.75700	-2
0.76067	-2
0.76433	-3
0.76800	-3
0.77167	-3
0.77533	-3
0.77900	-3
0.78267	-3
0.78633	-3
0.79000	-3
0.79367	-3
0.79733	-3
0.80100	-3
0.80467	-3
0.80833	-3
0.81200	-3
0.81567	-3
0.81933	-3
0.82300	-3
0.82667	-3
0.83033	-3
0.83400	-2
0.83767	-2
0.84133	-2
0.84500	-2
0.84867	-2
0.85233	-1
0.85600	-1
0.85967	-1
0.86333	-2
0.86700	-2
0.87067	-2
0.87433	-2
0.87800	-2
0.88167	-2
0.88533	-1
0.88900	-1
0.89267	-1
0.89633	-1
0.90000	-1
0.90367	-1
0.90733	-1
0.91100	-1
0.91467	-1
0.91833	-1
0.92200	-1
0.92567	-1
0.92933	-1
0.93300	-0
0.93667	-0
0.94033	-0
0.94400	-0
0.94767	0
0.95133	0
0.95500	1
0.95867	1
0.96233	1
0.96600	1
0.96967	1
0.97333	1
0.97700	1
0.98067	1
0.98433	1
0.98800	1
0.99167	1
0.99533	1
0.99900	0
1.00267	-0
1.00633	-0
1.01000	-0
1.01367	-0
1.01733	0
1.02100	0
1.02467	0
1.02833	0
1.03200	0
1.03567	0
1.03933	0
1.04300	0
1.04667	0
1.05033	0
1.05400	-0
1.05767	-0
1.06133	-0
1.06500	-0
1.06867	-1
1.07233	-1
1.07600	-1
1.07967	-2
1.08333	-2
1.08700	-2
1.09067	-2
1.09433	-3
1.09800	-3
1.10167	-2
1.10533	-2
1.10900	-2
1.11267	-2
1.11633	-3
1.12000	-3
1.12367	-3
1.12733	-3
1.13100	-3
1.13467	-3
1.13833	-3
1.14200	-3
1.14567	-3
1.14933	-4
1.15300	-4
1.15667	-4
1.16033	-4
1.16400	-3
1.16767	-3
1.17133	-3
1.17500	-3
1.17867	-2
1.18233	-2
1.18600	-2
1.18967	-2
1.19333	-2
1.19700	-2
1.20067	-2
1.20433	-2
1.20800	-2
1.21167	-2
1.21533	-2
1.21900	-2
1.22267	-2
1.22633	-2
1.23000	-2
1.23367	-2
1.23733	-3
1.24100	-3
1.24467	-3
1.24833	-3
1.25200	-3
1.25567	-3
1.25933	-3
1.26300	-3
1.26667	-3
1.27033	-3
1.27400	-3
1.27767	-3
1.28133	-3
1.28500	-3
1.28867	-3
1.29233	-3
1.29600	-2
1.29967	-2
1.30333	-2
1.30700	-2
1.31067	-3
1.31433	-3
1.31800	-3
1.32167	-3
1.32533	-3
1.32900	-3
1.33267	-3
1.33633	-3
1.34000	-3
1.34367	-3
1.34733	-3
1.35100	-2
1.35467	-2
1.35833	-2
1.36200	-2
1.36567	-2
1.36933	-2
1.37300	-2
1.37667	-1
1.38033	-1
1.38400	-1
1.38767	-0
1.39133	-0
1.39500	0
1.39867	0
1.40233	-0
1.40600	-0
1.40967	-0
1.41333	-1
1.41700	-1
1.42067	-2
1.42433	-2
1.42800	-3
1.43167	-3
1.43533	-3
1.43900	-3
1.44267	-3
1.44633	-3
1.45000	-3
1.45367	-3
1.45733	-3
1.46100	-3
1.46467	-3
1.46833	-3
1.47200	-2
1.47567	-2
1.47933	-2
1.48300	-2
1.48667	-2
1.49033	-2
1.49400	-2
1.49767	-2
1.50133	-2
1.50500	-2
1.50867	-2
1.51233	-2
1.51600	-2
1.51967	-2
1.52333	-2
1.52700	-2
1.53067	-2
1.53433	-3
1.53800	-3
1.54167	-3
1.54533	-3
1.54900	-3
1.55267	-3
1.55633	-3
1.56000	-3
1.56367	-3
1.56733	-3
1.57100	-3
1.57467	-2
1.57833	-2
1.58200	-2
1.58567	-2
1.58933	-3
1.59300	-3
1.59667	-4
1.60033	-5
1.60400	-6
1.60767	-7
1.61133	-9
1.61500	-10
1.61867	-13
1.62233	-15
1.62600	-18
1.62967	-21
1.63333	-24
1.63700	-27
1.64067	-30
1.64433	-34
1.64800	-37
1.65167	-41
1.65533	-44
1.65900	-48
1.66267	-52
1.66633	-57
1.67000	-61
1.67367	-65
1.67733	-70
1.68100	-74
1.68467	-79
1.68833	-83
1.69200	-86
1.69567	-89
1.69933	-92
1.70300	-94
1.70667	-96
1.71033	-97
1.71400	-99
1.71767	-99
1.72133	-99
1.72500	-100
1.72867	-100
1.73233	-100
1.73600	-100
1.73967	-100
1.74333	-100
1.74700	-100
1.75067	-101
1.75433	-102
1.75800	-103
1.76167	-104
1.76533	-104
1.76900	-105
1.77267	-105
1.77633	-104
1.78000	-104
1.78367	-104
1.78733	-104
1.79100	-104
1.79467	-104
1.79833	-104
1.80200	-105
1.80567	-106
1.80933	-106
1.81300	-106
1.81667	-107
1.82033	-107
1.82400	-107
1.82767	-107
1.83133	-106
1.83500	-106
1.83867	-105
1.84233	-105
1.84600	-104
1.84967	-103
1.85333	-103
1.85700	-103
1.86067	-103
1.86433	-104
1.86800	-104
1.87167	-104
1.87533	-104
1.87900	-104
1.88267	-103
1.88633	-104
1.89000	-104
1.89367	-105
1.89733	-105
1.90100	-105
1.90467	-106
1.90833	-106
1.91200	-106
1.91567	-106
1.91933	-105
1.92300	-105
1.92667	-104
1.93033	-103
1.93400	-103
1.93767	-102
1.94133	-102
1.94500	-102
1.94867	-102
1.95233	-103
1.95600	-103
1.95967	-104
1.96333	-104
1.96700	-103
1.97067	-102
1.97433	-102
1.97800	-101
1.98167	-101
1.98533	-101
1.98900	-100
1.99267	-100
1.99633	-100
2.00000	-100
2.00367	-99
2.00733	-99
2.01100	-98
2.01467	-97
2.01833	-97
2.02200	-96
2.02567	-96
2.02933	-95
2.03300	-96
2.03667	-96
2.04033	-95
2.04400	-95
2.04767	-95
2.05133	-95
2.05500	-94
2.05867	-94
2.06233	-94
2.06600	-94
2.06967	-93
2.07333	-93
2.07700	-92
2.08067	-91
2.08433	-90
2.08800	-90
2.09167	-90
2.09533	-90
2.09900	-89
2.10267	-89
2.10633	-89
2.11000	-89
2.11367	-89
2.11733	-90
2.12100	-90
2.12467	-90
2.12833	-90
2.13200	-90
2.13567	-89
2.13933	-88
2.14300	-87
2.14667	-86
2.15033	-86
2.15400	-85
2.15767	-85
2.16133	-85
2.16500	-85
2.16867	-85
2.17233	-85
2.17600	-85
2.17967	-84
2.18333	-84
2.18700	-84
2.19067	-83
2.19433	-83
2.19800	-83
2.20167	-83
2.20533	-83
2.20900	-82
2.21267	-82
2.21633	-82
2.22000	-81
2.22367	-81
2.22733	-80
2.23100	-80
2.23467	-80
2.23833	-80
2.24200	-79
2.24567	-79
2.24933	-80
2.25300	-81
2.25667	-82
2.26033	-82
2.26400	-83
2.26767	-83
2.27133	-82
2.27500	-81
2.27867	-80
2.28233	-79
2.28600	-78
2.28967	-77
2.29333	-76
2.29700	-76
2.30067	-76
2.30433	-76
2.30800	-76
2.31167	-76
2.31533	-76
2.31900	-76
2.32267	-76
2.32633	-76
2.33000	-76
2.33367	-77
2.33733	-77
2.34100	-76
2.34467	-75
2.34833	-74
2.35200	-72
2.35567	-71
2.35933	-68
2.36300	-66
2.36667	-63
2.37033	-60
2.37400	-57
2.37767	-53
2.38133	-50
2.38500	-45
2.38867	-41
2.39233	-37
2.39600	-33
2.39967	-29
2.40333	-25
2.40700	-21
2.41067	-18
2.41433	-15
2.41800	-12
2.42167	-10
2.42533	-8
2.42900	-7
2.43267	-5
2.43633	-3
2.44000	-2
2.44367	-0
2.44733	1
2.45100	3
2.45467	4
2.45833	5
2.46200	6
2.46567	7
2.46933	8
2.47300	9
2.47667	10
2.48033	11
2.48400	12
2.48767	13
2.49133	13
2.49500	13
2.49867	13
2.50233	13
2.50600	12
2.50967	12
2.51333	11
2.51700	11
2.52067	10
2.52433	10
2.52800	9
2.53167	9
2.53533	9
2.53900	8
2.54267	8
2.54633	8
2.55000	9
2.55367	9
2.55733	10
2.56100	10
2.56467	11
2.56833	11
2.57200	11
2.57567	12
2.57933	12
2.58300	13
2.58667	14
2.59033	16
2.59400	17
2.59767	17
2.60133	18
2.60500	18
2.60867	19
2.61233	19
2.61600	18
2.61967	18
2.62333	19
2.62700	19
2.63067	19
2.63433	19
2.63800	19
2.64167	19
2.64533	19
2.64900	19
2.65267	19
2.65633	20
2.66000	20
2.66367	21
2.66733	21
2.67100	22
2.67467	22
2.67833	22
2.68200	23
2.68567	23
2.68933	22
2.69300	22
2.69667	22
2.70033	22
2.70400	23
2.70767	22
2.71133	22
2.71500	22
2.71867	22
2.72233	22
2.72600	23
2.72967	23
2.73333	24
2.73700	24
2.74067	25
2.74433	25
2.74800	26
2.75167	26
2.75533	26
2.75900	27
2.76267	27
2.76633	28
2.77000	28
2.77367	29
2.77733	29
2.78100	29
2.78467	30
2.78833	29
2.79200	29
2.79567	29
2.79933	28
2.80300	28
2.80667	27
2.81033	27
2.81400	27
2.81767	26
2.82133	26
2.82500	26
2.82867	26
2.83233	26
2.83600	27
2.83967	27
2.84333	27
2.84700	28
2.85067	28
2.85433	28
2.85800	28
2.86167	27
2.86533	24
2.86900	20
2.87267	13
2.87633	2
2.88000	-13
2.88367	-33
2.88733	-59
2.89100	-90
2.89467	-128
2.89833	-172
2.90200	-221
2.90567	-277
2.90933	-337
2.91300	-403
2.91667	-473
2.92033	-547
2.92400	-625
2.92767	-705
2.93133	-788
2.93500	-873
2.93867	-960
2.94233	-1048
2.94600	-1137
2.94967	-1228
2.95333	-1319
2.95700	-1402
2.96067	-1463
2.96433	-1492
2.96800	-1486
2.97167	-1446
2.97533	-1378
2.97900	-1290
2.98267	-1189
2.98633	-1082
2.99000	-974
2.99367	-869
2.99733	-769
3.00100	-676
3.00467	-592
3.00833	-515
3.01200	-446
3.01567	-386
3.01933	-332
3.02300	-285
3.02667	-244
3.03033	-208
3.03400	-177
3.03767	-150
3.04133	-128
3.04500	-108
3.04867	-91
3.05233	-77
3.05600	-64
3.05967	-53
3.06333	-44
3.06700	-36
3.07067	-29
3.07433	-23
3.07800	-18
3.08167	-14
3.08533	-10
3.08900	-7
3.09267	-4
3.09633	-2
3.10000	-0
3.10367	1
3.10733	3
3.11100	4
3.11467	6
3.11833	7
3.12200	8
3.12567	8
3.12933	9
3.13300	10
3.13667	11
3.14033	12
3.14400	13
3.14767	13
3.15133	14
3.15500	15
3.15867	15
3.16233	16
3.16600	16
3.16967	16
3.17333	17
3.17700	17
3.18067	17
3.18433	17
3.18800	17
3.19167	18
3.19533	18
3.19900	19
3.20267	19
3.20633	20
3.21000	20
3.21367	21
3.21733	21
3.22100	21
3.22467	22
3.22833	22
3.23200	22
3.23567	22
3.23933	23
3.24300	23
3.24667	23
3.25033	23
3.25400	23
3.25767	23
3.26133	23
3.26500	23
3.26867	23
3.27233	23
3.27600	23
3.27967	23
3.28333	23
3.28700	23
3.29067	23
3.29433	23
3.29800	23
3.30167	23
3.30533	23
3.30900	23
3.31267	23
3.31633	24
3.32000	24
3.32367	24
3.32733	25
3.33100	25
3.33467	25
3.33833	25
3.34200	25
3.34567	25
3.34933	25
3.35300	25
3.35667	25
3.36033	25
3.36400	25
3.36767	26
3.37133	26
3.37500	26
3.37867	27
3.38233	27
3.38600	28
3.38967	28
3.39333	28
3.39700	28
3.40067	29
3.40433	29
3.40800	29
3.41167	29
3.41533	29
3.41900	29
3.42267	29
3.42633	29
3.43000	29
3.43367	29
3.43733	29
3.44100	29
3.44467	29
3.44833	29
3.45200	29
3.45567	29
3.45933	29
3.46300	29
3.46667	29
3.47033	29
3.47400	29
3.47767	29
3.48133	29
3.48500	29
3.48867	29
3.49233	29
3.49600	29
3.49967	29
3.50333	29
3.50700	29
3.51067	29
3.51433	29
3.51800	29
3.52167	29
3.52533	29
3.52900	28
3.53267	28
3.53633	28
3.54000	27
3.54367	27
3.54733	27
3.55100	27
3.55467	28
3.55833	28
3.56200	28
3.56567	28
3.56933	28
3.57300	27
3.57667	27
3.58033	27
3.58400	27
3.58767	28
3.59133	28
3.59500	28
3.59867	28
3.60233	28
3.60600	28
3.60967	28
3.61333	29
3.61700	29
3.62067	29
3.62433	29
3.62800	29
3.63167	29
3.63533	29
3.63900	29
3.64267	29
3.64633	29
3.65000	29
3.65367	29
3.65733	29
3.66100	29
3.66467	28
3.66833	28
3.67200	28
3.67567	28
3.67933	28
3.68300	28
3.68667	28
3.69033	28
3.69400	28
3.69767	28
3.70133	27
3.70500	27
3.70867	27
3.71233	27
3.71600	27
3.71967	27
3.72333	28
3.72700	28
3.73067	28
3.73433	28
3.73800	28
3.74167	28
3.74533	28
3.74900	28
3.75267	28
3.75633	28
3.76000	28
3.76367	28
3.76733	28
3.77100	28
3.77467	28
3.77833	28
3.78200	27
3.78567	27
3.78933	27
3.79300	27
3.79667	27
3.80033	27
3.80400	28
3.80767	28
3.81133	28
3.81500	27
3.81867	27
3.82233	27
3.82600	27
3.82967	27
3.83333	27
3.83700	27
3.84067	27
3.84433	27
3.84800	27
3.85167	27
3.85533	27
3.85900	27
3.86267	27
3.86633	27
3.87000	27
3.87367	27
3.87733	27
3.88100	27
3.88467	27
3.88833	28
3.89200	28
3.89567	28
3.89933	28
3.90300	28
3.90667	28
3.91033	28
3.91400	28
3.91767	28
3.92133	28
3.92500	28
3.92867	28
3.93233	27
3.93600	27
3.93967	27
3.94333	27
3.94700	27
3.95067	27
3.95433	27
3.95800	27
3.96167	27
3.96533	27
3.96900	27
3.97267	27
3.97633	27
3.98000	27
3.98367	27
3.98733	27
3.99100	27
3.99467	27
3.99833	27

[Chromatogram (Ch3)]
Interval(msec)	220
# of Points	1091
Start Time(min)	0.002
End Time(min)	3.998
R.Time (min)	Intensity
0.00167	-1
0.00533	0
0.00900	2
0.01267	1
0.01633	0
0.02000	-1
0.02367	-1
0.02733	1
0.03100	1
0.03467	2
0.03833	1
0.04200	-1
0.04567	-2
0.04933	-2
0.05300	-1
0.05667	-1
0.06033	-0
0.06400	-0
0.06767	-2
0.07133	-2
0.07500	-2
0.07867	-1
0.08233	1
0.08600	2
0.08967	1
0.09333	-1
0.09700	-1
0.10067	-2
0.10433	-3
0.10800	-3
0.11167	-2
0.11533	-0
0.11900	0
0.12267	0
0.12633	1
0.13000	2
0.13367	4
0.13733	5
0.14100	4
0.14467	3
0.14833	4
0.15200	6
0.15567	9
0.15933	7
0.16300	3
0.16667	1
0.17033	2
0.17400	3
0.17767	4
0.18133	5
0.18500	6
0.18867	6
0.19233	6
0.19600	5
0.19967	4
0.20333	4
0.20700	2
0.21067	2
0.21433	3
0.21800	5
0.22167	5
0.22533	5
0.22900	5
0.23267	6
0.23633	6
0.24000	7
0.24367	7
0.24733	8
0.25100	9
0.25467	11
0.25833	12
0.26200	11
0.26567	11
0.26933	10
0.27300	9
0.27667	8
0.28033	8
0.28400	6
0.28767	5
0.29133	6
0.29500	7
0.29867	7
0.30233	8
0.30600	8
0.30967	9
0.31333	11
0.31700	11
0.32067	8
0.32433	5
0.32800	4
0.33167	4
0.33533	7
0.33900	11
0.34267	12
0.34633	12
0.35000	11
0.35367	11
0.35733	10
0.36100	9
0.36467	9
0.36833	10
0.37200	10
0.37567	10
0.37933	10
0.38300	10
0.38667	10
0.39033	11
0.39400	11
0.39767	11
0.40133	10
0.40500	10
0.40867	12
0.41233	13
0.41600	13
0.41967	13
0.42333	11
0.42700	9
0.43067	8
0.43433	10
0.43800	12
0.44167	11
0.44533	11
0.44900	11
0.45267	11
0.45633	10
0.46000	9
0.46367	7
0.46733	6
0.47100	8
0.47467	9
0.47833	9
0.48200	8
0.48567	8
0.48933	8
0.49300	9
0.49667	8
0.50033	7
0.50400	7
0.50767	7
0.51133	6
0.51500	5
0.51867	6
0.52233	7
0.52600	4
0.52967	2
0.53333	2
0.53700	3
0.54067	5
0.54433	8
0.54800	9
0.55167	10
0.55533	9
0.55900	10
0.56267	11
0.56633	11
0.57000	14
0.57367	17
0.57733	18
0.58100	17
0.58467	15
0.58833	13
0.59200	12
0.59567	11
0.59933	10
0.60300	10
0.60667	9
0.61033	9
0.61400	11
0.61767	13
0.62133	13
0.62500	13
0.62867	13
0.63233	13
0.63600	13
0.63967	13
0.64333	14
0.64700	15
0.65067	17
0.65433	17
0.65800	17
0.66167	18
0.66533	20
0.66900	21
0.67267	18
0.67633	16
0.68000	14
0.68367	14
0.68733	14
0.69100	16
0.69467	17
0.69833	16
0.70200	16
0.70567	14
0.70933	13
0.71300	13
0.71667	14
0.72033	15
0.72400	17
0.72767	18
0.73133	20
0.73500	19
0.73867	19
0.74233	18
0.74600	18
0.74967	18
0.75333	18
0.75700	17
0.76067	18
0.76433	16
0.76800	16
0.77167	18
0.77533	19
0.77900	20
0.78267	21
0.78633	21
0.79000	22
0.79367	22
0.79733	20
0.80100	16
0.80467	13
0.80833	13
0.81200	16
0.81567	19
0.81933	19
0.82300	20
0.82667	20
0.83033	21
0.83400	24
0.83767	23
0.84133	24
0.84500	24
0.84867	23
0.85233	23
0.85600	22
0.85967	22
0.86333	21
0.86700	22
0.87067	23
0.87433	24
0.87800	25
0.88167	24
0.88533	24
0.88900	23
0.89267	23
0.89633	22
0.90000	20
0.90367	18
0.90733	15
0.91100	15
0.91467	16
0.91833	16
0.92200	19
0.92567	21
0.92933	22
0.93300	22
0.93667	23
0.94033	25
0.94400	26
0.94767	25
0.95133	23
0.95500	22
0.95867	21
0.96233	22
0.96600	23
0.96967	24
0.97333	22
0.97700	22
0.98067	23
0.98433	19
0.98800	15
0.99167	16
0.99533	18
0.99900	19
1.00267	20
1.00633	23
1.01000	25
1.01367	25
1.01733	24
1.02100	23
1.02467	21
1.02833	20
1.03200	20
1.03567	20
1.03933	18
1.04300	18
1.04667	18
1.05033	18
1.05400	20
1.05767	22
1.06133	23
1.06500	22
1.06867	24
1.07233	26
1.07600	25
1.07967	25
1.08333	24
1.08700	24
1.09067	24
1.09433	22
1.09800	22
1.10167	22
1.10533	24
1.10900	23
1.11267	23
1.11633	23
1.12000	24
1.12367	25
1.12733	28
1.13100	30
1.13467	28
1.13833	27
1.14200	26
1.14567	24
1.14933	25
1.15300	23
1.15667	22
1.16033	24
1.16400	24
1.16767	24
1.17133	22
1.17500	22
1.17867	22
1.18233	22
1.18600	22
1.18967	21
1.19333	22
1.19700	19
1.20067	17
1.20433	17
1.20800	18
1.21167	18
1.21533	17
1.21900	19
1.22267	23
1.22633	25
1.23000	27
1.23367	27
1.23733	27
1.24100	26
1.24467	25
1.24833	23
1.25200	24
1.25567	27
1.25933	29
1.26300	29
1.26667	27
1.27033	26
1.27400	26
1.27767	25
1.28133	26
1.28500	29
1.28867	29
1.29233	29
1.29600	28
1.29967	28
1.30333	28
1.30700	27
1.31067	26
1.31433	26
1.31800	28
1.32167	27
1.32533	27
1.32900	26
1.33267	26
1.33633	27
1.34000	28
1.34367	28
1.34733	29
1.35100	30
1.35467	29
1.35833	29
1.36200	29
1.36567	28
1.36933	27
1.37300	27
1.37667	28
1.38033	28
1.38400	26
1.38767	24
1.39133	26
1.39500	26
1.39867	27
1.40233	28
1.40600	28
1.40967	28
1.41333	28
1.41700	28
1.42067	28
1.42433	28
1.42800	28
1.43167	27
1.43533	27
1.43900	27
1.44267	28
1.44633	29
1.45000	29
1.45367	28
1.45733	27
1.46100	27
1.46467	25
1.46833	23
1.47200	23
1.47567	26
1.47933	27
1.48300	27
1.48667	27
1.49033	29
1.49400	29
1.49767	28
1.50133	27
1.50500	25
1.50867	24
1.51233	24
1.51600	23
1.51967	22
1.52333	25
1.52700	24
1.53067	22
1.53433	20
1.53800	18
1.54167	18
1.54533	19
1.54900	21
1.55267	23
1.55633	23
1.56000	23
1.56367	24
1.56733	24
1.57100	24
1.57467	25
1.57833	26
1.58200	24
1.58567	22
1.58933	20
1.59300	22
1.59667	23
1.60033	25
1.60400	27
1.60767	27
1.61133	28
1.61500	28
1.61867	28
1.62233	29
1.62600	29
1.62967	30
1.63333	31
1.63700	31
1.64067	30
1.64433	29
1.64800	28
1.65167	28
1.65533	30
1.65900	32
1.66267	33
1.66633	35
1.67000	37
1.67367	41
1.67733	42
1.68100	41
1.68467	40
1.68833	40
1.69200	42
1.69567	42
1.69933	42
1.70300	41
1.70667	39
1.71033	38
1.71400	37
1.71767	37
1.72133	38
1.72500	40
1.72867	41
1.73233	43
1.73600	43
1.73967	43
1.74333	44
1.74700	47
1.75067	49
1.75433	49
1.75800	51
1.76167	50
1.76533	50
1.76900	48
1.77267	48
1.77633	49
1.78000	49
1.78367	48
1.78733	48
1.79100	49
1.79467	50
1.79833	52
1.80200	52
1.80567	52
1.80933	52
1.81300	51
1.81667	51
1.82033	53
1.82400	54
1.82767	54
1.83133	54
1.83500	55
1.83867	57
1.84233	58
1.84600	58
1.84967	60
1.85333	61
1.85700	61
1.86067	61
1.86433	61
1.86800	61
1.87167	61
1.87533	62
1.87900	62
1.88267	61
1.88633	59
1.89000	60
1.89367	61
1.89733	62
1.90100	64
1.90467	66
1.90833	68
1.91200	68
1.91567	69
1.91933	69
1.92300	68
1.92667	68
1.93033	69
1.93400	71
1.93767	72
1.94133	73
1.94500	74
1.94867	76
1.95233	78
1.95600	80
1.95967	79
1.96333	80
1.96700	81
1.97067	81
1.97433	81
1.97800	81
1.98167	80
1.98533	79
1.98900	79
1.99267	83
1.99633	85
2.00000	85
2.00367	86
2.00733	85
2.01100	85
2.01467	86
2.01833	88
2.02200	89
2.02567	91
2.02933	93
2.03300	94
2.03667	94
2.04033	95
2.04400	94
2.04767	96
2.05133	97
2.05500	99
2.05867	101
2.06233	102
2.06600	105
2.06967	105
2.07333	103
2.07700	103
2.08067	104
2.08433	104
2.08800	106
2.09167	106
2.09533	109
2.09900	110
2.10267	109
2.10633	107
2.11000	106
2.11367	107
2.11733	111
2.12100	114
2.12467	115
2.12833	115
2.13200	115
2.13567	116
2.13933	118
2.14300	119
2.14667	120
2.15033	119
2.15400	119
2.15767	122
2.16133	123
2.16500	123
2.16867	121
2.17233	121
2.17600	121
2.17967	122
2.18333	125
2.18700	126
2.19067	125
2.19433	123
2.19800	123
2.20167	123
2.20533	123
2.20900	122
2.21267	123
2.21633	125
2.22000	126
2.22367	129
2.22733	131
2.23100	132
2.23467	131
2.23833	130
2.24200	130
2.24567	131
2.24933	133
2.25300	135
2.25667	138
2.26033	140
2.26400	140
2.26767	137
2.27133	134
2.27500	132
2.27867	132
2.28233	131
2.28600	131
2.28967	133
2.29333	136
2.29700	137
2.30067	139
2.30433	140
2.30800	141
2.31167	142
2.31533	141
2.31900	139
2.32267	138
2.32633	141
2.33000	144
2.33367	145
2.33733	144
2.34100	143
2.34467	143
2.34833	144
2.35200	145
2.35567	146
2.35933	146
2.36300	144
2.36667	144
2.37033	144
2.37400	144
2.37767	143
2.38133	143
2.38500	145
2.38867	145
2.39233	143
2.39600	142
2.39967	141
2.40333	142
2.40700	144
2.41067	147
2.41433	148
2.41800	147
2.42167	148
2.42533	148
2.42900	147
2.43267	145
2.43633	144
2.44000	150
2.44367	192
2.44733	276
2.45100	358
2.45467	421
2.45833	451
2.46200	445
2.46567	423
2.46933	403
2.47300	389
2.47667	376
2.48033	360
2.48400	337
2.48767	312
2.49133	287
2.49500	265
2.49867	249
2.50233	236
2.50600	231
2.50967	230
2.51333	233
2.51700	241
2.52067	247
2.52433	249
2.52800	247
2.53167	240
2.53533	230
2.53900	221
2.54267	221
2.54633	233
2.55000	256
2.55367	284
2.55733	315
2.56100	350
2.56467	389
2.56833	433
2.57200	481
2.57567	529
2.57933	573
2.58300	617
2.58667	658
2.59033	692
2.59400	720
2.59767	740
2.60133	751
2.60500	756
2.60867	755
2.61233	749
2.61600	739
2.61967	725
2.62333	711
2.62700	697
2.63067	685
2.63433	675
2.63800	664
2.64167	655
2.64533	646
2.64900	637
2.65267	629
2.65633	620
2.66000	614
2.66367	610
2.66733	607
2.67100	606
2.67467	607
2.67833	609
2.68200	611
2.68567	614
2.68933	619
2.69300	624
2.69667	631
2.70033	637
2.70400	641
2.70767	644
2.71133	649
2.71500	653
2.71867	655
2.72233	659
2.72600	661
2.72967	664
2.73333	665
2.73700	665
2.74067	667
2.74433	666
2.74800	667
2.75167	668
2.75533	667
2.75900	666
2.76267	661
2.76633	657
2.77000	651
2.77367	645
2.77733	638
2.78100	630
2.78467	623
2.78833	619
2.79200	617
2.79567	615
2.79933	611
2.80300	605
2.80667	598
2.81033	593
2.81400	590
2.81767	587
2.82133	585
2.82500	584
2.82867	586
2.83233	597
2.83600	631
2.83967	713
2.84333	877
2.84700	1178
2.85067	1674
2.85433	2410
2.85800	3407
2.86167	4647
2.86533	6072
2.86900	7588
2.87267	9085
2.87633	10447
2.88000	11564
2.88367	12359
2.88733	12791
2.89100	12867
2.89467	12631
2.89833	12136
2.90200	11456
2.90567	10661
2.90933	9806
2.91300	8937
2.91667	8087
2.92033	7279
2.92400	6525
2.92767	5837
2.93133	5212
2.93500	4647
2.93867	4141
2.94233	3692
2.94600	3294
2.94967	2944
2.95333	2636
2.95700	2366
2.96067	2131
2.96433	1927
2.96800	1747
2.97167	1588
2.97533	1451
2.97900	1335
2.98267	1235
2.98633	1148
2.99000	1074
2.99367	1008
2.99733	951
3.00100	900
3.00467	855
3.00833	820
3.01200	788
3.01567	762
3.01933	738
3.02300	717
3.02667	700
3.03033	685
3.03400	675
3.03767	665
3.04133	656
3.04500	649
3.04867	643
3.05233	636
3.05600	630
3.05967	625
3.06333	622
3.06700	621
3.07067	620
3.07433	619
3.07800	617
3.08167	613
3.08533	611
3.08900	610
3.09267	609
3.09633	608
3.10000	607
3.10367	604
3.10733	605
3.11100	605
3.11467	604
3.11833	602
3.12200	601
3.12567	600
3.12933	599
3.13300	599
3.13667	599
3.14033	599
3.14400	600
3.14767	597
3.15133	595
3.15500	594
3.15867	593
3.16233	592
3.16600	591
3.16967	588
3.17333	587
3.17700	586
3.18067	586
3.18433	584
3.18800	581
3.19167	579
3.19533	579
3.19900	579
3.20267	578
3.20633	577
3.21000	577
3.21367	574
3.21733	574
3.22100	574
3.22467	574
3.22833	571
3.23200	569
3.23567	565
3.23933	562
3.24300	560
3.24667	559
3.25033	559
3.25400	558
3.25767	557
3.26133	558
3.26500	559
3.26867	558
3.27233	557
3.27600	555
3.27967	551
3.28333	548
3.28700	546
3.29067	543
3.29433	543
3.29800	542
3.30167	538
3.30533	537
3.30900	537
3.31267	539
3.31633	541
3.32000	540
3.32367	539
3.32733	536
3.33100	534
3.33467	532
3.33833	529
3.34200	529
3.34567	527
3.34933	525
3.35300	523
3.35667	521
3.36033	518
3.36400	515
3.36767	514
3.37133	512
3.37500	509
3.37867	507
3.38233	505
3.38600	504
3.38967	503
3.39333	503
3.39700	502
3.40067	500
3.40433	499
3.40800	495
3.41167	490
3.41533	487
3.41900	486
3.42267	487
3.42633	485
3.43000	484
3.43367	483
3.43733	482
3.44100	478
3.44467	474
3.44833	474
3.45200	475
3.45567	475
3.45933	472
3.46300	469
3.46667	468
3.47033	465
3.47400	462
3.47767	462
3.48133	461
3.48500	459
3.48867	457
3.49233	454
3.49600	450
3.49967	448
3.50333	448
3.50700	450
3.51067	452
3.51433	452
3.51800	450
3.52167	448
3.52533	445
3.52900	443
3.53267	440
3.53633	439
3.54000	437
3.54367	435
3.54733	435
3.55100	433
3.55467	431
3.55833	428
3.56200	426
3.56567	425
3.56933	426
3.57300	426
3.57667	426
3.58033	425
3.58400	423
3.58767	421
3.59133	418
3.59500	415
3.59867	412
3.60233	410
3.60600	409
3.60967	409
3.61333	407
3.61700	406
3.62067	406
3.62433	406
3.62800	406
3.63167	405
3.63533	403
3.63900	401
3.64267	400
3.64633	400
3.65000	400
3.65367	398
3.65733	398
3.66100	398
3.66467	396
3.66833	395
3.67200	391
3.67567	389
3.67933	389
3.68300	390
3.68667	391
3.69033	389
3.69400	388
3.69767	390
3.70133	391
3.70500	392
3.70867	391
3.71233	387
3.71600	383
3.71967	381
3.72333	379
3.72700	377
3.73067	375
3.73433	374
3.73800	376
3.74167	377
3.74533	377
3.74900	379
3.75267	380
3.75633	380
3.76000	380
3.76367	379
3.76733	377
3.77100	375
3.77467	375
3.77833	375
3.78200	375
3.78567	373
3.78933	372
3.79300	370
3.79667	369
3.80033	368
3.80400	367
3.80767	367
3.81133	367
3.81500	366
3.81867	366
3.82233	365
3.82600	364
3.82967	367
3.83333	370
3.83700	368
3.84067	365
3.84433	361
3.84800	358
3.85167	354
3.85533	352
3.85900	351
3.86267	351
3.86633	352
3.87000	350
3.87367	350
3.87733	351
3.88100	353
3.88467	355
3.88833	356
3.89200	355
3.89567	351
3.89933	348
3.90300	346
3.90667	346
3.91033	342
3.91400	340
3.91767	341
3.92133	342
3.92500	340
3.92867	339
3.93233	338
3.93600	339
3.93967	340
3.94333	339
3.94700	338
3.95067	335
3.95433	333
3.95800	332
3.96167	330
3.96533	330
3.96900	330
3.97267	331
3.97633	332
3.98000	330
3.98367	329
3.98733	326
3.99100	324
3.99467	321
3.99833	317

[Status Trace (Column Oven Temperature)]
Interval(msec)	1000
# of Points	240
Start Time(min)	0.010
End Time(min)	3.993
Intensity Units	
Intensity Multiplier	1
R.Time (min)	Intensity
0.00982	35.07
0.02648	35.05
0.04315	35.05
0.05982	35.05
0.07648	35.04
0.09315	35.03
0.10982	35.02
0.12648	35.02
0.14315	35.01
0.15982	35.00
0.17648	35.00
0.19315	34.99
0.20982	34.99
0.22648	34.99
0.24315	34.99
0.25982	34.98
0.27648	34.98
0.29315	34.98
0.30982	34.98
0.32648	34.98
0.34315	34.98
0.35982	34.99
0.37648	35.00
0.39315	35.00
0.40982	35.00
0.42648	35.00
0.44315	35.00
0.45982	35.00
0.47648	34.99
0.49315	35.01
0.50982	35.01
0.52648	35.01
0.54315	35.01
0.55982	35.00
0.57648	35.01
0.59315	35.00
0.60982	34.99
0.62648	34.99
0.64315	34.98
0.65982	34.99
0.67648	34.98
0.69315	34.98
0.70982	34.98
0.72648	34.98
0.74315	34.99
0.75982	34.99
0.77648	35.01
0.79315	35.02
0.80982	35.02
0.82648	35.03
0.84315	35.02
0.85982	35.02
0.87648	35.03
0.89315	35.03
0.90982	35.03
0.92648	35.02
0.94315	35.02
0.95982	35.01
0.97648	35.00
0.99315	34.99
1.00982	34.99
1.02648	34.98
1.04315	34.97
1.05982	34.97
1.07648	34.97
1.09315	34.98
1.10982	34.98
1.12648	34.99
1.14315	34.99
1.15982	35.00
1.17648	34.99
1.19315	35.00
1.20982	35.00
1.22648	35.00
1.24315	35.00
1.25982	35.00
1.27648	35.00
1.29315	35.00
1.30982	34.99
1.32648	34.98
1.34315	34.99
1.35982	34.99
1.37648	34.99
1.39315	34.99
1.40982	34.99
1.42648	35.00
1.44315	35.00
1.45982	35.00
1.47648	34.99
1.49315	34.98
1.50982	34.98
1.52648	34.99
1.54315	34.99
1.55982	34.99
1.57648	34.99
1.59315	35.01
1.60982	35.07
1.62648	35.19
1.64315	35.38
1.65982	35.64
1.67648	35.99
1.69315	36.36
1.70982	36.72
1.72648	37.04
1.74315	37.37
1.75982	37.72
1.77648	38.03
1.79315	38.37
1.80982	38.71
1.82648	39.04
1.84315	39.35
1.85982	39.67
1.87648	39.99
1.89315	40.34
1.90982	40.67
1.92648	40.99
1.94315	41.32
1.95982	41.66
1.97648	41.98
1.99315	42.30
2.00982	42.62
2.02648	42.95
2.04315	43.27
2.05982	43.60
2.07648	43.91
2.09315	44.23
2.10982	44.57
2.12648	44.89
2.14315	45.20
2.15982	45.53
2.17648	45.86
2.19315	46.19
2.20982	46.52
2.22648	46.85
2.24315	47.17
2.25982	47.54
2.27648	47.86
2.29315	48.18
2.30982	48.51
2.32648	48.89
2.34315	49.21
2.35982	49.45
2.37648	49.57
2.39315	49.60
2.40982	49.59
2.42648	49.61
2.44315	49.61
2.45982	49.63
2.47648	49.63
2.49315	49.65
2.50982	49.67
2.52648	49.69
2.54315	49.71
2.55982	49.74
2.57648	49.77
2.59315	49.77
2.60982	49.78
2.62648	49.79
2.64315	49.82
2.65982	49.82
2.67648	49.82
2.69315	49.84
2.70982	49.86
2.72648	49.87
2.74315	49.86
2.75982	49.86
2.77648	49.84
2.79315	49.85
2.80982	49.87
2.82648	49.87
2.84315	49.87
2.85982	49.87
2.87648	49.87
2.89315	49.87
2.90982	49.87
2.92648	49.87
2.94315	49.88
2.95982	49.89
2.97648	49.91
2.99315	49.91
3.00982	49.93
3.02648	49.95
3.04315	49.97
3.05982	49.98
3.07648	49.98
3.09315	49.99
3.10982	50.00
3.12648	50.02
3.14315	50.03
3.15982	50.03
3.17648	50.03
3.19315	50.05
3.20982	50.05
3.22648	50.05
3.24315	50.05
3.25982	50.06
3.27648	50.07
3.29315	50.08
3.30982	50.09
3.32648	50.10
3.34315	50.11
3.35982	50.10
3.37648	50.09
3.39315	50.08
3.40982	50.07
3.42648	50.06
3.44315	50.06
3.45982	50.06
3.47648	50.06
3.49315	50.04
3.50982	50.04
3.52648	50.05
3.54315	50.06
3.55982	50.06
3.57648	50.06
3.59315	50.06
3.60982	50.06
3.62648	50.06
3.64315	50.06
3.65982	50.06
3.67648	50.06
3.69315	50.06
3.70982	50.07
3.72648	50.07
3.74315	50.06
3.75982	50.07
3.77648	50.07
3.79315	50.07
3.80982	50.07
3.82648	50.07
3.84315	50.08
3.85982	50.07
3.87648	50.07
3.89315	50.06
3.90982	50.06
3.92648	50.06
3.94315	50.07
3.95982	50.07
3.97648	50.08
3.99315	50.08

[Status Trace (Injection Unit Temperature)]
Interval(msec)	1000
# of Points	240
Start Time(min)	0.010
End Time(min)	3.993
Intensity Units	
Intensity Multiplier	1
R.Time (min)	Intensity
0.00982	99.98
0.02648	99.98
0.04315	99.98
0.05982	99.99
0.07648	99.98
0.09315	99.98
0.10982	99.99
0.12648	99.98
0.14315	99.99
0.15982	99.99
0.17648	99.99
0.19315	99.98
0.20982	99.99
0.22648	99.99
0.24315	99.99
0.25982	99.99
0.27648	99.99
0.29315	99.98
0.30982	99.99
0.32648	99.99
0.34315	99.99
0.35982	99.99
0.37648	99.99
0.39315	99.99
0.40982	99.99
0.42648	99.99
0.44315	99.99
0.45982	99.99
0.47648	99.98
0.49315	99.99
0.50982	99.99
0.52648	99.99
0.54315	99.98
0.55982	99.99
0.57648	99.99
0.59315	99.99
0.60982	99.98
0.62648	99.99
0.64315	99.99
0.65982	99.99
0.67648	99.99
0.69315	99.99
0.70982	99.99
0.72648	99.99
0.74315	99.99
0.75982	99.99
0.77648	99.99
0.79315	99.99
0.80982	99.99
0.82648	99.99
0.84315	99.99
0.85982	99.99
0.87648	99.99
0.89315	99.99
0.90982	99.99
0.92648	99.99
0.94315	99.99
0.95982	99.99
0.97648	99.99
0.99315	99.99
1.00982	99.99
1.02648	99.99
1.04315	99.99
1.05982	99.99
1.07648	99.99
1.09315	99.99
1.10982	99.99
1.12648	99.99
1.14315	99.99
1.15982	99.99
1.17648	99.99
1.19315	99.99
1.20982	99.99
1.22648	99.99
1.24315	99.99
1.25982	99.99
1.27648	100.00
1.29315	99.99
1.30982	99.99
1.32648	99.99
1.34315	99.99
1.35982	99.99
1.37648	99.99
1.39315	99.99
1.40982	99.99
1.42648	99.99
1.44315	99.99
1.45982	99.99
1.47648	99.99
1.49315	99.99
1.50982	99.99
1.52648	99.99
1.54315	99.99
1.55982	99.99
1.57648	99.99
1.59315	99.99
1.60982	99.99
1.62648	99.99
1.64315	99.99
1.65982	99.99
1.67648	99.99
1.69315	99.99
1.70982	100.00
1.72648	99.99
1.74315	99.99
1.75982	99.99
1.77648	99.99
1.79315	99.99
1.80982	99.99
1.82648	99.98
1.84315	99.98
1.85982	99.98
1.87648	99.98
1.89315	99.98
1.90982	99.98
1.92648	99.98
1.94315	99.98
1.95982	99.98
1.97648	99.98
1.99315	99.98
2.00982	99.98
2.02648	99.97
2.04315	99.98
2.05982	99.97
2.07648	99.97
2.09315	99.97
2.10982	99.98
2.12648	99.97
2.14315	99.97
2.15982	99.97
2.17648	99.97
2.19315	99.97
2.20982	99.97
2.22648	99.97
2.24315	99.98
2.25982	99.97
2.27648	99.97
2.29315	99.97
2.30982	99.97
2.32648	99.97
2.34315	99.97
2.35982	99.97
2.37648	99.97
2.39315	99.97
2.40982	99.97
2.42648	99.97
2.44315	99.97
2.45982	99.97
2.47648	99.97
2.49315	99.97
2.50982	99.97
2.52648	99.96
2.54315	99.97
2.55982	99.97
2.57648	99.97
2.59315	99.97
2.60982	99.97
2.62648	99.97
2.64315	99.98
2.65982	99.97
2.67648	99.97
2.69315	99.97
2.70982	99.98
2.72648	99.98
2.74315	99.98
2.75982	99.98
2.77648	99.98
2.79315	99.98
2.80982	99.98
2.82648	99.99
2.84315	99.99
2.85982	99.99
2.87648	99.99
2.89315	99.99
2.90982	99.99
2.92648	100.00
2.94315	100.00
2.95982	100.00
2.97648	100.01
2.99315	100.01
3.00982	100.01
3.02648	100.01
3.04315	100.01
3.05982	100.01
3.07648	100.01
3.09315	100.01
3.10982	100.02
3.12648	100.02
3.14315	100.02
3.15982	100.02
3.17648	100.03
3.19315	100.03
3.20982	100.03
3.22648	100.03
3.24315	100.03
3.25982	100.03
3.27648	100.03
3.29315	100.04
3.30982	100.04
3.32648	100.04
3.34315	100.04
3.35982	100.04
3.37648	100.04
3.39315	100.05
3.40982	100.04
3.42648	100.05
3.44315	100.05
3.45982	100.05
3.47648	100.04
3.49315	100.05
3.50982	100.05
3.52648	100.05
3.54315	100.05
3.55982	100.05
3.57648	100.05
3.59315	100.05
3.60982	100.05
3.62648	100.05
3.64315	100.06
3.65982	100.06
3.67648	100.06
3.69315	100.05
3.70982	100.06
3.72648	100.06
3.74315	100.06
3.75982	100.06
3.77648	100.06
3.79315	100.06
3.80982	100.06
3.82648	100.06
3.84315	100.06
3.85982	100.06
3.87648	100.06
3.89315	100.06
3.90982	100.06
3.92648	100.06
3.94315	100.06
3.95982	100.06
3.97648	100.06
3.99315	100.06

[Status Trace (Carrier Gas Pressure)]
Interval(msec)	1000
# of Points	240
Start Time(min)	0.010
End Time(min)	3.993
Intensity Units	
Intensity Multiplier	1
R.Time (min)	Intensity
0.00982	58.00
0.02648	55.15
0.04315	57.47
0.05982	59.52
0.07648	59.06
0.09315	58.01
0.10982	57.99
0.12648	58.01
0.14315	58.01
0.15982	58.00
0.17648	58.00
0.19315	58.00
0.20982	58.00
0.22648	58.00
0.24315	58.00
0.25982	58.00
0.27648	58.00
0.29315	58.00
0.30982	58.00
0.32648	58.00
0.34315	58.00
0.35982	58.00
0.37648	58.00
0.39315	58.00
0.40982	58.00
0.42648	58.00
0.44315	58.00
0.45982	58.00
0.47648	58.00
0.49315	58.00
0.50982	58.00
0.52648	58.00
0.54315	58.00
0.55982	58.00
0.57648	58.00
0.59315	58.00
0.60982	58.00
0.62648	58.00
0.64315	58.00
0.65982	58.00
0.67648	58.00
0.69315	58.00
0.70982	58.00
0.72648	58.00
0.74315	58.00
0.75982	58.00
0.77648	58.00
0.79315	58.00
0.80982	58.00
0.82648	58.00
0.84315	58.00
0.85982	58.00
0.87648	58.00
0.89315	58.00
0.90982	58.00
0.92648	58.00
0.94315	58.00
0.95982	58.00
0.97648	58.00
0.99315	58.00
1.00982	58.00
1.02648	58.00
1.04315	58.00
1.05982	58.00
1.07648	58.00
1.09315	58.00
1.10982	58.00
1.12648	58.00
1.14315	58.00
1.15982	58.00
1.17648	58.00
1.19315	58.00
1.20982	58.00
1.22648	58.00
1.24315	58.00
1.25982	58.00
1.27648	58.00
1.29315	58.00
1.30982	58.00
1.32648	58.00
1.34315	58.00
1.35982	58.00
1.37648	58.00
1.39315	58.00
1.40982	58.00
1.42648	58.00
1.44315	58.00
1.45982	58.00
1.47648	58.00
1.49315	58.00
1.50982	58.00
1.52648	58.00
1.54315	58.00
1.55982	58.00
1.57648	58.00
1.59315	58.00
1.60982	58.00
1.62648	58.00
1.64315	58.00
1.65982	58.01
1.67648	58.01
1.69315	58.00
1.70982	58.00
1.72648	58.00
1.74315	58.00
1.75982	58.00
1.77648	58.00
1.79315	58.00
1.80982	58.00
1.82648	58.00
1.84315	58.00
1.85982	58.00
1.87648	58.00
1.89315	58.00
1.90982	58.00
1.92648	58.00
1.94315	58.00
1.95982	58.00
1.97648	58.00
1.99315	58.00
2.00982	58.00
2.02648	58.00
2.04315	58.00
2.05982	58.00
2.07648	58.00
2.09315	58.00
2.10982	58.00
2.12648	58.00
2.14315	58.00
2.15982	58.00
2.17648	58.00
2.19315	58.00
2.20982	58.00
2.22648	58.00
2.24315	58.00
2.25982	58.00
2.27648	58.00
2.29315	58.00
2.30982	58.00
2.32648	58.00
2.34315	58.00
2.35982	58.00
2.37648	57.99
2.39315	57.99
2.40982	58.00
2.42648	58.00
2.44315	58.00
2.45982	58.00
2.47648	58.00
2.49315	58.00
2.50982	58.00
2.52648	57.98
2.54315	58.00
2.55982	58.00
2.57648	58.00
2.59315	58.00
2.60982	58.00
2.62648	58.00
2.64315	58.00
2.65982	58.00
2.67648	58.00
2.69315	58.00
2.70982	58.00
2.72648	58.00
2.74315	58.00
2.75982	58.00
2.77648	58.00
2.79315	58.00
2.80982	58.00
2.82648	58.00
2.84315	58.00
2.85982	58.00
2.87648	58.00
2.89315	58.00
2.90982	58.00
2.92648	58.00
2.94315	58.00
2.95982	58.00
2.97648	58.00
2.99315	58.00
3.00982	58.00
3.02648	58.00
3.04315	58.00
3.05982	58.00
3.07648	58.00
3.09315	58.00
3.10982	58.00
3.12648	58.00
3.14315	58.00
3.15982	58.00
3.17648	58.00
3.19315	58.00
3.20982	58.00
3.22648	58.00
3.24315	58.00
3.25982	58.00
3.27648	58.00
3.29315	58.00
3.30982	58.00
3.32648	58.00
3.34315	58.00
3.35982	58.00
3.37648	58.00
3.39315	58.00
3.40982	58.00
3.42648	58.00
3.44315	58.00
3.45982	58.00
3.47648	58.00
3.49315	58.00
3.50982	58.00
3.52648	58.00
3.54315	58.00
3.55982	58.00
3.57648	58.00
3.59315	58.00
3.60982	58.00
3.62648	58.00
3.64315	58.00
3.65982	58.00
3.67648	58.00
3.69315	58.00
3.70982	58.00
3.72648	58.00
3.74315	58.00
3.75982	58.00
3.77648	58.00
3.79315	58.00
3.80982	58.00
3.82648	58.00
3.84315	58.00
3.85982	58.00
3.87648	58.00
3.89315	58.00
3.90982	58.00
3.92648	58.00
3.94315	58.00
3.95982	58.00
3.97648	58.00
3.99315	58.00

[Status Trace (Carrier Gas Flow)]
Interval(msec)	1000
# of Points	240
Start Time(min)	0.010
End Time(min)	3.993
Intensity Units	
Intensity Multiplier	1
R.Time (min)	Intensity
0.00982	34.52
0.02648	34.53
0.04315	34.55
0.05982	34.54
0.07648	34.51
0.09315	34.51
0.10982	34.52
0.12648	34.52
0.14315	34.51
0.15982	34.52
0.17648	34.52
0.19315	34.52
0.20982	34.52
0.22648	34.52
0.24315	34.52
0.25982	34.52
0.27648	34.52
0.29315	34.52
0.30982	34.51
0.32648	34.52
0.34315	34.51
0.35982	34.52
0.37648	34.51
0.39315	34.52
0.40982	34.52
0.42648	34.52
0.44315	34.52
0.45982	34.52
0.47648	34.52
0.49315	34.51
0.50982	34.52
0.52648	34.53
0.54315	34.52
0.55982	34.52
0.57648	34.52
0.59315	34.52
0.60982	34.52
0.62648	34.52
0.64315	34.52
0.65982	34.52
0.67648	34.52
0.69315	34.53
0.70982	34.52
0.72648	34.52
0.74315	34.52
0.75982	34.52
0.77648	34.51
0.79315	34.51
0.80982	34.51
0.82648	34.52
0.84315	34.52
0.85982	34.52
0.87648	34.52
0.89315	34.52
0.90982	34.52
0.92648	34.52
0.94315	34.52
0.95982	34.52
0.97648	34.52
0.99315	34.52
1.00982	34.52
1.02648	34.52
1.04315	34.52
1.05982	34.52
1.07648	34.52
1.09315	34.52
1.10982	34.52
1.12648	34.52
1.14315	34.52
1.15982	34.51
1.17648	34.52
1.19315	34.52
1.20982	34.52
1.22648	34.52
1.24315	34.52
1.25982	34.52
1.27648	34.51
1.29315	34.52
1.30982	34.52
1.32648	34.52
1.34315	34.51
1.35982	34.52
1.37648	34.52
1.39315	34.51
1.40982	34.52
1.42648	34.52
1.44315	34.52
1.45982	34.52
1.47648	34.52
1.49315	34.52
1.50982	34.52
1.52648	34.52
1.54315	34.52
1.55982	34.52
1.57648	34.51
1.59315	34.52
1.60982	34.52
1.62648	34.52
1.64315	34.52
1.65982	34.51
1.67648	34.51
1.69315	34.52
1.70982	34.52
1.72648	34.52
1.74315	34.52
1.75982	34.51
1.77648	34.52
1.79315	34.52
1.80982	34.52
1.82648	34.51
1.84315	34.52
1.85982	34.52
1.87648	34.52
1.89315	34.51
1.90982	34.52
1.92648	34.53
1.94315	34.53
1.95982	34.51
1.97648	34.52
1.99315	34.51
2.00982	34.52
2.02648	34.52
2.04315	34.52
2.05982	34.52
2.07648	34.52
2.09315	34.52
2.10982	34.52
2.12648	34.52
2.14315	34.52
2.15982	34.52
2.17648	34.52
2.19315	34.53
2.20982	34.52
2.22648	34.52
2.24315	34.52
2.25982	34.51
2.27648	34.51
2.29315	34.51
2.30982	34.52
2.32648	34.52
2.34315	34.52
2.35982	34.53
2.37648	34.51
2.39315	34.52
2.40982	34.52
2.42648	34.51
2.44315	34.51
2.45982	34.51
2.47648	34.53
2.49315	34.52
2.50982	34.51
2.52648	34.52
2.54315	34.52
2.55982	34.52
2.57648	34.52
2.59315	34.51
2.60982	34.52
2.62648	34.52
2.64315	34.51
2.65982	34.52
2.67648	34.52
2.69315	34.52
2.70982	34.52
2.72648	34.52
2.74315	34.52
2.75982	34.52
2.77648	34.51
2.79315	34.52
2.80982	34.52
2.82648	34.52
2.84315	34.52
2.85982	34.52
2.87648	34.52
2.89315	34.51
2.90982	34.52
2.92648	34.51
2.94315	34.52
2.95982	34.52
2.97648	34.52
2.99315	34.52
3.00982	34.52
3.02648	34.52
3.04315	34.52
3.05982	34.52
3.07648	34.52
3.09315	34.52
3.10982	34.52
3.12648	34.52
3.14315	34.52
3.15982	34.52
3.17648	34.52
3.19315	34.52
3.20982	34.52
3.22648	34.52
3.24315	34.52
3.25982	34.51
3.27648	34.52
3.29315	34.52
3.30982	34.52
3.32648	34.52
3.34315	34.51
3.35982	34.51
3.37648	34.52
3.39315	34.52
3.40982	34.52
3.42648	34.52
3.44315	34.52
3.45982	34.53
3.47648	34.52
3.49315	34.52
3.50982	34.52
3.52648	34.52
3.54315	34.52
3.55982	34.51
3.57648	34.51
3.59315	34.52
3.60982	34.52
3.62648	34.52
3.64315	34.52
3.65982	34.52
3.67648	34.52
3.69315	34.52
3.70982	34.52
3.72648	34.52
3.74315	34.52
3.75982	34.52
3.77648	34.52
3.79315	34.52
3.80982	34.52
3.82648	34.52
3.84315	34.52
3.85982	34.52
3.87648	34.52
3.89315	34.52
3.90982	34.52
3.92648	34.52
3.94315	34.52
3.95982	34.52
3.97648	34.52
3.99315	34.52

[Status Trace (Column Flow)]
Interval(msec)	1000
# of Points	240
Start Time(min)	0.010
End Time(min)	3.993
Intensity Units	
Intensity Multiplier	1
R.Time (min)	Intensity
0.00982	5.53
0.02648	5.20
0.04315	5.47
0.05982	5.71
0.07648	5.65
0.09315	5.53
0.10982	5.53
0.12648	5.53
0.14315	5.53
0.15982	5.53
0.17648	5.53
0.19315	5.53
0.20982	5.53
0.22648	5.53
0.24315	5.53
0.25982	5.53
0.27648	5.53
0.29315	5.53
0.30982	5.53
0.32648	5.53
0.34315	5.53
0.35982	5.53
0.37648	5.53
0.39315	5.53
0.40982	5.53
0.42648	5.53
0.44315	5.53
0.45982	5.53
0.47648	5.53
0.49315	5.53
0.50982	5.53
0.52648	5.53
0.54315	5.53
0.55982	5.53
0.57648	5.53
0.59315	5.53
0.60982	5.53
0.62648	5.53
0.64315	5.53
0.65982	5.53
0.67648	5.53
0.69315	5.53
0.70982	5.53
0.72648	5.53
0.74315	5.53
0.75982	5.53
0.77648	5.53
0.79315	5.53
0.80982	5.53
0.82648	5.53
0.84315	5.53
0.85982	5.53
0.87648	5.53
0.89315	5.53
0.90982	5.53
0.92648	5.53
0.94315	5.53
0.95982	5.53
0.97648	5.53
0.99315	5.53
1.00982	5.53
1.02648	5.53
1.04315	5.53
1.05982	5.53
1.07648	5.53
1.09315	5.53
1.10982	5.53
1.12648	5.53
1.14315	5.53
1.15982	5.53
1.17648	5.53
1.19315	5.53
1.20982	5.53
1.22648	5.53
1.24315	5.53
1.25982	5.53
1.27648	5.53
1.29315	5.53
1.30982	5.53
1.32648	5.53
1.34315	5.53
1.35982	5.53
1.37648	5.53
1.39315	5.53
1.40982	5.53
1.42648	5.53
1.44315	5.53
1.45982	5.53
1.47648	5.53
1.49315	5.53
1.50982	5.53
1.52648	5.53
1.54315	5.53
1.55982	5.53
1.57648	5.53
1.59315	5.53
1.60982	5.53
1.62648	5.53
1.64315	5.52
1.65982	5.51
1.67648	5.50
1.69315	5.49
1.70982	5.48
1.72648	5.47
1.74315	5.46
1.75982	5.45
1.77648	5.44
1.79315	5.43
1.80982	5.42
1.82648	5.41
1.84315	5.40
1.85982	5.39
1.87648	5.38
1.89315	5.37
1.90982	5.36
1.92648	5.35
1.94315	5.34
1.95982	5.33
1.97648	5.32
1.99315	5.31
2.00982	5.30
2.02648	5.29
2.04315	5.28
2.05982	5.27
2.07648	5.26
2.09315	5.25
2.10982	5.24
2.12648	5.23
2.14315	5.22
2.15982	5.21
2.17648	5.20
2.19315	5.20
2.20982	5.19
2.22648	5.18
2.24315	5.17
2.25982	5.16
2.27648	5.15
2.29315	5.14
2.30982	5.13
2.32648	5.12
2.34315	5.11
2.35982	5.10
2.37648	5.10
2.39315	5.10
2.40982	5.10
2.42648	5.10
2.44315	5.10
2.45982	5.10
2.47648	5.10
2.49315	5.10
2.50982	5.10
2.52648	5.10
2.54315	5.10
2.55982	5.10
2.57648	5.09
2.59315	5.09
2.60982	5.09
2.62648	5.09
2.64315	5.09
2.65982	5.09
2.67648	5.09
2.69315	5.09
2.70982	5.09
2.72648	5.09
2.74315	5.09
2.75982	5.09
2.77648	5.09
2.79315	5.09
2.80982	5.09
2.82648	5.09
2.84315	5.09
2.85982	5.09
2.87648	5.09
2.89315	5.09
2.90982	5.09
2.92648	5.09
2.94315	5.09
2.95982	5.09
2.97648	5.09
2.99315	5.09
3.00982	5.09
3.02648	5.09
3.04315	5.09
3.05982	5.09
3.07648	5.09
3.09315	5.09
3.10982	5.09
3.12648	5.09
3.14315	5.09
3.15982	5.09
3.17648	5.09
3.19315	5.09
3.20982	5.09
3.22648	5.09
3.24315	5.09
3.25982	5.09
3.27648	5.09
3.29315	5.09
3.30982	5.09
3.32648	5.09
3.34315	5.09
3.35982	5.09
3.37648	5.09
3.39315	5.09
3.40982	5.09
3.42648	5.09
3.44315	5.09
3.45982	5.09
3.47648	5.09
3.49315	5.09
3.50982	5.09
3.52648	5.09
3.54315	5.09
3.55982	5.09
3.57648	5.09
3.59315	5.09
3.60982	5.09
3.62648	5.09
3.64315	5.09
3.65982	5.09
3.67648	5.09
3.69315	5.09
3.70982	5.09
3.72648	5.09
3.74315	5.09
3.75982	5.09
3.77648	5.09
3.79315	5.09
3.80982	5.09
3.82648	5.09
3.84315	5.09
3.85982	5.09
3.87648	5.09
3.89315	5.09
3.90982	5.09
3.92648	5.09
3.94315	5.09
3.95982	5.09
3.97648	5.09
3.99315	5.09

[Status Trace (Linear Velocity)]
Interval(msec)	1000
# of Points	240
Start Time(min)	0.010
End Time(min)	3.993
Intensity Units	
Intensity Multiplier	1
R.Time (min)	Intensity
0.00982	39.01
0.02648	37.14
0.04315	38.67
0.05982	40.01
0.07648	39.71
0.09315	39.02
0.10982	39.01
0.12648	39.02
0.14315	39.02
0.15982	39.02
0.17648	39.02
0.19315	39.02
0.20982	39.02
0.22648	39.02
0.24315	39.02
0.25982	39.02
0.27648	39.02
0.29315	39.02
0.30982	39.02
0.32648	39.02
0.34315	39.02
0.35982	39.02
0.37648	39.02
0.39315	39.02
0.40982	39.02
0.42648	39.02
0.44315	39.02
0.45982	39.02
0.47648	39.02
0.49315	39.02
0.50982	39.02
0.52648	39.02
0.54315	39.02
0.55982	39.02
0.57648	39.02
0.59315	39.02
0.60982	39.02
0.62648	39.02
0.64315	39.02
0.65982	39.02
0.67648	39.02
0.69315	39.02
0.70982	39.02
0.72648	39.02
0.74315	39.02
0.75982	39.02
0.77648	39.02
0.79315	39.02
0.80982	39.02
0.82648	39.02
0.84315	39.02
0.85982	39.02
0.87648	39.02
0.89315	39.02
0.90982	39.02
0.92648	39.02
0.94315	39.02
0.95982	39.02
0.97648	39.02
0.99315	39.02
1.00982	39.02
1.02648	39.02
1.04315	39.02
1.05982	39.02
1.07648	39.02
1.09315	39.02
1.10982	39.02
1.12648	39.02
1.14315	39.02
1.15982	39.02
1.17648	39.02
1.19315	39.02
1.20982	39.02
1.22648	39.02
1.24315	39.02
1.25982	39.02
1.27648	39.02
1.29315	39.02
1.30982	39.02
1.32648	39.02
1.34315	39.02
1.35982	39.02
1.37648	39.02
1.39315	39.02
1.40982	39.02
1.42648	39.02
1.44315	39.02
1.45982	39.02
1.47648	39.02
1.49315	39.02
1.50982	39.02
1.52648	39.02
1.54315	39.02
1.55982	39.02
1.57648	39.02
1.59315	39.02
1.60982	39.01
1.62648	39.00
1.64315	38.99
1.65982	38.96
1.67648	38.93
1.69315	38.89
1.70982	38.85
1.72648	38.82
1.74315	38.79
1.75982	38.76
1.77648	38.73
1.79315	38.70
1.80982	38.67
1.82648	38.63
1.84315	38.60
1.85982	38.58
1.87648	38.55
1.89315	38.51
1.90982	38.48
1.92648	38.45
1.94315	38.42
1.95982	38.39
1.97648	38.36
1.99315	38.33
2.00982	38.30
2.02648	38.27
2.04315	38.24
2.05982	38.21
2.07648	38.18
2.09315	38.15
2.10982	38.13
2.12648	38.09
2.14315	38.06
2.15982	38.04
2.17648	38.01
2.19315	37.98
2.20982	37.95
2.22648	37.92
2.24315	37.89
2.25982	37.85
2.27648	37.82
2.29315	37.80
2.30982	37.77
2.32648	37.73
2.34315	37.70
2.35982	37.68
2.37648	37.67
2.39315	37.67
2.40982	37.67
2.42648	37.67
2.44315	37.67
2.45982	37.67
2.47648	37.67
2.49315	37.67
2.50982	37.66
2.52648	37.65
2.54315	37.66
2.55982	37.66
2.57648	37.66
2.59315	37.65
2.60982	37.65
2.62648	37.65
2.64315	37.65
2.65982	37.65
2.67648	37.65
2.69315	37.65
2.70982	37.65
2.72648	37.65
2.74315	37.65
2.75982	37.65
2.77648	37.65
2.79315	37.65
2.80982	37.65
2.82648	37.65
2.84315	37.65
2.85982	37.65
2.87648	37.65
2.89315	37.65
2.90982	37.65
2.92648	37.65
2.94315	37.65
2.95982	37.64
2.97648	37.64
2.99315	37.64
3.00982	37.64
3.02648	37.64
3.04315	37.64
3.05982	37.64
3.07648	37.64
3.09315	37.64
3.10982	37.63
3.12648	37.63
3.14315	37.63
3.15982	37.63
3.17648	37.63
3.19315	37.63
3.20982	37.63
3.22648	37.63
3.24315	37.63
3.25982	37.63
3.27648	37.63
3.29315	37.63
3.30982	37.63
3.32648	37.63
3.34315	37.63
3.35982	37.63
3.37648	37.63
3.39315	37.63
3.40982	37.63
3.42648	37.63
3.44315	37.63
3.45982	37.63
3.47648	37.63
3.49315	37.63
3.50982	37.63
3.52648	37.63
3.54315	37.63
3.55982	37.63
3.57648	37.63
3.59315	37.63
3.60982	37.63
3.62648	37.63
3.64315	37.63
3.65982	37.63
3.67648	37.63
3.69315	37.63
3.70982	37.63
3.72648	37.63
3.74315	37.63
3.75982	37.63
3.77648	37.63
3.79315	37.63
3.80982	37.63
3.82648	37.63
3.84315	37.63
3.85982	37.63
3.87648	37.63
3.89315	37.63
3.90982	37.63
3.92648	37.63
3.94315	37.63
3.95982	37.63
3.97648	37.63
3.99315	37.63

