[Header]
Application Name	LabSolutions
Version	5.110
Data File Name	C:\Users\User\Desktop\Junior\UIC Prairie Sampling\5.18.23\05182023_041.gcd
Output Date	6/5/2023
Output Time	2:17:27 PM

[File Information]
Type	Data File
Generated	5/24/2023 4:31:22 PM
Generated by	System Administrator
Modified	5/24/2023 4:38:44 PM
Modified by	System Administrator

[Sample Information]
Operator Name	System Administrator
Acquired	5/24/2023 4:34:43 PM
Sample Type	0:Unknown
Level	0
Sample Name	041
Sample ID	041
ISTD Amount1	1
ISTD Amount2	1
ISTD Amount3	1
ISTD Amount4	1
ISTD Amount5	1
ISTD Amount6	1
ISTD Amount7	1
ISTD Amount8	1
ISTD Amount9	1
ISTD Amount10	1
ISTD Amount11	1
ISTD Amount12	1
ISTD Amount13	1
ISTD Amount14	1
ISTD Amount15	1
ISTD Amount16	1
ISTD Amount17	1
ISTD Amount18	1
ISTD Amount19	1
ISTD Amount20	1
ISTD Amount21	1
ISTD Amount22	1
ISTD Amount23	1
ISTD Amount24	1
ISTD Amount25	1
ISTD Amount26	1
ISTD Amount27	1
ISTD Amount28	1
ISTD Amount29	1
ISTD Amount30	1
ISTD Amount31	1
ISTD Amount32	1
Sample Amount	1
Dilution Factor	1
Vial#	40
Injection Volume	1
Injection Count	1
Bar Code	

[Original Files]
Data File	C:\Users\User\Desktop\Junior\UIC Prairie Sampling\5.18.23\05182023_041.gcd
Method File	C:\LabSolutions\Data\GHG_4min_2022\ghg3_togas_w_acet_4 min_new_int.gcm
Batch File	C:\LabSolutions\Data\AutoSamplerTesting\05182023.gcb
Report Format File	c:\LabSolutions\System\DEFAULT.lsr

[File Description]


[Configuration]
Instrument Name	C0B7VH3-Instrument1
Instrument #	1
Line #	1
# of Detectors	3
Detector ID	DET#1	DET#2	DET#3
Detector Name	FID	PTCD	ECD
# of Channels	1	1	1

[Peak Table(Ch1)]
# of Peaks	3
Peak#	R.Time	I.Time	F.Time	Area	Height	A/H	Conc.	Mark	ID#	Name	k'	Plate #	Plate Ht.	Tailing	Resolution	Sep.Factor	Area Ratio	Height Ratio	Conc. %	Norm Conc.
1	1.472	1.421	1.527	3757	1810	2.076	0.000	   	1	CO	0.000	9171	16.356	1.217	0.000	0.000	0	0	0.000	0.000
2	1.564	1.527	1.619	4372	2227	1.963	21.312	 V 	2	CH4	0.062	11464	13.084	1.122	1.529	0.000	0	0	6.977	6.977
3	1.989	1.945	2.429	1474417	705635	2.089	284.147	   	3	CO2	0.351	17322	8.660	1.299	7.156	5.640	0	0	93.023	93.023

[Peak Table(Ch2)]
# of Peaks	0

[Peak Table(Ch3)]
# of Peaks	4
Peak#	R.Time	I.Time	F.Time	Area	Height	A/H	Conc.	Mark	ID#	Name	k'	Plate #	Plate Ht.	Tailing	Resolution	Sep.Factor	Area Ratio	Height Ratio	Conc. %	Norm Conc.
1	2.458	2.436	2.491	607	288	2.103	0.000	   			0.000	18687	8.027	0.000	0.000	0.000	0	0	0.000	0.000
2	2.579	2.491	2.664	5157	647	7.965	0.000	 V 			0.049	1331	112.711	0.000	0.682	0.000	0	0	0.000	0.000
3	2.719	2.664	2.829	4500	504	8.931	0.000	 V 			0.106	73	2067.838	0.000	0.179	2.152	0	0	0.000	0.000
4	2.891	2.829	3.756	30228	5012	6.031	0.447	 V 	1	N2O	0.176	12015	12.485	0.000	0.249	1.662	0	0	100.000	100.000

[Compound Results(Ch1)]
# of IDs	6
ID#	Name	R.Time	Area	Height	Conc.	Curve	3rd	2nd	1st	Constant	Area Ratio	Height Ratio	Conc. %	Norm Conc.
1	CO	1.472	3757	1810	0.000	Linear	0.000000e+00	0.000000e+00	0.000000e+00	0.000000e+00	0	0	0.000	0.000
2	CH4	1.564	4372	2227	21.312	Linear	0.000000e+00	0.000000e+00	2.051179e+002	0.000000e+00	0	0	6.977	6.977
3	CO2	1.989	1474417	705635	284.147	Linear	0.000000e+00	0.000000e+00	5.188919e+003	0.000000e+00	0	0	93.023	93.023
4	Ethylene	0.000	0	0	0.000	Linear	0.000000e+00	0.000000e+00	0.000000e+00	0.000000e+00	0	0	0.000	0.000
5	Acetylene	0.000	0	0	0.000	Linear	0.000000e+00	0.000000e+00	0.000000e+00	0.000000e+00	0	0	0.000	0.000
6	Ethane	0.000	0	0	0.000	Linear	0.000000e+00	0.000000e+00	0.000000e+00	0.000000e+00	0	0	0.000	0.000

[Compound Results(Ch2)]
# of IDs	5
ID#	Name	R.Time	Area	Height	Conc.	Curve	3rd	2nd	1st	Constant	Area Ratio	Height Ratio	Conc. %	Norm Conc.
1	Hydrogen	0.000	0	0	0.000	Linear	0.000000e+00	0.000000e+00	0.000000e+00	0.000000e+00	0	0	0.000	0.000
2	Oxygen	0.000	0	0	0.000	Linear	0.000000e+00	0.000000e+00	0.000000e+00	0.000000e+00	0	0	0.000	0.000
3	Nitrogen	0.000	0	0	0.000	Linear	0.000000e+00	0.000000e+00	0.000000e+00	0.000000e+00	0	0	0.000	0.000
4	Methane	0.000	0	0	0.000	Linear	0.000000e+00	0.000000e+00	0.000000e+00	0.000000e+00	0	0	0.000	0.000
5	Carbon Monoxide	0.000	0	0	0.000	Linear	0.000000e+00	0.000000e+00	0.000000e+00	0.000000e+00	0	0	0.000	0.000

[Compound Results(Ch3)]
# of IDs	2
ID#	Name	R.Time	Area	Height	Conc.	Curve	3rd	2nd	1st	Constant	Area Ratio	Height Ratio	Conc. %	Norm Conc.
1	N2O	2.891	30228	5012	0.447	Linear	0.000000e+00	0.000000e+00	6.759880e+004	0.000000e+00	0	0	100.000	100.000
2	SF6	0.000	0	0	0.000	Linear	0.000000e+00	0.000000e+00	0.000000e+00	0.000000e+00	0	0	0.000	0.000

[Group Results(Ch1)]
# of Groups	0

[Group Results(Ch2)]
# of Groups	0

[Group Results(Ch3)]
# of Groups	0

[Chromatogram (Ch1)]
Interval(msec)	220
# of Points	1091
Start Time(min)	0.002
End Time(min)	3.998
R.Time (min)	Intensity
0.00167	7
0.00533	8
0.00900	8
0.01267	9
0.01633	11
0.02000	10
0.02367	8
0.02733	9
0.03100	9
0.03467	8
0.03833	6
0.04200	2
0.04567	0
0.04933	4
0.05300	9
0.05667	9
0.06033	6
0.06400	5
0.06767	4
0.07133	6
0.07500	7
0.07867	8
0.08233	12
0.08600	13
0.08967	10
0.09333	4
0.09700	2
0.10067	2
0.10433	2
0.10800	2
0.11167	5
0.11533	9
0.11900	13
0.12267	16
0.12633	16
0.13000	17
0.13367	18
0.13733	18
0.14100	17
0.14467	17
0.14833	20
0.15200	26
0.15567	29
0.15933	25
0.16300	18
0.16667	11
0.17033	6
0.17400	5
0.17767	7
0.18133	9
0.18500	8
0.18867	7
0.19233	5
0.19600	-1
0.19967	-13
0.20333	-22
0.20700	-24
0.21067	-21
0.21433	-15
0.21800	-9
0.22167	-4
0.22533	-0
0.22900	2
0.23267	5
0.23633	9
0.24000	12
0.24367	13
0.24733	13
0.25100	13
0.25467	14
0.25833	15
0.26200	16
0.26567	17
0.26933	15
0.27300	14
0.27667	14
0.28033	14
0.28400	8
0.28767	0
0.29133	-3
0.29500	-1
0.29867	3
0.30233	8
0.30600	14
0.30967	22
0.31333	29
0.31700	30
0.32067	28
0.32433	23
0.32800	14
0.33167	7
0.33533	1
0.33900	-3
0.34267	-3
0.34633	0
0.35000	4
0.35367	12
0.35733	17
0.36100	17
0.36467	13
0.36833	6
0.37200	0
0.37567	3
0.37933	9
0.38300	13
0.38667	15
0.39033	17
0.39400	17
0.39767	14
0.40133	7
0.40500	0
0.40867	-3
0.41233	-5
0.41600	-6
0.41967	-6
0.42333	-4
0.42700	2
0.43067	13
0.43433	19
0.43800	16
0.44167	11
0.44533	9
0.44900	8
0.45267	8
0.45633	8
0.46000	5
0.46367	-0
0.46733	-4
0.47100	-3
0.47467	-0
0.47833	6
0.48200	11
0.48567	12
0.48933	11
0.49300	9
0.49667	5
0.50033	5
0.50400	7
0.50767	13
0.51133	20
0.51500	23
0.51867	21
0.52233	17
0.52600	14
0.52967	12
0.53333	9
0.53700	3
0.54067	-2
0.54433	-5
0.54800	-8
0.55167	-12
0.55533	-14
0.55900	-18
0.56267	-21
0.56633	-21
0.57000	-19
0.57367	-16
0.57733	-15
0.58100	-15
0.58467	-13
0.58833	-9
0.59200	-4
0.59567	4
0.59933	10
0.60300	8
0.60667	2
0.61033	-5
0.61400	-9
0.61767	-10
0.62133	-10
0.62500	-10
0.62867	-14
0.63233	-22
0.63600	-27
0.63967	-28
0.64333	-24
0.64700	-18
0.65067	-10
0.65433	-3
0.65800	2
0.66167	0
0.66533	-4
0.66900	-8
0.67267	-5
0.67633	4
0.68000	13
0.68367	21
0.68733	23
0.69100	17
0.69467	7
0.69833	-3
0.70200	-9
0.70567	-12
0.70933	-11
0.71300	-11
0.71667	-13
0.72033	-12
0.72400	-11
0.72767	-6
0.73133	-1
0.73500	2
0.73867	6
0.74233	6
0.74600	6
0.74967	7
0.75333	8
0.75700	9
0.76067	7
0.76433	1
0.76800	-5
0.77167	-13
0.77533	-19
0.77900	-23
0.78267	-23
0.78633	-23
0.79000	-24
0.79367	-22
0.79733	-16
0.80100	-11
0.80467	-6
0.80833	-3
0.81200	-5
0.81567	-8
0.81933	-14
0.82300	-21
0.82667	-29
0.83033	-32
0.83400	-32
0.83767	-29
0.84133	-23
0.84500	-19
0.84867	-18
0.85233	-19
0.85600	-21
0.85967	-21
0.86333	-20
0.86700	-21
0.87067	-23
0.87433	-19
0.87800	-13
0.88167	-9
0.88533	-8
0.88900	-10
0.89267	-13
0.89633	-18
0.90000	-19
0.90367	-17
0.90733	-17
0.91100	-20
0.91467	-21
0.91833	-18
0.92200	-16
0.92567	-14
0.92933	-11
0.93300	-9
0.93667	-10
0.94033	-14
0.94400	-20
0.94767	-21
0.95133	-18
0.95500	-15
0.95867	-12
0.96233	-12
0.96600	-17
0.96967	-20
0.97333	-20
0.97700	-22
0.98067	-26
0.98433	-31
0.98800	-35
0.99167	-37
0.99533	-39
0.99900	-38
1.00267	-33
1.00633	-26
1.01000	-20
1.01367	-14
1.01733	-7
1.02100	-0
1.02467	0
1.02833	-7
1.03200	-17
1.03567	-27
1.03933	-36
1.04300	-43
1.04667	-45
1.05033	-42
1.05400	-43
1.05767	-44
1.06133	-42
1.06500	-38
1.06867	-33
1.07233	-27
1.07600	-22
1.07967	-18
1.08333	-15
1.08700	-11
1.09067	-8
1.09433	-6
1.09800	-3
1.10167	-5
1.10533	-12
1.10900	-20
1.11267	-28
1.11633	-36
1.12000	-40
1.12367	-41
1.12733	-40
1.13100	-38
1.13467	-35
1.13833	-34
1.14200	-34
1.14567	-36
1.14933	-38
1.15300	-39
1.15667	-39
1.16033	-38
1.16400	-36
1.16767	-34
1.17133	-29
1.17500	-22
1.17867	-18
1.18233	-21
1.18600	-25
1.18967	-29
1.19333	-33
1.19700	-34
1.20067	-37
1.20433	-33
1.20800	-25
1.21167	-20
1.21533	-19
1.21900	-20
1.22267	-24
1.22633	-27
1.23000	-26
1.23367	-25
1.23733	-23
1.24100	-23
1.24467	-28
1.24833	-35
1.25200	-42
1.25567	-49
1.25933	-50
1.26300	-49
1.26667	-52
1.27033	-60
1.27400	-65
1.27767	-66
1.28133	-65
1.28500	-62
1.28867	-59
1.29233	-54
1.29600	-48
1.29967	-40
1.30333	-33
1.30700	-32
1.31067	-34
1.31433	-39
1.31800	-48
1.32167	-57
1.32533	-64
1.32900	-63
1.33267	-56
1.33633	-52
1.34000	-52
1.34367	-57
1.34733	-63
1.35100	-66
1.35467	-63
1.35833	-58
1.36200	-51
1.36567	-47
1.36933	-42
1.37300	-37
1.37667	-33
1.38033	-32
1.38400	-33
1.38767	-34
1.39133	-38
1.39500	-45
1.39867	-55
1.40233	-64
1.40600	-67
1.40967	-65
1.41333	-61
1.41700	-58
1.42067	-55
1.42433	-51
1.42800	-46
1.43167	-39
1.43533	-29
1.43900	-5
1.44267	22
1.44633	78
1.45000	249
1.45367	546
1.45733	891
1.46100	1210
1.46467	1471
1.46833	1663
1.47200	1754
1.47567	1717
1.47933	1554
1.48300	1302
1.48667	1024
1.49033	764
1.49400	544
1.49767	371
1.50133	243
1.50500	148
1.50867	82
1.51233	37
1.51600	7
1.51967	-11
1.52333	-20
1.52700	-25
1.53067	-24
1.53433	10
1.53800	142
1.54167	417
1.54533	813
1.54900	1247
1.55267	1639
1.55633	1939
1.56000	2125
1.56367	2168
1.56733	2047
1.57100	1781
1.57467	1426
1.57833	1058
1.58200	736
1.58567	482
1.58933	298
1.59300	170
1.59667	84
1.60033	25
1.60400	-12
1.60767	-35
1.61133	-49
1.61500	-57
1.61867	-61
1.62233	-63
1.62600	-68
1.62967	-73
1.63333	-78
1.63700	-83
1.64067	-84
1.64433	-80
1.64800	-76
1.65167	-75
1.65533	-78
1.65900	-83
1.66267	-86
1.66633	-83
1.67000	-77
1.67367	-71
1.67733	-67
1.68100	-64
1.68467	-61
1.68833	-57
1.69200	-56
1.69567	-62
1.69933	-72
1.70300	-81
1.70667	-83
1.71033	-82
1.71400	-81
1.71767	-80
1.72133	-80
1.72500	-80
1.72867	-79
1.73233	-81
1.73600	-84
1.73967	-81
1.74333	-75
1.74700	-73
1.75067	-71
1.75433	-67
1.75800	-65
1.76167	-66
1.76533	-68
1.76900	-68
1.77267	-64
1.77633	-63
1.78000	-63
1.78367	-65
1.78733	-67
1.79100	-67
1.79467	-69
1.79833	-72
1.80200	-72
1.80567	-68
1.80933	-63
1.81300	-59
1.81667	-56
1.82033	-57
1.82400	-57
1.82767	-57
1.83133	-58
1.83500	-59
1.83867	-62
1.84233	-68
1.84600	-75
1.84967	-80
1.85333	-82
1.85700	-84
1.86067	-83
1.86433	-78
1.86800	-72
1.87167	-68
1.87533	-68
1.87900	-67
1.88267	-67
1.88633	-68
1.89000	-69
1.89367	-68
1.89733	-63
1.90100	-59
1.90467	-55
1.90833	-52
1.91200	-52
1.91567	-52
1.91933	-53
1.92300	-54
1.92667	-57
1.93033	-55
1.93400	-49
1.93767	-44
1.94133	-42
1.94500	-27
1.94867	84
1.95233	735
1.95600	3779
1.95967	14488
1.96333	43192
1.96700	102781
1.97067	199600
1.97433	325558
1.97800	460044
1.98167	579863
1.98533	665860
1.98900	705640
1.99267	694608
1.99633	637241
2.00000	546775
2.00367	441453
2.00733	338414
2.01100	249045
2.01467	178014
2.01833	124986
2.02200	87093
2.02567	60793
2.02933	42867
2.03300	30759
2.03667	22594
2.04033	17055
2.04400	13256
2.04767	10610
2.05133	8724
2.05500	7341
2.05867	6297
2.06233	5491
2.06600	4859
2.06967	4353
2.07333	3938
2.07700	3593
2.08067	3304
2.08433	3057
2.08800	2844
2.09167	2657
2.09533	2487
2.09900	2328
2.10267	2185
2.10633	2059
2.11000	1945
2.11367	1841
2.11733	1746
2.12100	1659
2.12467	1581
2.12833	1511
2.13200	1448
2.13567	1387
2.13933	1331
2.14300	1283
2.14667	1242
2.15033	1202
2.15400	1161
2.15767	1125
2.16133	1092
2.16500	1054
2.16867	1010
2.17233	965
2.17600	921
2.17967	882
2.18333	851
2.18700	829
2.19067	812
2.19433	798
2.19800	780
2.20167	757
2.20533	734
2.20900	716
2.21267	700
2.21633	682
2.22000	661
2.22367	640
2.22733	618
2.23100	602
2.23467	593
2.23833	587
2.24200	580
2.24567	572
2.24933	562
2.25300	549
2.25667	535
2.26033	522
2.26400	513
2.26767	506
2.27133	502
2.27500	496
2.27867	486
2.28233	473
2.28600	465
2.28967	459
2.29333	449
2.29700	443
2.30067	440
2.30433	433
2.30800	423
2.31167	416
2.31533	412
2.31900	417
2.32267	422
2.32633	421
2.33000	414
2.33367	407
2.33733	400
2.34100	394
2.34467	391
2.34833	390
2.35200	391
2.35567	389
2.35933	384
2.36300	378
2.36667	373
2.37033	370
2.37400	368
2.37767	367
2.38133	363
2.38500	353
2.38867	342
2.39233	336
2.39600	336
2.39967	334
2.40333	328
2.40700	323
2.41067	321
2.41433	321
2.41800	322
2.42167	325
2.42533	330
2.42900	329
2.43267	327
2.43633	325
2.44000	324
2.44367	324
2.44733	323
2.45100	323
2.45467	322
2.45833	321
2.46200	320
2.46567	326
2.46933	332
2.47300	334
2.47667	332
2.48033	330
2.48400	327
2.48767	325
2.49133	319
2.49500	311
2.49867	304
2.50233	300
2.50600	303
2.50967	307
2.51333	312
2.51700	316
2.52067	315
2.52433	312
2.52800	311
2.53167	310
2.53533	311
2.53900	316
2.54267	322
2.54633	328
2.55000	326
2.55367	319
2.55733	317
2.56100	320
2.56467	324
2.56833	325
2.57200	319
2.57567	309
2.57933	303
2.58300	304
2.58667	310
2.59033	319
2.59400	334
2.59767	345
2.60133	347
2.60500	344
2.60867	343
2.61233	345
2.61600	345
2.61967	344
2.62333	341
2.62700	338
2.63067	334
2.63433	328
2.63800	322
2.64167	318
2.64533	319
2.64900	323
2.65267	328
2.65633	337
2.66000	345
2.66367	352
2.66733	353
2.67100	352
2.67467	352
2.67833	353
2.68200	357
2.68567	363
2.68933	371
2.69300	380
2.69667	389
2.70033	389
2.70400	378
2.70767	362
2.71133	351
2.71500	347
2.71867	346
2.72233	346
2.72600	350
2.72967	355
2.73333	362
2.73700	365
2.74067	365
2.74433	363
2.74800	368
2.75167	377
2.75533	385
2.75900	391
2.76267	392
2.76633	392
2.77000	394
2.77367	396
2.77733	398
2.78100	398
2.78467	395
2.78833	391
2.79200	388
2.79567	390
2.79933	395
2.80300	402
2.80667	410
2.81033	413
2.81400	411
2.81767	404
2.82133	399
2.82500	400
2.82867	405
2.83233	412
2.83600	416
2.83967	414
2.84333	411
2.84700	408
2.85067	407
2.85433	412
2.85800	420
2.86167	427
2.86533	427
2.86900	426
2.87267	427
2.87633	428
2.88000	432
2.88367	438
2.88733	442
2.89100	441
2.89467	437
2.89833	432
2.90200	432
2.90567	433
2.90933	436
2.91300	440
2.91667	446
2.92033	453
2.92400	460
2.92767	466
2.93133	471
2.93500	468
2.93867	461
2.94233	453
2.94600	449
2.94967	450
2.95333	456
2.95700	462
2.96067	463
2.96433	461
2.96800	460
2.97167	460
2.97533	462
2.97900	470
2.98267	479
2.98633	486
2.99000	495
2.99367	498
2.99733	495
3.00100	485
3.00467	475
3.00833	466
3.01200	455
3.01567	445
3.01933	442
3.02300	447
3.02667	456
3.03033	464
3.03400	468
3.03767	468
3.04133	466
3.04500	467
3.04867	469
3.05233	468
3.05600	468
3.05967	468
3.06333	467
3.06700	464
3.07067	462
3.07433	469
3.07800	478
3.08167	485
3.08533	487
3.08900	488
3.09267	492
3.09633	498
3.10000	502
3.10367	507
3.10733	507
3.11100	502
3.11467	496
3.11833	490
3.12200	485
3.12567	485
3.12933	492
3.13300	499
3.13667	500
3.14033	500
3.14400	497
3.14767	494
3.15133	494
3.15500	495
3.15867	494
3.16233	494
3.16600	494
3.16967	489
3.17333	482
3.17700	478
3.18067	477
3.18433	480
3.18800	487
3.19167	496
3.19533	501
3.19900	503
3.20267	504
3.20633	503
3.21000	503
3.21367	507
3.21733	513
3.22100	518
3.22467	521
3.22833	522
3.23200	520
3.23567	512
3.23933	503
3.24300	496
3.24667	494
3.25033	497
3.25400	500
3.25767	498
3.26133	495
3.26500	492
3.26867	493
3.27233	493
3.27600	491
3.27967	490
3.28333	494
3.28700	498
3.29067	497
3.29433	494
3.29800	493
3.30167	493
3.30533	494
3.30900	494
3.31267	497
3.31633	501
3.32000	502
3.32367	503
3.32733	503
3.33100	501
3.33467	500
3.33833	498
3.34200	497
3.34567	502
3.34933	505
3.35300	503
3.35667	499
3.36033	495
3.36400	494
3.36767	495
3.37133	495
3.37500	499
3.37867	508
3.38233	516
3.38600	518
3.38967	511
3.39333	504
3.39700	503
3.40067	507
3.40433	506
3.40800	499
3.41167	490
3.41533	483
3.41900	479
3.42267	479
3.42633	484
3.43000	493
3.43367	502
3.43733	508
3.44100	512
3.44467	515
3.44833	515
3.45200	514
3.45567	512
3.45933	506
3.46300	501
3.46667	497
3.47033	490
3.47400	487
3.47767	491
3.48133	493
3.48500	490
3.48867	487
3.49233	485
3.49600	481
3.49967	475
3.50333	466
3.50700	463
3.51067	463
3.51433	464
3.51800	467
3.52167	471
3.52533	476
3.52900	480
3.53267	485
3.53633	486
3.54000	483
3.54367	480
3.54733	478
3.55100	475
3.55467	473
3.55833	474
3.56200	474
3.56567	475
3.56933	475
3.57300	472
3.57667	472
3.58033	474
3.58400	474
3.58767	474
3.59133	472
3.59500	469
3.59867	469
3.60233	468
3.60600	467
3.60967	465
3.61333	460
3.61700	458
3.62067	461
3.62433	463
3.62800	467
3.63167	471
3.63533	472
3.63900	471
3.64267	470
3.64633	468
3.65000	465
3.65367	462
3.65733	462
3.66100	465
3.66467	468
3.66833	469
3.67200	469
3.67567	465
3.67933	460
3.68300	454
3.68667	447
3.69033	443
3.69400	442
3.69767	444
3.70133	451
3.70500	464
3.70867	476
3.71233	479
3.71600	470
3.71967	457
3.72333	447
3.72700	443
3.73067	445
3.73433	448
3.73800	451
3.74167	454
3.74533	457
3.74900	459
3.75267	461
3.75633	464
3.76000	462
3.76367	458
3.76733	451
3.77100	442
3.77467	438
3.77833	439
3.78200	440
3.78567	441
3.78933	440
3.79300	437
3.79667	434
3.80033	432
3.80400	430
3.80767	427
3.81133	425
3.81500	427
3.81867	427
3.82233	429
3.82600	435
3.82967	441
3.83333	444
3.83700	449
3.84067	454
3.84433	457
3.84800	454
3.85167	448
3.85533	441
3.85900	435
3.86267	433
3.86633	435
3.87000	435
3.87367	435
3.87733	436
3.88100	438
3.88467	438
3.88833	432
3.89200	424
3.89567	418
3.89933	412
3.90300	411
3.90667	415
3.91033	421
3.91400	426
3.91767	432
3.92133	436
3.92500	437
3.92867	436
3.93233	436
3.93600	435
3.93967	432
3.94333	428
3.94700	425
3.95067	425
3.95433	428
3.95800	430
3.96167	427
3.96533	422
3.96900	421
3.97267	425
3.97633	426
3.98000	425
3.98367	422
3.98733	417
3.99100	413
3.99467	413
3.99833	414

[Chromatogram (Ch2)]
Interval(msec)	220
# of Points	1091
Start Time(min)	0.002
End Time(min)	3.998
R.Time (min)	Intensity
0.00167	1
0.00533	1
0.00900	1
0.01267	1
0.01633	1
0.02000	1
0.02367	1
0.02733	1
0.03100	1
0.03467	1
0.03833	0
0.04200	0
0.04567	-0
0.04933	-0
0.05300	-0
0.05667	-1
0.06033	-1
0.06400	-1
0.06767	-1
0.07133	-0
0.07500	-0
0.07867	0
0.08233	0
0.08600	0
0.08967	0
0.09333	1
0.09700	1
0.10067	1
0.10433	1
0.10800	2
0.11167	2
0.11533	2
0.11900	2
0.12267	2
0.12633	2
0.13000	2
0.13367	1
0.13733	1
0.14100	1
0.14467	1
0.14833	1
0.15200	0
0.15567	0
0.15933	0
0.16300	1
0.16667	1
0.17033	1
0.17400	1
0.17767	0
0.18133	0
0.18500	-0
0.18867	-0
0.19233	-0
0.19600	0
0.19967	0
0.20333	0
0.20700	0
0.21067	0
0.21433	0
0.21800	0
0.22167	0
0.22533	0
0.22900	0
0.23267	0
0.23633	0
0.24000	0
0.24367	0
0.24733	0
0.25100	0
0.25467	-0
0.25833	-0
0.26200	-0
0.26567	-0
0.26933	-0
0.27300	-0
0.27667	-1
0.28033	-1
0.28400	-1
0.28767	-1
0.29133	-2
0.29500	-2
0.29867	-2
0.30233	-2
0.30600	-2
0.30967	-2
0.31333	-2
0.31700	-3
0.32067	-3
0.32433	-3
0.32800	-3
0.33167	-4
0.33533	-4
0.33900	-4
0.34267	-3
0.34633	-3
0.35000	-3
0.35367	-2
0.35733	-2
0.36100	-1
0.36467	-1
0.36833	-0
0.37200	-0
0.37567	0
0.37933	1
0.38300	1
0.38667	1
0.39033	1
0.39400	1
0.39767	1
0.40133	1
0.40500	1
0.40867	1
0.41233	1
0.41600	1
0.41967	1
0.42333	0
0.42700	0
0.43067	0
0.43433	0
0.43800	-0
0.44167	-1
0.44533	-1
0.44900	-1
0.45267	-1
0.45633	-2
0.46000	-2
0.46367	-2
0.46733	-3
0.47100	-3
0.47467	-3
0.47833	-4
0.48200	-4
0.48567	-4
0.48933	-4
0.49300	-4
0.49667	-4
0.50033	-4
0.50400	-4
0.50767	-3
0.51133	-3
0.51500	-3
0.51867	-3
0.52233	-3
0.52600	-3
0.52967	-4
0.53333	-4
0.53700	-4
0.54067	-4
0.54433	-4
0.54800	-4
0.55167	-4
0.55533	-3
0.55900	-3
0.56267	-3
0.56633	-2
0.57000	-2
0.57367	-2
0.57733	-2
0.58100	-2
0.58467	-2
0.58833	-1
0.59200	-1
0.59567	-1
0.59933	-1
0.60300	-1
0.60667	-1
0.61033	-1
0.61400	-1
0.61767	-1
0.62133	-0
0.62500	-0
0.62867	-0
0.63233	-0
0.63600	-0
0.63967	-0
0.64333	-0
0.64700	-0
0.65067	-0
0.65433	-0
0.65800	-0
0.66167	-0
0.66533	-1
0.66900	-1
0.67267	-1
0.67633	-1
0.68000	-1
0.68367	-1
0.68733	-1
0.69100	-1
0.69467	-1
0.69833	-1
0.70200	-0
0.70567	0
0.70933	1
0.71300	1
0.71667	2
0.72033	2
0.72400	3
0.72767	3
0.73133	3
0.73500	2
0.73867	2
0.74233	2
0.74600	2
0.74967	2
0.75333	2
0.75700	2
0.76067	2
0.76433	2
0.76800	2
0.77167	2
0.77533	2
0.77900	1
0.78267	1
0.78633	1
0.79000	1
0.79367	1
0.79733	0
0.80100	-0
0.80467	-0
0.80833	-1
0.81200	-1
0.81567	-1
0.81933	-2
0.82300	-2
0.82667	-1
0.83033	-1
0.83400	-2
0.83767	-2
0.84133	-2
0.84500	-2
0.84867	-2
0.85233	-2
0.85600	-2
0.85967	-2
0.86333	-2
0.86700	-2
0.87067	-2
0.87433	-2
0.87800	-2
0.88167	-1
0.88533	-1
0.88900	-1
0.89267	-1
0.89633	-0
0.90000	-0
0.90367	-0
0.90733	-0
0.91100	-0
0.91467	0
0.91833	0
0.92200	0
0.92567	0
0.92933	0
0.93300	0
0.93667	-0
0.94033	-0
0.94400	-0
0.94767	-0
0.95133	-0
0.95500	-0
0.95867	-0
0.96233	-0
0.96600	-1
0.96967	-1
0.97333	-2
0.97700	-2
0.98067	-2
0.98433	-3
0.98800	-3
0.99167	-3
0.99533	-3
0.99900	-3
1.00267	-3
1.00633	-3
1.01000	-3
1.01367	-3
1.01733	-3
1.02100	-3
1.02467	-3
1.02833	-3
1.03200	-2
1.03567	-2
1.03933	-2
1.04300	-2
1.04667	-2
1.05033	-2
1.05400	-2
1.05767	-2
1.06133	-2
1.06500	-2
1.06867	-2
1.07233	-3
1.07600	-3
1.07967	-3
1.08333	-3
1.08700	-4
1.09067	-4
1.09433	-4
1.09800	-5
1.10167	-5
1.10533	-5
1.10900	-5
1.11267	-5
1.11633	-5
1.12000	-5
1.12367	-5
1.12733	-5
1.13100	-5
1.13467	-5
1.13833	-5
1.14200	-5
1.14567	-5
1.14933	-5
1.15300	-5
1.15667	-5
1.16033	-5
1.16400	-4
1.16767	-4
1.17133	-4
1.17500	-4
1.17867	-3
1.18233	-3
1.18600	-3
1.18967	-3
1.19333	-3
1.19700	-3
1.20067	-4
1.20433	-4
1.20800	-4
1.21167	-4
1.21533	-4
1.21900	-4
1.22267	-5
1.22633	-5
1.23000	-5
1.23367	-5
1.23733	-5
1.24100	-5
1.24467	-4
1.24833	-4
1.25200	-4
1.25567	-3
1.25933	-3
1.26300	-2
1.26667	-2
1.27033	-2
1.27400	-2
1.27767	-2
1.28133	-2
1.28500	-2
1.28867	-1
1.29233	-1
1.29600	-1
1.29967	-1
1.30333	-0
1.30700	-0
1.31067	-0
1.31433	-1
1.31800	-1
1.32167	-1
1.32533	-1
1.32900	-1
1.33267	-1
1.33633	-1
1.34000	-1
1.34367	-1
1.34733	-2
1.35100	-2
1.35467	-2
1.35833	-2
1.36200	-3
1.36567	-3
1.36933	-3
1.37300	-4
1.37667	-5
1.38033	-5
1.38400	-6
1.38767	-6
1.39133	-6
1.39500	-6
1.39867	-6
1.40233	-7
1.40600	-7
1.40967	-7
1.41333	-7
1.41700	-6
1.42067	-6
1.42433	-6
1.42800	-5
1.43167	-5
1.43533	-4
1.43900	-4
1.44267	-4
1.44633	-4
1.45000	-4
1.45367	-4
1.45733	-3
1.46100	-3
1.46467	-3
1.46833	-3
1.47200	-3
1.47567	-3
1.47933	-3
1.48300	-3
1.48667	-3
1.49033	-3
1.49400	-3
1.49767	-4
1.50133	-4
1.50500	-4
1.50867	-4
1.51233	-4
1.51600	-4
1.51967	-4
1.52333	-4
1.52700	-4
1.53067	-4
1.53433	-4
1.53800	-4
1.54167	-5
1.54533	-5
1.54900	-5
1.55267	-6
1.55633	-6
1.56000	-6
1.56367	-7
1.56733	-7
1.57100	-7
1.57467	-8
1.57833	-8
1.58200	-8
1.58567	-8
1.58933	-8
1.59300	-8
1.59667	-8
1.60033	-8
1.60400	-9
1.60767	-10
1.61133	-11
1.61500	-13
1.61867	-15
1.62233	-18
1.62600	-20
1.62967	-23
1.63333	-26
1.63700	-29
1.64067	-32
1.64433	-35
1.64800	-38
1.65167	-41
1.65533	-44
1.65900	-47
1.66267	-49
1.66633	-52
1.67000	-54
1.67367	-57
1.67733	-60
1.68100	-64
1.68467	-68
1.68833	-72
1.69200	-76
1.69567	-81
1.69933	-84
1.70300	-88
1.70667	-91
1.71033	-93
1.71400	-95
1.71767	-96
1.72133	-98
1.72500	-98
1.72867	-99
1.73233	-100
1.73600	-100
1.73967	-100
1.74333	-100
1.74700	-101
1.75067	-101
1.75433	-102
1.75800	-102
1.76167	-103
1.76533	-103
1.76900	-104
1.77267	-104
1.77633	-105
1.78000	-105
1.78367	-106
1.78733	-106
1.79100	-106
1.79467	-107
1.79833	-107
1.80200	-107
1.80567	-106
1.80933	-106
1.81300	-106
1.81667	-107
1.82033	-107
1.82400	-108
1.82767	-108
1.83133	-108
1.83500	-108
1.83867	-108
1.84233	-108
1.84600	-108
1.84967	-107
1.85333	-107
1.85700	-106
1.86067	-106
1.86433	-105
1.86800	-104
1.87167	-104
1.87533	-104
1.87900	-105
1.88267	-105
1.88633	-105
1.89000	-105
1.89367	-105
1.89733	-105
1.90100	-106
1.90467	-106
1.90833	-106
1.91200	-106
1.91567	-106
1.91933	-105
1.92300	-105
1.92667	-104
1.93033	-104
1.93400	-104
1.93767	-103
1.94133	-102
1.94500	-102
1.94867	-101
1.95233	-101
1.95600	-101
1.95967	-100
1.96333	-99
1.96700	-99
1.97067	-98
1.97433	-98
1.97800	-98
1.98167	-98
1.98533	-98
1.98900	-98
1.99267	-98
1.99633	-98
2.00000	-98
2.00367	-97
2.00733	-97
2.01100	-96
2.01467	-95
2.01833	-94
2.02200	-94
2.02567	-94
2.02933	-94
2.03300	-94
2.03667	-94
2.04033	-94
2.04400	-94
2.04767	-94
2.05133	-94
2.05500	-94
2.05867	-94
2.06233	-94
2.06600	-94
2.06967	-94
2.07333	-95
2.07700	-95
2.08067	-95
2.08433	-94
2.08800	-94
2.09167	-93
2.09533	-93
2.09900	-93
2.10267	-92
2.10633	-92
2.11000	-91
2.11367	-91
2.11733	-90
2.12100	-90
2.12467	-89
2.12833	-89
2.13200	-88
2.13567	-88
2.13933	-88
2.14300	-87
2.14667	-87
2.15033	-87
2.15400	-87
2.15767	-86
2.16133	-86
2.16500	-86
2.16867	-85
2.17233	-85
2.17600	-85
2.17967	-85
2.18333	-85
2.18700	-84
2.19067	-84
2.19433	-83
2.19800	-83
2.20167	-83
2.20533	-83
2.20900	-84
2.21267	-83
2.21633	-83
2.22000	-83
2.22367	-83
2.22733	-83
2.23100	-83
2.23467	-83
2.23833	-84
2.24200	-84
2.24567	-84
2.24933	-84
2.25300	-84
2.25667	-83
2.26033	-82
2.26400	-81
2.26767	-80
2.27133	-80
2.27500	-79
2.27867	-79
2.28233	-78
2.28600	-78
2.28967	-77
2.29333	-76
2.29700	-76
2.30067	-75
2.30433	-75
2.30800	-75
2.31167	-75
2.31533	-75
2.31900	-75
2.32267	-75
2.32633	-74
2.33000	-74
2.33367	-73
2.33733	-72
2.34100	-72
2.34467	-71
2.34833	-70
2.35200	-69
2.35567	-69
2.35933	-68
2.36300	-67
2.36667	-67
2.37033	-66
2.37400	-64
2.37767	-62
2.38133	-59
2.38500	-55
2.38867	-51
2.39233	-47
2.39600	-42
2.39967	-37
2.40333	-32
2.40700	-28
2.41067	-23
2.41433	-19
2.41800	-15
2.42167	-12
2.42533	-9
2.42900	-7
2.43267	-5
2.43633	-3
2.44000	-1
2.44367	0
2.44733	2
2.45100	3
2.45467	5
2.45833	6
2.46200	7
2.46567	8
2.46933	9
2.47300	9
2.47667	10
2.48033	11
2.48400	12
2.48767	13
2.49133	13
2.49500	13
2.49867	13
2.50233	13
2.50600	13
2.50967	13
2.51333	13
2.51700	13
2.52067	12
2.52433	12
2.52800	11
2.53167	10
2.53533	10
2.53900	10
2.54267	10
2.54633	11
2.55000	11
2.55367	12
2.55733	12
2.56100	13
2.56467	14
2.56833	14
2.57200	15
2.57567	15
2.57933	15
2.58300	16
2.58667	16
2.59033	16
2.59400	16
2.59767	16
2.60133	16
2.60500	17
2.60867	18
2.61233	19
2.61600	19
2.61967	20
2.62333	20
2.62700	21
2.63067	21
2.63433	21
2.63800	20
2.64167	20
2.64533	20
2.64900	20
2.65267	21
2.65633	21
2.66000	21
2.66367	21
2.66733	22
2.67100	22
2.67467	22
2.67833	22
2.68200	22
2.68567	22
2.68933	23
2.69300	23
2.69667	24
2.70033	24
2.70400	24
2.70767	24
2.71133	24
2.71500	25
2.71867	25
2.72233	25
2.72600	25
2.72967	26
2.73333	26
2.73700	27
2.74067	27
2.74433	26
2.74800	26
2.75167	26
2.75533	26
2.75900	26
2.76267	26
2.76633	26
2.77000	26
2.77367	27
2.77733	27
2.78100	28
2.78467	28
2.78833	28
2.79200	28
2.79567	28
2.79933	28
2.80300	28
2.80667	27
2.81033	27
2.81400	27
2.81767	27
2.82133	27
2.82500	27
2.82867	27
2.83233	27
2.83600	27
2.83967	28
2.84333	28
2.84700	28
2.85067	29
2.85433	29
2.85800	29
2.86167	28
2.86533	26
2.86900	22
2.87267	16
2.87633	6
2.88000	-7
2.88367	-25
2.88733	-48
2.89100	-76
2.89467	-110
2.89833	-148
2.90200	-192
2.90567	-239
2.90933	-291
2.91300	-347
2.91667	-404
2.92033	-465
2.92400	-526
2.92767	-588
2.93133	-650
2.93500	-711
2.93867	-770
2.94233	-826
2.94600	-878
2.94967	-930
2.95333	-985
2.95700	-1041
2.96067	-1086
2.96433	-1113
2.96800	-1116
2.97167	-1093
2.97533	-1048
2.97900	-986
2.98267	-913
2.98633	-833
2.99000	-751
2.99367	-671
2.99733	-594
3.00100	-523
3.00467	-457
3.00833	-397
3.01200	-343
3.01567	-296
3.01933	-253
3.02300	-217
3.02667	-185
3.03033	-157
3.03400	-132
3.03767	-112
3.04133	-94
3.04500	-78
3.04867	-65
3.05233	-53
3.05600	-43
3.05967	-35
3.06333	-27
3.06700	-21
3.07067	-15
3.07433	-11
3.07800	-7
3.08167	-3
3.08533	-0
3.08900	2
3.09267	5
3.09633	6
3.10000	8
3.10367	9
3.10733	11
3.11100	12
3.11467	13
3.11833	14
3.12200	15
3.12567	16
3.12933	16
3.13300	17
3.13667	17
3.14033	17
3.14400	18
3.14767	18
3.15133	18
3.15500	18
3.15867	19
3.16233	19
3.16600	19
3.16967	19
3.17333	19
3.17700	19
3.18067	20
3.18433	20
3.18800	20
3.19167	20
3.19533	20
3.19900	20
3.20267	20
3.20633	20
3.21000	20
3.21367	20
3.21733	20
3.22100	21
3.22467	21
3.22833	21
3.23200	22
3.23567	22
3.23933	23
3.24300	23
3.24667	23
3.25033	23
3.25400	23
3.25767	23
3.26133	24
3.26500	24
3.26867	24
3.27233	24
3.27600	24
3.27967	24
3.28333	24
3.28700	25
3.29067	25
3.29433	25
3.29800	25
3.30167	25
3.30533	25
3.30900	25
3.31267	26
3.31633	26
3.32000	26
3.32367	26
3.32733	26
3.33100	26
3.33467	26
3.33833	26
3.34200	26
3.34567	26
3.34933	27
3.35300	27
3.35667	27
3.36033	26
3.36400	26
3.36767	26
3.37133	26
3.37500	27
3.37867	27
3.38233	27
3.38600	27
3.38967	27
3.39333	27
3.39700	26
3.40067	26
3.40433	26
3.40800	26
3.41167	26
3.41533	26
3.41900	26
3.42267	26
3.42633	26
3.43000	26
3.43367	26
3.43733	27
3.44100	28
3.44467	28
3.44833	29
3.45200	29
3.45567	30
3.45933	30
3.46300	30
3.46667	31
3.47033	31
3.47400	31
3.47767	31
3.48133	31
3.48500	31
3.48867	31
3.49233	31
3.49600	31
3.49967	32
3.50333	32
3.50700	32
3.51067	32
3.51433	32
3.51800	32
3.52167	32
3.52533	32
3.52900	32
3.53267	32
3.53633	31
3.54000	31
3.54367	31
3.54733	30
3.55100	30
3.55467	30
3.55833	30
3.56200	29
3.56567	29
3.56933	29
3.57300	29
3.57667	29
3.58033	29
3.58400	29
3.58767	29
3.59133	29
3.59500	29
3.59867	30
3.60233	30
3.60600	30
3.60967	30
3.61333	30
3.61700	30
3.62067	30
3.62433	30
3.62800	30
3.63167	29
3.63533	29
3.63900	29
3.64267	29
3.64633	29
3.65000	29
3.65367	29
3.65733	29
3.66100	29
3.66467	29
3.66833	29
3.67200	28
3.67567	28
3.67933	28
3.68300	28
3.68667	28
3.69033	28
3.69400	28
3.69767	28
3.70133	28
3.70500	28
3.70867	28
3.71233	28
3.71600	28
3.71967	28
3.72333	28
3.72700	28
3.73067	28
3.73433	28
3.73800	28
3.74167	28
3.74533	28
3.74900	28
3.75267	28
3.75633	28
3.76000	28
3.76367	28
3.76733	28
3.77100	28
3.77467	29
3.77833	29
3.78200	29
3.78567	29
3.78933	29
3.79300	29
3.79667	29
3.80033	29
3.80400	29
3.80767	29
3.81133	28
3.81500	28
3.81867	28
3.82233	28
3.82600	28
3.82967	28
3.83333	28
3.83700	28
3.84067	28
3.84433	27
3.84800	27
3.85167	27
3.85533	27
3.85900	27
3.86267	27
3.86633	27
3.87000	27
3.87367	27
3.87733	27
3.88100	27
3.88467	27
3.88833	26
3.89200	26
3.89567	26
3.89933	26
3.90300	27
3.90667	27
3.91033	27
3.91400	27
3.91767	28
3.92133	28
3.92500	28
3.92867	28
3.93233	28
3.93600	29
3.93967	29
3.94333	29
3.94700	29
3.95067	30
3.95433	30
3.95800	30
3.96167	30
3.96533	30
3.96900	29
3.97267	29
3.97633	29
3.98000	29
3.98367	29
3.98733	29
3.99100	29
3.99467	28
3.99833	28

[Chromatogram (Ch3)]
Interval(msec)	220
# of Points	1091
Start Time(min)	0.002
End Time(min)	3.998
R.Time (min)	Intensity
0.00167	-1
0.00533	-1
0.00900	-1
0.01267	-0
0.01633	-1
0.02000	-1
0.02367	-3
0.02733	-2
0.03100	-2
0.03467	-1
0.03833	-1
0.04200	0
0.04567	3
0.04933	4
0.05300	2
0.05667	1
0.06033	2
0.06400	2
0.06767	2
0.07133	4
0.07500	2
0.07867	1
0.08233	0
0.08600	1
0.08967	1
0.09333	-1
0.09700	-3
0.10067	-4
0.10433	-2
0.10800	-1
0.11167	-1
0.11533	-3
0.11900	-1
0.12267	-0
0.12633	2
0.13000	0
0.13367	-0
0.13733	1
0.14100	1
0.14467	0
0.14833	-1
0.15200	0
0.15567	3
0.15933	4
0.16300	3
0.16667	3
0.17033	3
0.17400	2
0.17767	1
0.18133	1
0.18500	1
0.18867	2
0.19233	4
0.19600	6
0.19967	5
0.20333	4
0.20700	4
0.21067	5
0.21433	7
0.21800	8
0.22167	8
0.22533	8
0.22900	6
0.23267	6
0.23633	6
0.24000	7
0.24367	8
0.24733	8
0.25100	8
0.25467	7
0.25833	8
0.26200	9
0.26567	8
0.26933	7
0.27300	8
0.27667	10
0.28033	9
0.28400	8
0.28767	7
0.29133	7
0.29500	7
0.29867	7
0.30233	8
0.30600	9
0.30967	11
0.31333	12
0.31700	12
0.32067	12
0.32433	9
0.32800	10
0.33167	10
0.33533	11
0.33900	10
0.34267	9
0.34633	8
0.35000	10
0.35367	9
0.35733	8
0.36100	8
0.36467	9
0.36833	10
0.37200	11
0.37567	10
0.37933	10
0.38300	10
0.38667	10
0.39033	9
0.39400	9
0.39767	10
0.40133	11
0.40500	11
0.40867	12
0.41233	12
0.41600	13
0.41967	12
0.42333	10
0.42700	10
0.43067	10
0.43433	9
0.43800	8
0.44167	7
0.44533	6
0.44900	6
0.45267	6
0.45633	7
0.46000	8
0.46367	10
0.46733	11
0.47100	12
0.47467	13
0.47833	13
0.48200	12
0.48567	11
0.48933	12
0.49300	12
0.49667	13
0.50033	14
0.50400	12
0.50767	11
0.51133	11
0.51500	11
0.51867	9
0.52233	7
0.52600	5
0.52967	7
0.53333	10
0.53700	12
0.54067	14
0.54433	14
0.54800	13
0.55167	13
0.55533	14
0.55900	13
0.56267	11
0.56633	12
0.57000	11
0.57367	8
0.57733	4
0.58100	5
0.58467	6
0.58833	7
0.59200	6
0.59567	6
0.59933	5
0.60300	7
0.60667	9
0.61033	12
0.61400	13
0.61767	14
0.62133	15
0.62500	15
0.62867	14
0.63233	13
0.63600	13
0.63967	13
0.64333	15
0.64700	16
0.65067	18
0.65433	19
0.65800	17
0.66167	15
0.66533	14
0.66900	13
0.67267	13
0.67633	13
0.68000	14
0.68367	16
0.68733	15
0.69100	15
0.69467	17
0.69833	18
0.70200	20
0.70567	21
0.70933	20
0.71300	19
0.71667	20
0.72033	18
0.72400	15
0.72767	13
0.73133	12
0.73500	11
0.73867	12
0.74233	12
0.74600	14
0.74967	16
0.75333	17
0.75700	18
0.76067	18
0.76433	18
0.76800	18
0.77167	18
0.77533	18
0.77900	17
0.78267	18
0.78633	20
0.79000	22
0.79367	22
0.79733	22
0.80100	22
0.80467	21
0.80833	21
0.81200	22
0.81567	23
0.81933	23
0.82300	20
0.82667	19
0.83033	20
0.83400	23
0.83767	26
0.84133	26
0.84500	26
0.84867	25
0.85233	23
0.85600	21
0.85967	20
0.86333	20
0.86700	23
0.87067	27
0.87433	27
0.87800	23
0.88167	20
0.88533	17
0.88900	18
0.89267	20
0.89633	20
0.90000	19
0.90367	18
0.90733	18
0.91100	19
0.91467	20
0.91833	18
0.92200	16
0.92567	18
0.92933	18
0.93300	19
0.93667	20
0.94033	22
0.94400	23
0.94767	22
0.95133	22
0.95500	22
0.95867	22
0.96233	22
0.96600	22
0.96967	25
0.97333	25
0.97700	23
0.98067	22
0.98433	20
0.98800	18
0.99167	17
0.99533	18
0.99900	18
1.00267	19
1.00633	20
1.01000	22
1.01367	24
1.01733	25
1.02100	26
1.02467	27
1.02833	26
1.03200	23
1.03567	22
1.03933	22
1.04300	22
1.04667	22
1.05033	23
1.05400	23
1.05767	22
1.06133	22
1.06500	22
1.06867	20
1.07233	20
1.07600	20
1.07967	21
1.08333	23
1.08700	26
1.09067	27
1.09433	27
1.09800	26
1.10167	24
1.10533	23
1.10900	26
1.11267	26
1.11633	25
1.12000	23
1.12367	21
1.12733	22
1.13100	25
1.13467	26
1.13833	26
1.14200	24
1.14567	23
1.14933	23
1.15300	23
1.15667	24
1.16033	27
1.16400	29
1.16767	28
1.17133	25
1.17500	22
1.17867	20
1.18233	21
1.18600	22
1.18967	23
1.19333	25
1.19700	25
1.20067	25
1.20433	24
1.20800	23
1.21167	22
1.21533	21
1.21900	19
1.22267	18
1.22633	19
1.23000	21
1.23367	24
1.23733	24
1.24100	24
1.24467	25
1.24833	27
1.25200	27
1.25567	27
1.25933	27
1.26300	27
1.26667	27
1.27033	25
1.27400	23
1.27767	22
1.28133	19
1.28500	18
1.28867	21
1.29233	24
1.29600	24
1.29967	23
1.30333	23
1.30700	24
1.31067	23
1.31433	23
1.31800	23
1.32167	24
1.32533	24
1.32900	22
1.33267	20
1.33633	20
1.34000	20
1.34367	19
1.34733	20
1.35100	22
1.35467	23
1.35833	25
1.36200	24
1.36567	22
1.36933	21
1.37300	20
1.37667	20
1.38033	22
1.38400	24
1.38767	24
1.39133	23
1.39500	22
1.39867	22
1.40233	22
1.40600	21
1.40967	21
1.41333	22
1.41700	23
1.42067	23
1.42433	25
1.42800	26
1.43167	24
1.43533	23
1.43900	22
1.44267	23
1.44633	24
1.45000	26
1.45367	28
1.45733	27
1.46100	26
1.46467	26
1.46833	24
1.47200	23
1.47567	23
1.47933	23
1.48300	23
1.48667	22
1.49033	22
1.49400	22
1.49767	23
1.50133	22
1.50500	23
1.50867	24
1.51233	25
1.51600	25
1.51967	25
1.52333	25
1.52700	26
1.53067	26
1.53433	26
1.53800	28
1.54167	28
1.54533	28
1.54900	26
1.55267	25
1.55633	24
1.56000	21
1.56367	19
1.56733	20
1.57100	21
1.57467	22
1.57833	24
1.58200	27
1.58567	29
1.58933	28
1.59300	27
1.59667	26
1.60033	27
1.60400	30
1.60767	32
1.61133	33
1.61500	33
1.61867	33
1.62233	30
1.62600	27
1.62967	25
1.63333	25
1.63700	27
1.64067	29
1.64433	32
1.64800	32
1.65167	31
1.65533	31
1.65900	31
1.66267	31
1.66633	32
1.67000	34
1.67367	36
1.67733	37
1.68100	38
1.68467	38
1.68833	39
1.69200	38
1.69567	37
1.69933	38
1.70300	37
1.70667	36
1.71033	34
1.71400	33
1.71767	33
1.72133	34
1.72500	35
1.72867	35
1.73233	36
1.73600	37
1.73967	37
1.74333	38
1.74700	40
1.75067	40
1.75433	39
1.75800	39
1.76167	39
1.76533	41
1.76900	43
1.77267	43
1.77633	43
1.78000	43
1.78367	42
1.78733	42
1.79100	43
1.79467	43
1.79833	43
1.80200	43
1.80567	44
1.80933	46
1.81300	49
1.81667	51
1.82033	52
1.82400	52
1.82767	52
1.83133	52
1.83500	51
1.83867	52
1.84233	52
1.84600	52
1.84967	53
1.85333	54
1.85700	56
1.86067	58
1.86433	58
1.86800	57
1.87167	57
1.87533	55
1.87900	54
1.88267	54
1.88633	58
1.89000	61
1.89367	61
1.89733	62
1.90100	62
1.90467	64
1.90833	65
1.91200	64
1.91567	62
1.91933	62
1.92300	63
1.92667	64
1.93033	64
1.93400	63
1.93767	62
1.94133	63
1.94500	65
1.94867	70
1.95233	72
1.95600	74
1.95967	74
1.96333	73
1.96700	76
1.97067	78
1.97433	78
1.97800	79
1.98167	80
1.98533	82
1.98900	82
1.99267	82
1.99633	85
2.00000	85
2.00367	85
2.00733	85
2.01100	85
2.01467	83
2.01833	81
2.02200	82
2.02567	86
2.02933	90
2.03300	92
2.03667	94
2.04033	96
2.04400	97
2.04767	100
2.05133	99
2.05500	97
2.05867	98
2.06233	101
2.06600	102
2.06967	102
2.07333	100
2.07700	100
2.08067	103
2.08433	104
2.08800	104
2.09167	105
2.09533	106
2.09900	107
2.10267	106
2.10633	106
2.11000	105
2.11367	105
2.11733	104
2.12100	105
2.12467	105
2.12833	106
2.13200	109
2.13567	112
2.13933	112
2.14300	113
2.14667	114
2.15033	116
2.15400	117
2.15767	117
2.16133	119
2.16500	119
2.16867	120
2.17233	122
2.17600	122
2.17967	120
2.18333	119
2.18700	119
2.19067	118
2.19433	119
2.19800	120
2.20167	122
2.20533	125
2.20900	126
2.21267	126
2.21633	126
2.22000	127
2.22367	129
2.22733	130
2.23100	132
2.23467	133
2.23833	132
2.24200	130
2.24567	131
2.24933	133
2.25300	135
2.25667	138
2.26033	140
2.26400	140
2.26767	138
2.27133	137
2.27500	136
2.27867	136
2.28233	134
2.28600	133
2.28967	132
2.29333	132
2.29700	133
2.30067	133
2.30433	133
2.30800	135
2.31167	138
2.31533	141
2.31900	142
2.32267	138
2.32633	136
2.33000	136
2.33367	139
2.33733	141
2.34100	143
2.34467	142
2.34833	142
2.35200	144
2.35567	145
2.35933	144
2.36300	142
2.36667	141
2.37033	143
2.37400	144
2.37767	146
2.38133	146
2.38500	144
2.38867	141
2.39233	140
2.39600	140
2.39967	140
2.40333	143
2.40700	145
2.41067	148
2.41433	148
2.41800	147
2.42167	146
2.42533	146
2.42900	146
2.43267	147
2.43633	149
2.44000	153
2.44367	194
2.44733	275
2.45100	354
2.45467	413
2.45833	441
2.46200	437
2.46567	419
2.46933	402
2.47300	389
2.47667	376
2.48033	357
2.48400	332
2.48767	306
2.49133	287
2.49500	288
2.49867	312
2.50233	362
2.50600	425
2.50967	487
2.51333	540
2.51700	579
2.52067	606
2.52433	625
2.52800	641
2.53167	654
2.53533	666
2.53900	678
2.54267	694
2.54633	710
2.55000	726
2.55367	742
2.55733	759
2.56100	774
2.56467	788
2.56833	799
2.57200	810
2.57567	818
2.57933	821
2.58300	819
2.58667	813
2.59033	804
2.59400	793
2.59767	778
2.60133	764
2.60500	752
2.60867	739
2.61233	728
2.61600	719
2.61967	711
2.62333	702
2.62700	694
2.63067	687
2.63433	680
2.63800	673
2.64167	667
2.64533	662
2.64900	660
2.65267	658
2.65633	656
2.66000	656
2.66367	657
2.66733	658
2.67100	662
2.67467	665
2.67833	668
2.68200	671
2.68567	677
2.68933	680
2.69300	682
2.69667	686
2.70033	690
2.70400	694
2.70767	698
2.71133	700
2.71500	701
2.71867	702
2.72233	701
2.72600	701
2.72967	697
2.73333	693
2.73700	688
2.74067	682
2.74433	677
2.74800	673
2.75167	670
2.75533	665
2.75900	659
2.76267	652
2.76633	647
2.77000	641
2.77367	636
2.77733	632
2.78100	628
2.78467	625
2.78833	622
2.79200	619
2.79567	617
2.79933	614
2.80300	612
2.80667	610
2.81033	610
2.81400	611
2.81767	610
2.82133	608
2.82500	605
2.82867	604
2.83233	605
2.83600	615
2.83967	642
2.84333	699
2.84700	803
2.85067	981
2.85433	1250
2.85800	1623
2.86167	2094
2.86533	2645
2.86900	3235
2.87267	3816
2.87633	4341
2.88000	4767
2.88367	5065
2.88733	5223
2.89100	5239
2.89467	5132
2.89833	4929
2.90200	4655
2.90567	4340
2.90933	4004
2.91300	3664
2.91667	3334
2.92033	3025
2.92400	2740
2.92767	2481
2.93133	2249
2.93500	2042
2.93867	1858
2.94233	1696
2.94600	1555
2.94967	1431
2.95333	1325
2.95700	1235
2.96067	1155
2.96433	1084
2.96800	1022
2.97167	968
2.97533	921
2.97900	881
2.98267	846
2.98633	815
2.99000	789
2.99367	768
2.99733	754
3.00100	740
3.00467	725
3.00833	710
3.01200	698
3.01567	688
3.01933	680
3.02300	674
3.02667	668
3.03033	664
3.03400	659
3.03767	654
3.04133	651
3.04500	649
3.04867	646
3.05233	644
3.05600	642
3.05967	640
3.06333	640
3.06700	639
3.07067	639
3.07433	637
3.07800	637
3.08167	636
3.08533	634
3.08900	633
3.09267	630
3.09633	628
3.10000	626
3.10367	625
3.10733	625
3.11100	624
3.11467	622
3.11833	618
3.12200	616
3.12567	617
3.12933	618
3.13300	617
3.13667	614
3.14033	612
3.14400	612
3.14767	611
3.15133	609
3.15500	607
3.15867	606
3.16233	606
3.16600	609
3.16967	610
3.17333	607
3.17700	605
3.18067	603
3.18433	601
3.18800	598
3.19167	598
3.19533	597
3.19900	598
3.20267	598
3.20633	597
3.21000	597
3.21367	595
3.21733	594
3.22100	594
3.22467	593
3.22833	590
3.23200	588
3.23567	585
3.23933	586
3.24300	584
3.24667	583
3.25033	583
3.25400	583
3.25767	581
3.26133	579
3.26500	578
3.26867	576
3.27233	573
3.27600	571
3.27967	569
3.28333	565
3.28700	564
3.29067	564
3.29433	565
3.29800	565
3.30167	561
3.30533	557
3.30900	554
3.31267	551
3.31633	550
3.32000	548
3.32367	548
3.32733	546
3.33100	542
3.33467	539
3.33833	535
3.34200	533
3.34567	533
3.34933	534
3.35300	533
3.35667	530
3.36033	527
3.36400	524
3.36767	523
3.37133	523
3.37500	520
3.37867	517
3.38233	514
3.38600	511
3.38967	509
3.39333	507
3.39700	506
3.40067	505
3.40433	502
3.40800	499
3.41167	497
3.41533	496
3.41900	495
3.42267	493
3.42633	490
3.43000	488
3.43367	488
3.43733	486
3.44100	483
3.44467	481
3.44833	479
3.45200	476
3.45567	473
3.45933	472
3.46300	471
3.46667	469
3.47033	466
3.47400	465
3.47767	463
3.48133	462
3.48500	459
3.48867	456
3.49233	454
3.49600	452
3.49967	449
3.50333	448
3.50700	448
3.51067	449
3.51433	448
3.51800	446
3.52167	444
3.52533	442
3.52900	442
3.53267	442
3.53633	442
3.54000	441
3.54367	442
3.54733	441
3.55100	439
3.55467	437
3.55833	433
3.56200	429
3.56567	427
3.56933	426
3.57300	426
3.57667	424
3.58033	421
3.58400	418
3.58767	418
3.59133	416
3.59500	415
3.59867	416
3.60233	415
3.60600	414
3.60967	413
3.61333	414
3.61700	413
3.62067	411
3.62433	409
3.62800	408
3.63167	407
3.63533	406
3.63900	405
3.64267	404
3.64633	402
3.65000	402
3.65367	400
3.65733	399
3.66100	399
3.66467	397
3.66833	397
3.67200	396
3.67567	394
3.67933	392
3.68300	391
3.68667	389
3.69033	387
3.69400	388
3.69767	387
3.70133	386
3.70500	385
3.70867	383
3.71233	384
3.71600	384
3.71967	384
3.72333	383
3.72700	381
3.73067	380
3.73433	379
3.73800	379
3.74167	380
3.74533	381
3.74900	379
3.75267	378
3.75633	377
3.76000	375
3.76367	372
3.76733	371
3.77100	372
3.77467	372
3.77833	373
3.78200	376
3.78567	377
3.78933	376
3.79300	373
3.79667	371
3.80033	369
3.80400	367
3.80767	365
3.81133	363
3.81500	363
3.81867	362
3.82233	361
3.82600	361
3.82967	362
3.83333	363
3.83700	362
3.84067	361
3.84433	359
3.84800	358
3.85167	357
3.85533	355
3.85900	353
3.86267	352
3.86633	352
3.87000	352
3.87367	350
3.87733	347
3.88100	345
3.88467	343
3.88833	342
3.89200	340
3.89567	338
3.89933	337
3.90300	337
3.90667	338
3.91033	338
3.91400	336
3.91767	333
3.92133	330
3.92500	329
3.92867	328
3.93233	328
3.93600	326
3.93967	324
3.94333	322
3.94700	319
3.95067	317
3.95433	315
3.95800	312
3.96167	311
3.96533	312
3.96900	313
3.97267	312
3.97633	310
3.98000	306
3.98367	301
3.98733	298
3.99100	299
3.99467	299
3.99833	296

[Status Trace (Column Oven Temperature)]
Interval(msec)	1000
# of Points	240
Start Time(min)	0.015
End Time(min)	3.998
Intensity Units	
Intensity Multiplier	1
R.Time (min)	Intensity
0.01473	35.06
0.03140	35.06
0.04807	35.07
0.06473	35.06
0.08140	35.05
0.09807	35.05
0.11473	35.05
0.13140	35.04
0.14807	35.03
0.16473	35.03
0.18140	35.01
0.19807	35.01
0.21473	35.01
0.23140	35.01
0.24807	35.00
0.26473	35.00
0.28140	35.01
0.29807	35.01
0.31473	35.01
0.33140	35.03
0.34807	35.02
0.36473	35.01
0.38140	35.00
0.39807	35.00
0.41473	35.00
0.43140	35.00
0.44807	35.01
0.46473	35.02
0.48140	35.05
0.49807	35.06
0.51473	35.06
0.53140	35.07
0.54807	35.07
0.56473	35.07
0.58140	35.07
0.59807	35.06
0.61473	35.04
0.63140	35.04
0.64807	35.04
0.66473	35.05
0.68140	35.05
0.69807	35.04
0.71473	35.02
0.73140	35.02
0.74807	35.01
0.76473	35.00
0.78140	34.98
0.79807	34.98
0.81473	34.98
0.83140	34.99
0.84807	34.99
0.86473	34.98
0.88140	34.98
0.89807	34.98
0.91473	34.97
0.93140	34.97
0.94807	34.97
0.96473	34.98
0.98140	34.98
0.99807	34.99
1.01473	34.99
1.03140	34.98
1.04807	34.99
1.06473	35.00
1.08140	34.99
1.09807	34.99
1.11473	35.00
1.13140	35.01
1.14807	35.02
1.16473	35.03
1.18140	35.01
1.19807	35.01
1.21473	35.01
1.23140	35.02
1.24807	35.02
1.26473	35.01
1.28140	35.00
1.29807	34.99
1.31473	34.98
1.33140	34.98
1.34807	34.97
1.36473	34.98
1.38140	35.00
1.39807	35.01
1.41473	35.00
1.43140	35.00
1.44807	35.00
1.46473	34.99
1.48140	34.99
1.49807	35.00
1.51473	35.00
1.53140	35.01
1.54807	35.02
1.56473	35.03
1.58140	35.05
1.59807	35.08
1.61473	35.17
1.63140	35.32
1.64807	35.51
1.66473	35.75
1.68140	36.06
1.69807	36.44
1.71473	36.79
1.73140	37.12
1.74807	37.46
1.76473	37.79
1.78140	38.13
1.79807	38.46
1.81473	38.80
1.83140	39.13
1.84807	39.46
1.86473	39.78
1.88140	40.11
1.89807	40.44
1.91473	40.76
1.93140	41.08
1.94807	41.42
1.96473	41.73
1.98140	42.04
1.99807	42.37
2.01473	42.68
2.03140	43.01
2.04807	43.33
2.06473	43.65
2.08140	43.99
2.09807	44.31
2.11473	44.64
2.13140	44.97
2.14807	45.28
2.16473	45.60
2.18140	45.93
2.19807	46.28
2.21473	46.59
2.23140	46.94
2.24807	47.30
2.26473	47.62
2.28140	47.95
2.29807	48.26
2.31473	48.63
2.33140	48.94
2.34807	49.24
2.36473	49.54
2.38140	49.70
2.39807	49.74
2.41473	49.71
2.43140	49.72
2.44807	49.72
2.46473	49.72
2.48140	49.73
2.49807	49.75
2.51473	49.74
2.53140	49.75
2.54807	49.76
2.56473	49.77
2.58140	49.80
2.59807	49.81
2.61473	49.80
2.63140	49.81
2.64807	49.82
2.66473	49.83
2.68140	49.84
2.69807	49.85
2.71473	49.86
2.73140	49.85
2.74807	49.86
2.76473	49.85
2.78140	49.85
2.79807	49.86
2.81473	49.86
2.83140	49.87
2.84807	49.87
2.86473	49.86
2.88140	49.86
2.89807	49.87
2.91473	49.88
2.93140	49.89
2.94807	49.91
2.96473	49.93
2.98140	49.95
2.99807	49.96
3.01473	49.98
3.03140	49.99
3.04807	50.00
3.06473	50.00
3.08140	50.00
3.09807	49.99
3.11473	49.99
3.13140	49.99
3.14807	50.00
3.16473	50.01
3.18140	50.03
3.19807	50.05
3.21473	50.05
3.23140	50.05
3.24807	50.07
3.26473	50.07
3.28140	50.08
3.29807	50.09
3.31473	50.09
3.33140	50.09
3.34807	50.09
3.36473	50.09
3.38140	50.09
3.39807	50.11
3.41473	50.11
3.43140	50.12
3.44807	50.10
3.46473	50.09
3.48140	50.07
3.49807	50.05
3.51473	50.03
3.53140	50.03
3.54807	50.02
3.56473	50.02
3.58140	50.02
3.59807	50.01
3.61473	50.01
3.63140	50.02
3.64807	50.02
3.66473	50.03
3.68140	50.03
3.69807	50.03
3.71473	50.04
3.73140	50.05
3.74807	50.05
3.76473	50.05
3.78140	50.04
3.79807	50.04
3.81473	50.04
3.83140	50.04
3.84807	50.05
3.86473	50.05
3.88140	50.06
3.89807	50.06
3.91473	50.06
3.93140	50.05
3.94807	50.04
3.96473	50.04
3.98140	50.03
3.99807	50.04

[Status Trace (Injection Unit Temperature)]
Interval(msec)	1000
# of Points	240
Start Time(min)	0.015
End Time(min)	3.998
Intensity Units	
Intensity Multiplier	1
R.Time (min)	Intensity
0.01473	99.98
0.03140	99.98
0.04807	99.98
0.06473	99.98
0.08140	99.99
0.09807	99.98
0.11473	99.98
0.13140	99.98
0.14807	99.98
0.16473	99.98
0.18140	99.98
0.19807	99.98
0.21473	99.98
0.23140	99.99
0.24807	99.98
0.26473	99.99
0.28140	99.98
0.29807	99.99
0.31473	99.99
0.33140	99.99
0.34807	99.98
0.36473	99.99
0.38140	99.99
0.39807	99.99
0.41473	99.99
0.43140	99.98
0.44807	99.99
0.46473	99.99
0.48140	99.99
0.49807	99.99
0.51473	99.99
0.53140	99.99
0.54807	99.99
0.56473	99.99
0.58140	99.99
0.59807	99.99
0.61473	99.99
0.63140	99.99
0.64807	99.99
0.66473	99.99
0.68140	99.98
0.69807	99.99
0.71473	99.99
0.73140	99.99
0.74807	99.99
0.76473	99.99
0.78140	99.99
0.79807	99.99
0.81473	99.99
0.83140	99.99
0.84807	99.99
0.86473	99.99
0.88140	99.99
0.89807	99.99
0.91473	99.98
0.93140	99.99
0.94807	99.98
0.96473	99.98
0.98140	99.98
0.99807	99.99
1.01473	99.99
1.03140	99.99
1.04807	99.98
1.06473	99.99
1.08140	99.98
1.09807	99.99
1.11473	99.99
1.13140	99.99
1.14807	99.98
1.16473	99.99
1.18140	99.99
1.19807	99.98
1.21473	99.98
1.23140	99.98
1.24807	99.99
1.26473	99.98
1.28140	99.98
1.29807	99.99
1.31473	99.99
1.33140	99.99
1.34807	99.98
1.36473	99.98
1.38140	99.99
1.39807	99.98
1.41473	99.98
1.43140	99.98
1.44807	99.98
1.46473	99.99
1.48140	99.98
1.49807	99.99
1.51473	99.99
1.53140	99.99
1.54807	99.99
1.56473	99.99
1.58140	99.99
1.59807	99.99
1.61473	99.99
1.63140	99.99
1.64807	99.99
1.66473	99.99
1.68140	99.99
1.69807	99.99
1.71473	99.99
1.73140	99.99
1.74807	99.98
1.76473	99.99
1.78140	99.99
1.79807	99.99
1.81473	99.99
1.83140	99.99
1.84807	99.98
1.86473	99.99
1.88140	99.99
1.89807	99.98
1.91473	99.98
1.93140	99.98
1.94807	99.98
1.96473	99.99
1.98140	99.98
1.99807	99.98
2.01473	99.99
2.03140	99.98
2.04807	99.98
2.06473	99.98
2.08140	99.98
2.09807	99.98
2.11473	99.98
2.13140	99.98
2.14807	99.98
2.16473	99.98
2.18140	99.98
2.19807	99.98
2.21473	99.98
2.23140	99.98
2.24807	99.97
2.26473	99.98
2.28140	99.98
2.29807	99.98
2.31473	99.97
2.33140	99.98
2.34807	99.98
2.36473	99.97
2.38140	99.97
2.39807	99.97
2.41473	99.98
2.43140	99.97
2.44807	99.98
2.46473	99.97
2.48140	99.97
2.49807	99.97
2.51473	99.97
2.53140	99.97
2.54807	99.97
2.56473	99.97
2.58140	99.97
2.59807	99.98
2.61473	99.97
2.63140	99.98
2.64807	99.98
2.66473	99.98
2.68140	99.98
2.69807	99.97
2.71473	99.98
2.73140	99.98
2.74807	99.98
2.76473	99.98
2.78140	99.98
2.79807	99.98
2.81473	99.99
2.83140	99.99
2.84807	99.99
2.86473	99.99
2.88140	99.99
2.89807	100.00
2.91473	100.00
2.93140	100.00
2.94807	100.00
2.96473	100.00
2.98140	100.00
2.99807	100.01
3.01473	100.01
3.03140	100.01
3.04807	100.01
3.06473	100.01
3.08140	100.01
3.09807	100.01
3.11473	100.01
3.13140	100.02
3.14807	100.02
3.16473	100.02
3.18140	100.02
3.19807	100.03
3.21473	100.02
3.23140	100.03
3.24807	100.03
3.26473	100.03
3.28140	100.03
3.29807	100.03
3.31473	100.03
3.33140	100.04
3.34807	100.04
3.36473	100.03
3.38140	100.04
3.39807	100.04
3.41473	100.04
3.43140	100.04
3.44807	100.04
3.46473	100.04
3.48140	100.04
3.49807	100.04
3.51473	100.05
3.53140	100.05
3.54807	100.05
3.56473	100.05
3.58140	100.04
3.59807	100.05
3.61473	100.05
3.63140	100.05
3.64807	100.05
3.66473	100.05
3.68140	100.05
3.69807	100.05
3.71473	100.05
3.73140	100.05
3.74807	100.05
3.76473	100.05
3.78140	100.05
3.79807	100.05
3.81473	100.05
3.83140	100.05
3.84807	100.05
3.86473	100.05
3.88140	100.05
3.89807	100.05
3.91473	100.05
3.93140	100.05
3.94807	100.05
3.96473	100.05
3.98140	100.05
3.99807	100.05

[Status Trace (Carrier Gas Pressure)]
Interval(msec)	1000
# of Points	240
Start Time(min)	0.015
End Time(min)	3.998
Intensity Units	
Intensity Multiplier	1
R.Time (min)	Intensity
0.01473	57.20
0.03140	55.53
0.04807	58.08
0.06473	59.88
0.08140	58.58
0.09807	57.97
0.11473	58.00
0.13140	58.01
0.14807	58.01
0.16473	58.00
0.18140	58.00
0.19807	58.00
0.21473	58.00
0.23140	58.00
0.24807	58.00
0.26473	58.00
0.28140	58.00
0.29807	58.00
0.31473	58.00
0.33140	58.00
0.34807	58.00
0.36473	58.00
0.38140	58.00
0.39807	58.00
0.41473	58.00
0.43140	58.00
0.44807	58.00
0.46473	58.00
0.48140	58.00
0.49807	58.00
0.51473	58.00
0.53140	58.00
0.54807	58.00
0.56473	58.00
0.58140	58.00
0.59807	58.00
0.61473	58.00
0.63140	58.00
0.64807	58.00
0.66473	58.00
0.68140	58.00
0.69807	58.00
0.71473	58.00
0.73140	58.00
0.74807	58.00
0.76473	58.00
0.78140	58.00
0.79807	58.00
0.81473	58.00
0.83140	58.00
0.84807	58.00
0.86473	58.00
0.88140	58.00
0.89807	58.00
0.91473	58.00
0.93140	58.00
0.94807	58.00
0.96473	58.00
0.98140	58.00
0.99807	58.00
1.01473	58.00
1.03140	58.00
1.04807	58.00
1.06473	58.00
1.08140	58.00
1.09807	58.00
1.11473	58.00
1.13140	58.00
1.14807	58.00
1.16473	58.00
1.18140	58.00
1.19807	58.00
1.21473	58.00
1.23140	58.00
1.24807	58.00
1.26473	58.00
1.28140	58.00
1.29807	58.00
1.31473	58.00
1.33140	58.00
1.34807	58.00
1.36473	58.00
1.38140	58.00
1.39807	58.00
1.41473	58.00
1.43140	58.00
1.44807	58.00
1.46473	58.00
1.48140	58.00
1.49807	58.00
1.51473	58.00
1.53140	58.00
1.54807	58.00
1.56473	58.00
1.58140	58.00
1.59807	58.00
1.61473	58.00
1.63140	58.00
1.64807	58.00
1.66473	58.00
1.68140	58.00
1.69807	58.01
1.71473	58.00
1.73140	58.00
1.74807	58.00
1.76473	58.00
1.78140	58.00
1.79807	58.00
1.81473	58.00
1.83140	58.00
1.84807	58.00
1.86473	58.00
1.88140	58.00
1.89807	58.00
1.91473	58.00
1.93140	58.00
1.94807	58.00
1.96473	58.00
1.98140	58.00
1.99807	58.00
2.01473	58.00
2.03140	58.00
2.04807	58.00
2.06473	58.00
2.08140	58.00
2.09807	58.00
2.11473	58.00
2.13140	58.00
2.14807	58.00
2.16473	58.00
2.18140	58.00
2.19807	58.00
2.21473	58.00
2.23140	58.00
2.24807	58.00
2.26473	58.00
2.28140	58.00
2.29807	58.00
2.31473	58.00
2.33140	58.00
2.34807	58.00
2.36473	58.00
2.38140	57.99
2.39807	57.99
2.41473	57.99
2.43140	58.00
2.44807	58.00
2.46473	58.00
2.48140	58.00
2.49807	58.00
2.51473	57.99
2.53140	57.99
2.54807	58.00
2.56473	58.00
2.58140	58.00
2.59807	58.00
2.61473	58.00
2.63140	58.00
2.64807	58.00
2.66473	58.00
2.68140	58.00
2.69807	58.00
2.71473	58.00
2.73140	58.00
2.74807	58.00
2.76473	58.00
2.78140	58.00
2.79807	58.00
2.81473	58.00
2.83140	58.00
2.84807	58.00
2.86473	58.00
2.88140	58.00
2.89807	58.00
2.91473	58.00
2.93140	58.00
2.94807	58.00
2.96473	58.00
2.98140	58.00
2.99807	58.00
3.01473	58.00
3.03140	58.00
3.04807	58.00
3.06473	58.00
3.08140	58.00
3.09807	58.00
3.11473	58.00
3.13140	58.00
3.14807	58.00
3.16473	58.00
3.18140	58.00
3.19807	58.00
3.21473	58.00
3.23140	58.00
3.24807	58.00
3.26473	58.00
3.28140	58.00
3.29807	58.00
3.31473	58.00
3.33140	58.00
3.34807	58.00
3.36473	58.00
3.38140	58.00
3.39807	58.00
3.41473	58.00
3.43140	58.00
3.44807	58.00
3.46473	58.00
3.48140	58.00
3.49807	58.00
3.51473	58.00
3.53140	58.00
3.54807	58.00
3.56473	58.00
3.58140	58.00
3.59807	58.00
3.61473	58.00
3.63140	58.00
3.64807	58.00
3.66473	58.00
3.68140	58.00
3.69807	58.00
3.71473	58.00
3.73140	58.00
3.74807	58.00
3.76473	58.00
3.78140	58.00
3.79807	58.00
3.81473	58.00
3.83140	58.00
3.84807	58.00
3.86473	58.00
3.88140	58.00
3.89807	58.00
3.91473	58.00
3.93140	58.00
3.94807	58.00
3.96473	58.00
3.98140	58.00
3.99807	58.00

[Status Trace (Carrier Gas Flow)]
Interval(msec)	1000
# of Points	240
Start Time(min)	0.015
End Time(min)	3.998
Intensity Units	
Intensity Multiplier	1
R.Time (min)	Intensity
0.01473	33.89
0.03140	34.54
0.04807	34.54
0.06473	34.51
0.08140	34.51
0.09807	34.52
0.11473	34.52
0.13140	34.52
0.14807	34.52
0.16473	34.52
0.18140	34.52
0.19807	34.52
0.21473	34.52
0.23140	34.52
0.24807	34.53
0.26473	34.52
0.28140	34.52
0.29807	34.51
0.31473	34.52
0.33140	34.52
0.34807	34.51
0.36473	34.52
0.38140	34.52
0.39807	34.52
0.41473	34.52
0.43140	34.52
0.44807	34.53
0.46473	34.52
0.48140	34.52
0.49807	34.52
0.51473	34.52
0.53140	34.51
0.54807	34.52
0.56473	34.52
0.58140	34.52
0.59807	34.52
0.61473	34.52
0.63140	34.52
0.64807	34.52
0.66473	34.52
0.68140	34.52
0.69807	34.52
0.71473	34.52
0.73140	34.52
0.74807	34.52
0.76473	34.52
0.78140	34.52
0.79807	34.52
0.81473	34.52
0.83140	34.52
0.84807	34.52
0.86473	34.51
0.88140	34.52
0.89807	34.51
0.91473	34.52
0.93140	34.52
0.94807	34.52
0.96473	34.52
0.98140	34.52
0.99807	34.52
1.01473	34.52
1.03140	34.52
1.04807	34.52
1.06473	34.52
1.08140	34.52
1.09807	34.52
1.11473	34.52
1.13140	34.52
1.14807	34.52
1.16473	34.52
1.18140	34.52
1.19807	34.52
1.21473	34.52
1.23140	34.52
1.24807	34.51
1.26473	34.52
1.28140	34.53
1.29807	34.52
1.31473	34.52
1.33140	34.52
1.34807	34.52
1.36473	34.52
1.38140	34.52
1.39807	34.52
1.41473	34.52
1.43140	34.53
1.44807	34.52
1.46473	34.52
1.48140	34.51
1.49807	34.52
1.51473	34.52
1.53140	34.53
1.54807	34.53
1.56473	34.51
1.58140	34.52
1.59807	34.52
1.61473	34.52
1.63140	34.52
1.64807	34.52
1.66473	34.52
1.68140	34.52
1.69807	34.52
1.71473	34.52
1.73140	34.52
1.74807	34.52
1.76473	34.52
1.78140	34.51
1.79807	34.51
1.81473	34.52
1.83140	34.53
1.84807	34.52
1.86473	34.52
1.88140	34.52
1.89807	34.52
1.91473	34.52
1.93140	34.52
1.94807	34.52
1.96473	34.52
1.98140	34.52
1.99807	34.52
2.01473	34.52
2.03140	34.52
2.04807	34.52
2.06473	34.52
2.08140	34.51
2.09807	34.52
2.11473	34.52
2.13140	34.52
2.14807	34.52
2.16473	34.51
2.18140	34.52
2.19807	34.52
2.21473	34.52
2.23140	34.52
2.24807	34.52
2.26473	34.53
2.28140	34.52
2.29807	34.52
2.31473	34.52
2.33140	34.51
2.34807	34.52
2.36473	34.52
2.38140	34.52
2.39807	34.52
2.41473	34.52
2.43140	34.52
2.44807	34.52
2.46473	34.52
2.48140	34.52
2.49807	34.51
2.51473	34.52
2.53140	34.52
2.54807	34.52
2.56473	34.52
2.58140	34.52
2.59807	34.52
2.61473	34.52
2.63140	34.52
2.64807	34.51
2.66473	34.52
2.68140	34.52
2.69807	34.52
2.71473	34.52
2.73140	34.52
2.74807	34.52
2.76473	34.52
2.78140	34.52
2.79807	34.52
2.81473	34.52
2.83140	34.51
2.84807	34.51
2.86473	34.52
2.88140	34.52
2.89807	34.52
2.91473	34.52
2.93140	34.52
2.94807	34.52
2.96473	34.51
2.98140	34.53
2.99807	34.52
3.01473	34.52
3.03140	34.52
3.04807	34.53
3.06473	34.52
3.08140	34.51
3.09807	34.51
3.11473	34.52
3.13140	34.52
3.14807	34.52
3.16473	34.52
3.18140	34.52
3.19807	34.52
3.21473	34.52
3.23140	34.52
3.24807	34.52
3.26473	34.52
3.28140	34.51
3.29807	34.53
3.31473	34.52
3.33140	34.51
3.34807	34.52
3.36473	34.51
3.38140	34.51
3.39807	34.51
3.41473	34.52
3.43140	34.52
3.44807	34.52
3.46473	34.52
3.48140	34.52
3.49807	34.52
3.51473	34.52
3.53140	34.52
3.54807	34.52
3.56473	34.52
3.58140	34.52
3.59807	34.52
3.61473	34.52
3.63140	34.52
3.64807	34.52
3.66473	34.52
3.68140	34.52
3.69807	34.52
3.71473	34.52
3.73140	34.52
3.74807	34.52
3.76473	34.52
3.78140	34.52
3.79807	34.52
3.81473	34.52
3.83140	34.52
3.84807	34.51
3.86473	34.52
3.88140	34.51
3.89807	34.52
3.91473	34.52
3.93140	34.52
3.94807	34.52
3.96473	34.52
3.98140	34.52
3.99807	34.53

[Status Trace (Column Flow)]
Interval(msec)	1000
# of Points	240
Start Time(min)	0.015
End Time(min)	3.998
Intensity Units	
Intensity Multiplier	1
R.Time (min)	Intensity
0.01473	5.44
0.03140	5.25
0.04807	5.54
0.06473	5.75
0.08140	5.60
0.09807	5.53
0.11473	5.53
0.13140	5.53
0.14807	5.54
0.16473	5.53
0.18140	5.54
0.19807	5.54
0.21473	5.54
0.23140	5.54
0.24807	5.54
0.26473	5.54
0.28140	5.53
0.29807	5.53
0.31473	5.53
0.33140	5.53
0.34807	5.53
0.36473	5.53
0.38140	5.53
0.39807	5.53
0.41473	5.54
0.43140	5.54
0.44807	5.53
0.46473	5.53
0.48140	5.53
0.49807	5.53
0.51473	5.53
0.53140	5.53
0.54807	5.53
0.56473	5.53
0.58140	5.53
0.59807	5.53
0.61473	5.53
0.63140	5.53
0.64807	5.53
0.66473	5.53
0.68140	5.53
0.69807	5.53
0.71473	5.53
0.73140	5.53
0.74807	5.53
0.76473	5.53
0.78140	5.54
0.79807	5.54
0.81473	5.54
0.83140	5.53
0.84807	5.54
0.86473	5.54
0.88140	5.54
0.89807	5.54
0.91473	5.54
0.93140	5.54
0.94807	5.54
0.96473	5.54
0.98140	5.54
0.99807	5.53
1.01473	5.54
1.03140	5.54
1.04807	5.54
1.06473	5.54
1.08140	5.54
1.09807	5.54
1.11473	5.54
1.13140	5.53
1.14807	5.53
1.16473	5.53
1.18140	5.53
1.19807	5.53
1.21473	5.53
1.23140	5.53
1.24807	5.53
1.26473	5.53
1.28140	5.53
1.29807	5.53
1.31473	5.54
1.33140	5.54
1.34807	5.54
1.36473	5.53
1.38140	5.53
1.39807	5.53
1.41473	5.53
1.43140	5.53
1.44807	5.53
1.46473	5.54
1.48140	5.54
1.49807	5.54
1.51473	5.53
1.53140	5.53
1.54807	5.53
1.56473	5.53
1.58140	5.53
1.59807	5.53
1.61473	5.53
1.63140	5.53
1.64807	5.52
1.66473	5.51
1.68140	5.50
1.69807	5.49
1.71473	5.48
1.73140	5.47
1.74807	5.46
1.76473	5.45
1.78140	5.44
1.79807	5.43
1.81473	5.42
1.83140	5.41
1.84807	5.40
1.86473	5.39
1.88140	5.38
1.89807	5.37
1.91473	5.36
1.93140	5.35
1.94807	5.34
1.96473	5.33
1.98140	5.32
1.99807	5.31
2.01473	5.30
2.03140	5.29
2.04807	5.28
2.06473	5.27
2.08140	5.26
2.09807	5.25
2.11473	5.24
2.13140	5.23
2.14807	5.22
2.16473	5.21
2.18140	5.21
2.19807	5.20
2.21473	5.19
2.23140	5.18
2.24807	5.17
2.26473	5.16
2.28140	5.15
2.29807	5.14
2.31473	5.13
2.33140	5.12
2.34807	5.11
2.36473	5.10
2.38140	5.10
2.39807	5.10
2.41473	5.10
2.43140	5.10
2.44807	5.10
2.46473	5.10
2.48140	5.10
2.49807	5.10
2.51473	5.10
2.53140	5.10
2.54807	5.10
2.56473	5.10
2.58140	5.10
2.59807	5.10
2.61473	5.10
2.63140	5.10
2.64807	5.09
2.66473	5.09
2.68140	5.09
2.69807	5.09
2.71473	5.09
2.73140	5.09
2.74807	5.09
2.76473	5.09
2.78140	5.09
2.79807	5.09
2.81473	5.09
2.83140	5.09
2.84807	5.09
2.86473	5.09
2.88140	5.09
2.89807	5.09
2.91473	5.09
2.93140	5.09
2.94807	5.09
2.96473	5.09
2.98140	5.09
2.99807	5.09
3.01473	5.09
3.03140	5.09
3.04807	5.09
3.06473	5.09
3.08140	5.09
3.09807	5.09
3.11473	5.09
3.13140	5.09
3.14807	5.09
3.16473	5.09
3.18140	5.09
3.19807	5.09
3.21473	5.09
3.23140	5.09
3.24807	5.09
3.26473	5.09
3.28140	5.09
3.29807	5.09
3.31473	5.09
3.33140	5.09
3.34807	5.09
3.36473	5.09
3.38140	5.09
3.39807	5.09
3.41473	5.09
3.43140	5.09
3.44807	5.09
3.46473	5.09
3.48140	5.09
3.49807	5.09
3.51473	5.09
3.53140	5.09
3.54807	5.09
3.56473	5.09
3.58140	5.09
3.59807	5.09
3.61473	5.09
3.63140	5.09
3.64807	5.09
3.66473	5.09
3.68140	5.09
3.69807	5.09
3.71473	5.09
3.73140	5.09
3.74807	5.09
3.76473	5.09
3.78140	5.09
3.79807	5.09
3.81473	5.09
3.83140	5.09
3.84807	5.09
3.86473	5.09
3.88140	5.09
3.89807	5.09
3.91473	5.09
3.93140	5.09
3.94807	5.09
3.96473	5.09
3.98140	5.09
3.99807	5.09

[Status Trace (Linear Velocity)]
Interval(msec)	1000
# of Points	240
Start Time(min)	0.015
End Time(min)	3.998
Intensity Units	
Intensity Multiplier	1
R.Time (min)	Intensity
0.01473	38.49
0.03140	37.40
0.04807	39.07
0.06473	40.25
0.08140	39.39
0.09807	39.00
0.11473	39.01
0.13140	39.02
0.14807	39.02
0.16473	39.02
0.18140	39.02
0.19807	39.02
0.21473	39.02
0.23140	39.02
0.24807	39.02
0.26473	39.02
0.28140	39.02
0.29807	39.02
0.31473	39.02
0.33140	39.02
0.34807	39.02
0.36473	39.02
0.38140	39.02
0.39807	39.02
0.41473	39.02
0.43140	39.02
0.44807	39.02
0.46473	39.02
0.48140	39.02
0.49807	39.01
0.51473	39.01
0.53140	39.01
0.54807	39.01
0.56473	39.01
0.58140	39.01
0.59807	39.01
0.61473	39.02
0.63140	39.02
0.64807	39.02
0.66473	39.02
0.68140	39.02
0.69807	39.02
0.71473	39.02
0.73140	39.02
0.74807	39.02
0.76473	39.02
0.78140	39.02
0.79807	39.02
0.81473	39.02
0.83140	39.02
0.84807	39.02
0.86473	39.02
0.88140	39.02
0.89807	39.02
0.91473	39.02
0.93140	39.02
0.94807	39.02
0.96473	39.02
0.98140	39.02
0.99807	39.02
1.01473	39.02
1.03140	39.02
1.04807	39.02
1.06473	39.02
1.08140	39.02
1.09807	39.02
1.11473	39.02
1.13140	39.02
1.14807	39.02
1.16473	39.02
1.18140	39.02
1.19807	39.02
1.21473	39.02
1.23140	39.02
1.24807	39.02
1.26473	39.02
1.28140	39.02
1.29807	39.02
1.31473	39.02
1.33140	39.02
1.34807	39.02
1.36473	39.02
1.38140	39.02
1.39807	39.02
1.41473	39.02
1.43140	39.02
1.44807	39.02
1.46473	39.02
1.48140	39.02
1.49807	39.02
1.51473	39.02
1.53140	39.02
1.54807	39.02
1.56473	39.02
1.58140	39.02
1.59807	39.01
1.61473	39.01
1.63140	38.99
1.64807	38.97
1.66473	38.95
1.68140	38.92
1.69807	38.89
1.71473	38.85
1.73140	38.82
1.74807	38.78
1.76473	38.75
1.78140	38.72
1.79807	38.69
1.81473	38.66
1.83140	38.63
1.84807	38.60
1.86473	38.57
1.88140	38.54
1.89807	38.50
1.91473	38.47
1.93140	38.44
1.94807	38.41
1.96473	38.38
1.98140	38.36
1.99807	38.32
2.01473	38.29
2.03140	38.27
2.04807	38.24
2.06473	38.21
2.08140	38.18
2.09807	38.15
2.11473	38.12
2.13140	38.09
2.14807	38.06
2.16473	38.03
2.18140	38.00
2.19807	37.97
2.21473	37.94
2.23140	37.91
2.24807	37.88
2.26473	37.85
2.28140	37.82
2.29807	37.79
2.31473	37.76
2.33140	37.73
2.34807	37.70
2.36473	37.68
2.38140	37.66
2.39807	37.65
2.41473	37.66
2.43140	37.66
2.44807	37.66
2.46473	37.66
2.48140	37.66
2.49807	37.66
2.51473	37.65
2.53140	37.65
2.54807	37.66
2.56473	37.66
2.58140	37.65
2.59807	37.65
2.61473	37.65
2.63140	37.65
2.64807	37.65
2.66473	37.65
2.68140	37.65
2.69807	37.65
2.71473	37.65
2.73140	37.65
2.74807	37.65
2.76473	37.65
2.78140	37.65
2.79807	37.65
2.81473	37.65
2.83140	37.65
2.84807	37.65
2.86473	37.65
2.88140	37.65
2.89807	37.65
2.91473	37.65
2.93140	37.65
2.94807	37.64
2.96473	37.64
2.98140	37.64
2.99807	37.64
3.01473	37.64
3.03140	37.64
3.04807	37.64
3.06473	37.64
3.08140	37.64
3.09807	37.64
3.11473	37.64
3.13140	37.64
3.14807	37.64
3.16473	37.63
3.18140	37.63
3.19807	37.63
3.21473	37.63
3.23140	37.63
3.24807	37.63
3.26473	37.63
3.28140	37.63
3.29807	37.63
3.31473	37.63
3.33140	37.63
3.34807	37.63
3.36473	37.63
3.38140	37.63
3.39807	37.63
3.41473	37.63
3.43140	37.63
3.44807	37.63
3.46473	37.63
3.48140	37.63
3.49807	37.63
3.51473	37.63
3.53140	37.63
3.54807	37.63
3.56473	37.63
3.58140	37.63
3.59807	37.63
3.61473	37.63
3.63140	37.63
3.64807	37.63
3.66473	37.63
3.68140	37.63
3.69807	37.63
3.71473	37.63
3.73140	37.63
3.74807	37.63
3.76473	37.63
3.78140	37.63
3.79807	37.63
3.81473	37.63
3.83140	37.63
3.84807	37.63
3.86473	37.63
3.88140	37.63
3.89807	37.63
3.91473	37.63
3.93140	37.63
3.94807	37.63
3.96473	37.63
3.98140	37.63
3.99807	37.63

