[Header]
Application Name	LabSolutions
Version	5.110
Data File Name	C:\Users\User\Desktop\Junior\UIC Prairie Sampling\5.18.23\05182023_028.gcd
Output Date	6/5/2023
Output Time	2:17:26 PM

[File Information]
Type	Data File
Generated	5/24/2023 2:55:13 PM
Generated by	System Administrator
Modified	5/24/2023 3:02:32 PM
Modified by	System Administrator

[Sample Information]
Operator Name	System Administrator
Acquired	5/24/2023 2:58:30 PM
Sample Type	0:Unknown
Level	0
Sample Name	028
Sample ID	028
ISTD Amount1	1
ISTD Amount2	1
ISTD Amount3	1
ISTD Amount4	1
ISTD Amount5	1
ISTD Amount6	1
ISTD Amount7	1
ISTD Amount8	1
ISTD Amount9	1
ISTD Amount10	1
ISTD Amount11	1
ISTD Amount12	1
ISTD Amount13	1
ISTD Amount14	1
ISTD Amount15	1
ISTD Amount16	1
ISTD Amount17	1
ISTD Amount18	1
ISTD Amount19	1
ISTD Amount20	1
ISTD Amount21	1
ISTD Amount22	1
ISTD Amount23	1
ISTD Amount24	1
ISTD Amount25	1
ISTD Amount26	1
ISTD Amount27	1
ISTD Amount28	1
ISTD Amount29	1
ISTD Amount30	1
ISTD Amount31	1
ISTD Amount32	1
Sample Amount	1
Dilution Factor	1
Vial#	27
Injection Volume	1
Injection Count	1
Bar Code	

[Original Files]
Data File	C:\Users\User\Desktop\Junior\UIC Prairie Sampling\5.18.23\05182023_028.gcd
Method File	C:\LabSolutions\Data\GHG_4min_2022\ghg3_togas_w_acet_4 min_new_int.gcm
Batch File	C:\LabSolutions\Data\AutoSamplerTesting\05182023.gcb
Report Format File	c:\LabSolutions\System\DEFAULT.lsr

[File Description]


[Configuration]
Instrument Name	C0B7VH3-Instrument1
Instrument #	1
Line #	1
# of Detectors	3
Detector ID	DET#1	DET#2	DET#3
Detector Name	FID	PTCD	ECD
# of Channels	1	1	1

[Peak Table(Ch1)]
# of Peaks	3
Peak#	R.Time	I.Time	F.Time	Area	Height	A/H	Conc.	Mark	ID#	Name	k'	Plate #	Plate Ht.	Tailing	Resolution	Sep.Factor	Area Ratio	Height Ratio	Conc. %	Norm Conc.
1	1.472	1.421	1.527	3679	1777	2.070	0.000	   	1	CO	0.000	9317	16.100	1.188	0.000	0.000	0	0	0.000	0.000
2	1.564	1.527	1.615	5534	2822	1.961	26.982	 V 	2	CH4	0.062	11464	13.084	1.147	1.535	0.000	0	0	11.499	11.499
3	1.989	1.945	2.389	1077570	513574	2.098	207.668	   	3	CO2	0.351	17370	8.636	1.319	7.161	5.640	0	0	88.501	88.501

[Peak Table(Ch2)]
# of Peaks	0

[Peak Table(Ch3)]
# of Peaks	5
Peak#	R.Time	I.Time	F.Time	Area	Height	A/H	Conc.	Mark	ID#	Name	k'	Plate #	Plate Ht.	Tailing	Resolution	Sep.Factor	Area Ratio	Height Ratio	Conc. %	Norm Conc.
1	2.458	2.436	2.506	654	276	2.367	0.000	   			0.000	18079	8.297	0.000	0.000	0.000	0	0	0.000	0.000
2	2.521	2.506	2.565	190	94	2.023	0.000	 V 			0.025	12399	12.098	0.000	0.762	0.000	0	0	0.000	0.000
3	2.634	2.587	2.671	1820	470	3.870	0.000	   			0.072	235	636.943	0.000	0.293	2.824	0	0	0.000	0.000
4	2.744	2.671	2.829	4430	506	8.755	0.066	 V 	1	N2O	0.116	226	662.594	0.000	0.155	1.625	0	0	12.028	12.028
5	2.891	2.829	3.870	32397	5068	6.393	0.479	 V 	1	N2O	0.176	12022	12.477	0.000	0.351	1.513	0	0	87.972	87.972

[Compound Results(Ch1)]
# of IDs	6
ID#	Name	R.Time	Area	Height	Conc.	Curve	3rd	2nd	1st	Constant	Area Ratio	Height Ratio	Conc. %	Norm Conc.
1	CO	1.472	3679	1777	0.000	Linear	0.000000e+00	0.000000e+00	0.000000e+00	0.000000e+00	0	0	0.000	0.000
2	CH4	1.564	5534	2822	26.982	Linear	0.000000e+00	0.000000e+00	2.051179e+002	0.000000e+00	0	0	11.499	11.499
3	CO2	1.989	1077570	513574	207.668	Linear	0.000000e+00	0.000000e+00	5.188919e+003	0.000000e+00	0	0	88.501	88.501
4	Ethylene	0.000	0	0	0.000	Linear	0.000000e+00	0.000000e+00	0.000000e+00	0.000000e+00	0	0	0.000	0.000
5	Acetylene	0.000	0	0	0.000	Linear	0.000000e+00	0.000000e+00	0.000000e+00	0.000000e+00	0	0	0.000	0.000
6	Ethane	0.000	0	0	0.000	Linear	0.000000e+00	0.000000e+00	0.000000e+00	0.000000e+00	0	0	0.000	0.000

[Compound Results(Ch2)]
# of IDs	5
ID#	Name	R.Time	Area	Height	Conc.	Curve	3rd	2nd	1st	Constant	Area Ratio	Height Ratio	Conc. %	Norm Conc.
1	Hydrogen	0.000	0	0	0.000	Linear	0.000000e+00	0.000000e+00	0.000000e+00	0.000000e+00	0	0	0.000	0.000
2	Oxygen	0.000	0	0	0.000	Linear	0.000000e+00	0.000000e+00	0.000000e+00	0.000000e+00	0	0	0.000	0.000
3	Nitrogen	0.000	0	0	0.000	Linear	0.000000e+00	0.000000e+00	0.000000e+00	0.000000e+00	0	0	0.000	0.000
4	Methane	0.000	0	0	0.000	Linear	0.000000e+00	0.000000e+00	0.000000e+00	0.000000e+00	0	0	0.000	0.000
5	Carbon Monoxide	0.000	0	0	0.000	Linear	0.000000e+00	0.000000e+00	0.000000e+00	0.000000e+00	0	0	0.000	0.000

[Compound Results(Ch3)]
# of IDs	2
ID#	Name	R.Time	Area	Height	Conc.	Curve	3rd	2nd	1st	Constant	Area Ratio	Height Ratio	Conc. %	Norm Conc.
1	N2O	2.891	36826	5574	0.545	Linear	0.000000e+00	0.000000e+00	6.759880e+004	0.000000e+00	0	0	100.000	100.000
2	SF6	0.000	0	0	0.000	Linear	0.000000e+00	0.000000e+00	0.000000e+00	0.000000e+00	0	0	0.000	0.000

[Group Results(Ch1)]
# of Groups	0

[Group Results(Ch2)]
# of Groups	0

[Group Results(Ch3)]
# of Groups	0

[Chromatogram (Ch1)]
Interval(msec)	220
# of Points	1091
Start Time(min)	0.002
End Time(min)	3.998
R.Time (min)	Intensity
0.00167	-11
0.00533	-15
0.00900	-16
0.01267	-13
0.01633	-7
0.02000	-5
0.02367	-8
0.02733	-15
0.03100	-20
0.03467	-18
0.03833	-9
0.04200	0
0.04567	5
0.04933	3
0.05300	-3
0.05667	-8
0.06033	-14
0.06400	-19
0.06767	-21
0.07133	-20
0.07500	-16
0.07867	-15
0.08233	-14
0.08600	-12
0.08967	-6
0.09333	-1
0.09700	3
0.10067	0
0.10433	-2
0.10800	-3
0.11167	-5
0.11533	-7
0.11900	-9
0.12267	-9
0.12633	-9
0.13000	-6
0.13367	0
0.13733	6
0.14100	9
0.14467	6
0.14833	5
0.15200	5
0.15567	5
0.15933	4
0.16300	2
0.16667	-2
0.17033	-6
0.17400	-6
0.17767	-4
0.18133	-5
0.18500	-6
0.18867	-6
0.19233	-9
0.19600	-14
0.19967	-19
0.20333	-22
0.20700	-22
0.21067	-18
0.21433	-16
0.21800	-14
0.22167	-14
0.22533	-13
0.22900	-10
0.23267	-7
0.23633	-5
0.24000	-3
0.24367	-1
0.24733	-1
0.25100	-3
0.25467	-7
0.25833	-8
0.26200	-10
0.26567	-12
0.26933	-12
0.27300	-12
0.27667	-14
0.28033	-16
0.28400	-16
0.28767	-15
0.29133	-11
0.29500	-3
0.29867	1
0.30233	2
0.30600	1
0.30967	-3
0.31333	-11
0.31700	-20
0.32067	-30
0.32433	-40
0.32800	-48
0.33167	-52
0.33533	-56
0.33900	-56
0.34267	-52
0.34633	-46
0.35000	-41
0.35367	-38
0.35733	-37
0.36100	-35
0.36467	-30
0.36833	-25
0.37200	-21
0.37567	-18
0.37933	-18
0.38300	-18
0.38667	-17
0.39033	-17
0.39400	-15
0.39767	-9
0.40133	-4
0.40500	-3
0.40867	-5
0.41233	-8
0.41600	-11
0.41967	-16
0.42333	-24
0.42700	-27
0.43067	-25
0.43433	-23
0.43800	-23
0.44167	-25
0.44533	-23
0.44900	-18
0.45267	-15
0.45633	-17
0.46000	-22
0.46367	-21
0.46733	-16
0.47100	-10
0.47467	-3
0.47833	-3
0.48200	-6
0.48567	-10
0.48933	-15
0.49300	-22
0.49667	-28
0.50033	-32
0.50400	-32
0.50767	-28
0.51133	-21
0.51500	-15
0.51867	-11
0.52233	-12
0.52600	-15
0.52967	-19
0.53333	-24
0.53700	-24
0.54067	-18
0.54433	-11
0.54800	-7
0.55167	-10
0.55533	-17
0.55900	-23
0.56267	-27
0.56633	-28
0.57000	-28
0.57367	-29
0.57733	-35
0.58100	-41
0.58467	-41
0.58833	-35
0.59200	-28
0.59567	-29
0.59933	-36
0.60300	-43
0.60667	-46
0.61033	-46
0.61400	-43
0.61767	-37
0.62133	-29
0.62500	-23
0.62867	-22
0.63233	-23
0.63600	-25
0.63967	-27
0.64333	-27
0.64700	-27
0.65067	-29
0.65433	-29
0.65800	-24
0.66167	-17
0.66533	-12
0.66900	-13
0.67267	-16
0.67633	-18
0.68000	-20
0.68367	-23
0.68733	-27
0.69100	-32
0.69467	-38
0.69833	-41
0.70200	-43
0.70567	-44
0.70933	-42
0.71300	-38
0.71667	-27
0.72033	-14
0.72400	-6
0.72767	-5
0.73133	-5
0.73500	-8
0.73867	-13
0.74233	-19
0.74600	-24
0.74967	-25
0.75333	-27
0.75700	-32
0.76067	-36
0.76433	-35
0.76800	-28
0.77167	-19
0.77533	-15
0.77900	-18
0.78267	-28
0.78633	-39
0.79000	-48
0.79367	-51
0.79733	-52
0.80100	-48
0.80467	-42
0.80833	-37
0.81200	-30
0.81567	-23
0.81933	-19
0.82300	-17
0.82667	-19
0.83033	-24
0.83400	-29
0.83767	-30
0.84133	-31
0.84500	-32
0.84867	-30
0.85233	-26
0.85600	-24
0.85967	-26
0.86333	-31
0.86700	-33
0.87067	-36
0.87433	-41
0.87800	-44
0.88167	-46
0.88533	-41
0.88900	-38
0.89267	-38
0.89633	-40
0.90000	-44
0.90367	-49
0.90733	-50
0.91100	-50
0.91467	-47
0.91833	-41
0.92200	-32
0.92567	-24
0.92933	-23
0.93300	-26
0.93667	-33
0.94033	-37
0.94400	-38
0.94767	-36
0.95133	-35
0.95500	-36
0.95867	-35
0.96233	-35
0.96600	-38
0.96967	-40
0.97333	-39
0.97700	-41
0.98067	-46
0.98433	-51
0.98800	-54
0.99167	-55
0.99533	-54
0.99900	-50
1.00267	-42
1.00633	-35
1.01000	-36
1.01367	-38
1.01733	-41
1.02100	-43
1.02467	-46
1.02833	-48
1.03200	-49
1.03567	-47
1.03933	-43
1.04300	-41
1.04667	-40
1.05033	-41
1.05400	-46
1.05767	-52
1.06133	-53
1.06500	-46
1.06867	-35
1.07233	-25
1.07600	-21
1.07967	-22
1.08333	-28
1.08700	-36
1.09067	-47
1.09433	-62
1.09800	-73
1.10167	-76
1.10533	-76
1.10900	-74
1.11267	-71
1.11633	-68
1.12000	-64
1.12367	-57
1.12733	-50
1.13100	-42
1.13467	-34
1.13833	-26
1.14200	-25
1.14567	-29
1.14933	-34
1.15300	-37
1.15667	-38
1.16033	-38
1.16400	-41
1.16767	-44
1.17133	-45
1.17500	-42
1.17867	-43
1.18233	-51
1.18600	-56
1.18967	-58
1.19333	-58
1.19700	-53
1.20067	-45
1.20433	-42
1.20800	-46
1.21167	-52
1.21533	-56
1.21900	-59
1.22267	-60
1.22633	-60
1.23000	-59
1.23367	-57
1.23733	-53
1.24100	-47
1.24467	-43
1.24833	-39
1.25200	-39
1.25567	-43
1.25933	-50
1.26300	-58
1.26667	-65
1.27033	-70
1.27400	-74
1.27767	-74
1.28133	-69
1.28500	-63
1.28867	-62
1.29233	-63
1.29600	-61
1.29967	-55
1.30333	-49
1.30700	-48
1.31067	-50
1.31433	-50
1.31800	-46
1.32167	-40
1.32533	-43
1.32900	-52
1.33267	-61
1.33633	-64
1.34000	-63
1.34367	-59
1.34733	-52
1.35100	-42
1.35467	-41
1.35833	-46
1.36200	-52
1.36567	-59
1.36933	-64
1.37300	-68
1.37667	-74
1.38033	-85
1.38400	-97
1.38767	-104
1.39133	-101
1.39500	-95
1.39867	-91
1.40233	-91
1.40600	-94
1.40967	-101
1.41333	-106
1.41700	-106
1.42067	-100
1.42433	-90
1.42800	-79
1.43167	-67
1.43533	-54
1.43900	-32
1.44267	-7
1.44633	48
1.45000	214
1.45367	503
1.45733	842
1.46100	1159
1.46467	1417
1.46833	1601
1.47200	1685
1.47567	1646
1.47933	1484
1.48300	1235
1.48667	954
1.49033	689
1.49400	469
1.49767	302
1.50133	186
1.50500	104
1.50867	46
1.51233	4
1.51600	-23
1.51967	-39
1.52333	-52
1.52700	-60
1.53067	-58
1.53433	-11
1.53800	152
1.54167	501
1.54533	1008
1.54900	1565
1.55267	2063
1.55633	2445
1.56000	2684
1.56367	2744
1.56733	2592
1.57100	2250
1.57467	1800
1.57833	1343
1.58200	944
1.58567	632
1.58933	403
1.59300	243
1.59667	131
1.60033	52
1.60400	-5
1.60767	-43
1.61133	-62
1.61500	-70
1.61867	-75
1.62233	-76
1.62600	-72
1.62967	-70
1.63333	-74
1.63700	-78
1.64067	-80
1.64433	-84
1.64800	-86
1.65167	-87
1.65533	-87
1.65900	-86
1.66267	-85
1.66633	-86
1.67000	-87
1.67367	-82
1.67733	-75
1.68100	-72
1.68467	-70
1.68833	-67
1.69200	-68
1.69567	-70
1.69933	-70
1.70300	-70
1.70667	-76
1.71033	-87
1.71400	-97
1.71767	-99
1.72133	-98
1.72500	-99
1.72867	-99
1.73233	-97
1.73600	-96
1.73967	-100
1.74333	-104
1.74700	-107
1.75067	-108
1.75433	-108
1.75800	-107
1.76167	-104
1.76533	-101
1.76900	-98
1.77267	-93
1.77633	-90
1.78000	-89
1.78367	-91
1.78733	-99
1.79100	-103
1.79467	-105
1.79833	-104
1.80200	-105
1.80567	-104
1.80933	-102
1.81300	-98
1.81667	-96
1.82033	-95
1.82400	-96
1.82767	-93
1.83133	-88
1.83500	-86
1.83867	-87
1.84233	-88
1.84600	-87
1.84967	-87
1.85333	-88
1.85700	-89
1.86067	-91
1.86433	-91
1.86800	-94
1.87167	-97
1.87533	-99
1.87900	-95
1.88267	-87
1.88633	-85
1.89000	-90
1.89367	-98
1.89733	-101
1.90100	-101
1.90467	-98
1.90833	-95
1.91200	-95
1.91567	-94
1.91933	-91
1.92300	-88
1.92667	-84
1.93033	-81
1.93400	-81
1.93767	-82
1.94133	-83
1.94500	-73
1.94867	-1
1.95233	425
1.95600	2434
1.95967	9602
1.96333	29026
1.96700	69797
1.97067	137177
1.97433	226567
1.97800	324194
1.98167	413289
1.98533	479617
1.98900	513533
1.99267	510525
1.99633	472506
2.00000	408425
2.00367	331693
2.00733	255395
2.01100	188554
2.01467	135074
2.01833	94970
2.02200	66226
2.02567	46243
2.02933	32608
2.03300	23386
2.03667	17158
2.04033	12930
2.04400	10028
2.04767	8002
2.05133	6557
2.05500	5502
2.05867	4709
2.06233	4096
2.06600	3616
2.06967	3232
2.07333	2917
2.07700	2655
2.08067	2428
2.08433	2233
2.08800	2067
2.09167	1924
2.09533	1799
2.09900	1685
2.10267	1584
2.10633	1495
2.11000	1415
2.11367	1343
2.11733	1279
2.12100	1226
2.12467	1173
2.12833	1120
2.13200	1071
2.13567	1024
2.13933	981
2.14300	941
2.14667	904
2.15033	870
2.15400	838
2.15767	809
2.16133	781
2.16500	754
2.16867	731
2.17233	711
2.17600	691
2.17967	671
2.18333	653
2.18700	635
2.19067	615
2.19433	597
2.19800	580
2.20167	563
2.20533	545
2.20900	529
2.21267	512
2.21633	494
2.22000	479
2.22367	468
2.22733	462
2.23100	458
2.23467	457
2.23833	455
2.24200	448
2.24567	437
2.24933	423
2.25300	409
2.25667	392
2.26033	377
2.26400	365
2.26767	355
2.27133	350
2.27500	348
2.27867	346
2.28233	345
2.28600	341
2.28967	335
2.29333	330
2.29700	326
2.30067	324
2.30433	322
2.30800	318
2.31167	314
2.31533	310
2.31900	309
2.32267	310
2.32633	310
2.33000	310
2.33367	309
2.33733	304
2.34100	299
2.34467	292
2.34833	285
2.35200	282
2.35567	280
2.35933	274
2.36300	265
2.36667	257
2.37033	251
2.37400	246
2.37767	247
2.38133	248
2.38500	248
2.38867	249
2.39233	251
2.39600	255
2.39967	255
2.40333	255
2.40700	251
2.41067	242
2.41433	234
2.41800	232
2.42167	235
2.42533	241
2.42900	248
2.43267	255
2.43633	260
2.44000	262
2.44367	263
2.44733	261
2.45100	253
2.45467	241
2.45833	228
2.46200	213
2.46567	202
2.46933	197
2.47300	198
2.47667	201
2.48033	201
2.48400	203
2.48767	210
2.49133	215
2.49500	219
2.49867	224
2.50233	229
2.50600	232
2.50967	234
2.51333	237
2.51700	239
2.52067	240
2.52433	241
2.52800	243
2.53167	249
2.53533	251
2.53900	247
2.54267	243
2.54633	242
2.55000	245
2.55367	248
2.55733	250
2.56100	249
2.56467	246
2.56833	247
2.57200	248
2.57567	252
2.57933	258
2.58300	259
2.58667	261
2.59033	263
2.59400	266
2.59767	271
2.60133	272
2.60500	270
2.60867	270
2.61233	271
2.61600	269
2.61967	266
2.62333	263
2.62700	259
2.63067	252
2.63433	245
2.63800	245
2.64167	249
2.64533	255
2.64900	262
2.65267	266
2.65633	273
2.66000	280
2.66367	283
2.66733	279
2.67100	272
2.67467	268
2.67833	266
2.68200	270
2.68567	276
2.68933	279
2.69300	280
2.69667	280
2.70033	279
2.70400	272
2.70767	264
2.71133	264
2.71500	271
2.71867	282
2.72233	291
2.72600	297
2.72967	302
2.73333	304
2.73700	306
2.74067	308
2.74433	309
2.74800	312
2.75167	316
2.75533	319
2.75900	320
2.76267	319
2.76633	317
2.77000	319
2.77367	326
2.77733	333
2.78100	336
2.78467	334
2.78833	330
2.79200	327
2.79567	325
2.79933	326
2.80300	329
2.80667	330
2.81033	329
2.81400	329
2.81767	332
2.82133	336
2.82500	335
2.82867	332
2.83233	333
2.83600	337
2.83967	343
2.84333	348
2.84700	353
2.85067	361
2.85433	366
2.85800	362
2.86167	352
2.86533	345
2.86900	346
2.87267	349
2.87633	356
2.88000	365
2.88367	375
2.88733	384
2.89100	389
2.89467	388
2.89833	384
2.90200	385
2.90567	389
2.90933	396
2.91300	398
2.91667	397
2.92033	398
2.92400	399
2.92767	401
2.93133	398
2.93500	388
2.93867	380
2.94233	377
2.94600	380
2.94967	388
2.95333	391
2.95700	393
2.96067	397
2.96433	400
2.96800	404
2.97167	403
2.97533	398
2.97900	393
2.98267	392
2.98633	397
2.99000	405
2.99367	407
2.99733	407
3.00100	409
3.00467	411
3.00833	412
3.01200	411
3.01567	408
3.01933	407
3.02300	407
3.02667	407
3.03033	409
3.03400	411
3.03767	414
3.04133	417
3.04500	421
3.04867	424
3.05233	424
3.05600	425
3.05967	427
3.06333	430
3.06700	429
3.07067	427
3.07433	424
3.07800	422
3.08167	421
3.08533	422
3.08900	425
3.09267	427
3.09633	426
3.10000	425
3.10367	424
3.10733	420
3.11100	417
3.11467	416
3.11833	414
3.12200	415
3.12567	423
3.12933	429
3.13300	428
3.13667	430
3.14033	435
3.14400	441
3.14767	448
3.15133	450
3.15500	450
3.15867	448
3.16233	445
3.16600	444
3.16967	441
3.17333	439
3.17700	439
3.18067	440
3.18433	442
3.18800	445
3.19167	446
3.19533	444
3.19900	442
3.20267	443
3.20633	445
3.21000	444
3.21367	441
3.21733	436
3.22100	433
3.22467	432
3.22833	430
3.23200	428
3.23567	428
3.23933	429
3.24300	432
3.24667	437
3.25033	438
3.25400	434
3.25767	429
3.26133	425
3.26500	420
3.26867	419
3.27233	422
3.27600	424
3.27967	426
3.28333	428
3.28700	432
3.29067	433
3.29433	433
3.29800	434
3.30167	437
3.30533	438
3.30900	438
3.31267	439
3.31633	440
3.32000	442
3.32367	441
3.32733	439
3.33100	435
3.33467	437
3.33833	442
3.34200	448
3.34567	454
3.34933	459
3.35300	459
3.35667	454
3.36033	448
3.36400	443
3.36767	441
3.37133	442
3.37500	443
3.37867	438
3.38233	431
3.38600	426
3.38967	424
3.39333	424
3.39700	426
3.40067	427
3.40433	424
3.40800	424
3.41167	426
3.41533	432
3.41900	438
3.42267	445
3.42633	449
3.43000	449
3.43367	445
3.43733	444
3.44100	442
3.44467	441
3.44833	439
3.45200	435
3.45567	435
3.45933	440
3.46300	444
3.46667	440
3.47033	431
3.47400	423
3.47767	418
3.48133	418
3.48500	420
3.48867	422
3.49233	423
3.49600	428
3.49967	436
3.50333	441
3.50700	445
3.51067	447
3.51433	445
3.51800	440
3.52167	432
3.52533	426
3.52900	423
3.53267	423
3.53633	422
3.54000	421
3.54367	421
3.54733	421
3.55100	420
3.55467	418
3.55833	418
3.56200	420
3.56567	422
3.56933	422
3.57300	421
3.57667	423
3.58033	428
3.58400	430
3.58767	429
3.59133	426
3.59500	427
3.59867	433
3.60233	439
3.60600	441
3.60967	436
3.61333	430
3.61700	420
3.62067	411
3.62433	405
3.62800	404
3.63167	405
3.63533	407
3.63900	409
3.64267	410
3.64633	413
3.65000	416
3.65367	416
3.65733	413
3.66100	413
3.66467	416
3.66833	420
3.67200	420
3.67567	416
3.67933	409
3.68300	403
3.68667	401
3.69033	401
3.69400	401
3.69767	399
3.70133	398
3.70500	398
3.70867	397
3.71233	397
3.71600	397
3.71967	400
3.72333	402
3.72700	400
3.73067	397
3.73433	395
3.73800	399
3.74167	402
3.74533	400
3.74900	398
3.75267	394
3.75633	388
3.76000	388
3.76367	395
3.76733	400
3.77100	402
3.77467	401
3.77833	402
3.78200	403
3.78567	405
3.78933	403
3.79300	398
3.79667	389
3.80033	378
3.80400	373
3.80767	373
3.81133	378
3.81500	385
3.81867	393
3.82233	400
3.82600	403
3.82967	405
3.83333	403
3.83700	396
3.84067	386
3.84433	375
3.84800	368
3.85167	365
3.85533	363
3.85900	363
3.86267	364
3.86633	371
3.87000	382
3.87367	388
3.87733	385
3.88100	379
3.88467	375
3.88833	375
3.89200	377
3.89567	379
3.89933	376
3.90300	372
3.90667	367
3.91033	364
3.91400	362
3.91767	363
3.92133	366
3.92500	370
3.92867	369
3.93233	366
3.93600	363
3.93967	363
3.94333	367
3.94700	371
3.95067	375
3.95433	377
3.95800	377
3.96167	372
3.96533	368
3.96900	365
3.97267	364
3.97633	365
3.98000	367
3.98367	371
3.98733	376
3.99100	376
3.99467	374
3.99833	372

[Chromatogram (Ch2)]
Interval(msec)	220
# of Points	1091
Start Time(min)	0.002
End Time(min)	3.998
R.Time (min)	Intensity
0.00167	0
0.00533	1
0.00900	1
0.01267	1
0.01633	1
0.02000	1
0.02367	2
0.02733	1
0.03100	1
0.03467	1
0.03833	1
0.04200	1
0.04567	1
0.04933	1
0.05300	1
0.05667	1
0.06033	1
0.06400	1
0.06767	0
0.07133	0
0.07500	0
0.07867	-0
0.08233	-0
0.08600	-0
0.08967	-1
0.09333	-1
0.09700	-1
0.10067	-1
0.10433	-2
0.10800	-2
0.11167	-2
0.11533	-2
0.11900	-2
0.12267	-2
0.12633	-2
0.13000	-3
0.13367	-3
0.13733	-3
0.14100	-4
0.14467	-4
0.14833	-4
0.15200	-4
0.15567	-4
0.15933	-4
0.16300	-4
0.16667	-4
0.17033	-4
0.17400	-4
0.17767	-4
0.18133	-4
0.18500	-4
0.18867	-4
0.19233	-4
0.19600	-4
0.19967	-4
0.20333	-3
0.20700	-3
0.21067	-3
0.21433	-3
0.21800	-3
0.22167	-2
0.22533	-2
0.22900	-1
0.23267	-1
0.23633	-0
0.24000	-0
0.24367	0
0.24733	0
0.25100	0
0.25467	-0
0.25833	-0
0.26200	-0
0.26567	-0
0.26933	-0
0.27300	0
0.27667	0
0.28033	0
0.28400	0
0.28767	0
0.29133	-0
0.29500	-0
0.29867	-0
0.30233	-1
0.30600	-1
0.30967	-1
0.31333	-2
0.31700	-2
0.32067	-2
0.32433	-3
0.32800	-3
0.33167	-4
0.33533	-4
0.33900	-5
0.34267	-5
0.34633	-5
0.35000	-6
0.35367	-6
0.35733	-6
0.36100	-6
0.36467	-6
0.36833	-6
0.37200	-6
0.37567	-6
0.37933	-6
0.38300	-6
0.38667	-5
0.39033	-5
0.39400	-5
0.39767	-5
0.40133	-4
0.40500	-4
0.40867	-3
0.41233	-3
0.41600	-2
0.41967	-2
0.42333	-2
0.42700	-2
0.43067	-1
0.43433	-1
0.43800	-1
0.44167	-1
0.44533	-1
0.44900	-1
0.45267	-0
0.45633	-0
0.46000	0
0.46367	0
0.46733	0
0.47100	0
0.47467	0
0.47833	0
0.48200	0
0.48567	1
0.48933	1
0.49300	1
0.49667	0
0.50033	0
0.50400	0
0.50767	-0
0.51133	-0
0.51500	-1
0.51867	-1
0.52233	-1
0.52600	-1
0.52967	-1
0.53333	-1
0.53700	-2
0.54067	-2
0.54433	-2
0.54800	-2
0.55167	-2
0.55533	-2
0.55900	-2
0.56267	-2
0.56633	-2
0.57000	-3
0.57367	-3
0.57733	-3
0.58100	-3
0.58467	-3
0.58833	-3
0.59200	-3
0.59567	-3
0.59933	-4
0.60300	-4
0.60667	-4
0.61033	-4
0.61400	-4
0.61767	-4
0.62133	-4
0.62500	-4
0.62867	-4
0.63233	-4
0.63600	-5
0.63967	-5
0.64333	-5
0.64700	-5
0.65067	-5
0.65433	-5
0.65800	-5
0.66167	-5
0.66533	-5
0.66900	-5
0.67267	-5
0.67633	-5
0.68000	-5
0.68367	-5
0.68733	-5
0.69100	-5
0.69467	-5
0.69833	-5
0.70200	-5
0.70567	-4
0.70933	-4
0.71300	-4
0.71667	-4
0.72033	-4
0.72400	-4
0.72767	-3
0.73133	-3
0.73500	-3
0.73867	-3
0.74233	-3
0.74600	-3
0.74967	-3
0.75333	-3
0.75700	-3
0.76067	-3
0.76433	-3
0.76800	-3
0.77167	-3
0.77533	-4
0.77900	-4
0.78267	-3
0.78633	-3
0.79000	-3
0.79367	-3
0.79733	-3
0.80100	-3
0.80467	-3
0.80833	-3
0.81200	-3
0.81567	-3
0.81933	-3
0.82300	-3
0.82667	-3
0.83033	-2
0.83400	-2
0.83767	-2
0.84133	-2
0.84500	-2
0.84867	-3
0.85233	-3
0.85600	-3
0.85967	-3
0.86333	-3
0.86700	-3
0.87067	-3
0.87433	-4
0.87800	-4
0.88167	-4
0.88533	-3
0.88900	-3
0.89267	-3
0.89633	-3
0.90000	-4
0.90367	-4
0.90733	-4
0.91100	-3
0.91467	-3
0.91833	-3
0.92200	-3
0.92567	-4
0.92933	-4
0.93300	-4
0.93667	-4
0.94033	-4
0.94400	-4
0.94767	-3
0.95133	-3
0.95500	-4
0.95867	-4
0.96233	-4
0.96600	-4
0.96967	-4
0.97333	-4
0.97700	-4
0.98067	-4
0.98433	-4
0.98800	-4
0.99167	-4
0.99533	-4
0.99900	-4
1.00267	-4
1.00633	-4
1.01000	-4
1.01367	-4
1.01733	-4
1.02100	-4
1.02467	-5
1.02833	-5
1.03200	-5
1.03567	-5
1.03933	-5
1.04300	-5
1.04667	-5
1.05033	-4
1.05400	-4
1.05767	-4
1.06133	-4
1.06500	-4
1.06867	-4
1.07233	-5
1.07600	-5
1.07967	-5
1.08333	-5
1.08700	-5
1.09067	-5
1.09433	-5
1.09800	-5
1.10167	-5
1.10533	-6
1.10900	-6
1.11267	-6
1.11633	-6
1.12000	-6
1.12367	-6
1.12733	-6
1.13100	-6
1.13467	-5
1.13833	-5
1.14200	-5
1.14567	-4
1.14933	-4
1.15300	-3
1.15667	-3
1.16033	-3
1.16400	-2
1.16767	-2
1.17133	-2
1.17500	-3
1.17867	-3
1.18233	-3
1.18600	-3
1.18967	-3
1.19333	-3
1.19700	-3
1.20067	-3
1.20433	-3
1.20800	-3
1.21167	-3
1.21533	-3
1.21900	-3
1.22267	-3
1.22633	-3
1.23000	-3
1.23367	-3
1.23733	-3
1.24100	-3
1.24467	-3
1.24833	-3
1.25200	-3
1.25567	-3
1.25933	-3
1.26300	-3
1.26667	-3
1.27033	-3
1.27400	-3
1.27767	-3
1.28133	-2
1.28500	-2
1.28867	-2
1.29233	-2
1.29600	-1
1.29967	-2
1.30333	-2
1.30700	-2
1.31067	-2
1.31433	-2
1.31800	-3
1.32167	-3
1.32533	-3
1.32900	-3
1.33267	-3
1.33633	-4
1.34000	-4
1.34367	-4
1.34733	-5
1.35100	-5
1.35467	-5
1.35833	-5
1.36200	-6
1.36567	-5
1.36933	-5
1.37300	-5
1.37667	-5
1.38033	-4
1.38400	-4
1.38767	-5
1.39133	-5
1.39500	-5
1.39867	-5
1.40233	-5
1.40600	-4
1.40967	-4
1.41333	-4
1.41700	-4
1.42067	-4
1.42433	-4
1.42800	-4
1.43167	-3
1.43533	-3
1.43900	-3
1.44267	-4
1.44633	-4
1.45000	-4
1.45367	-4
1.45733	-3
1.46100	-3
1.46467	-3
1.46833	-3
1.47200	-4
1.47567	-4
1.47933	-4
1.48300	-4
1.48667	-5
1.49033	-5
1.49400	-5
1.49767	-6
1.50133	-6
1.50500	-6
1.50867	-7
1.51233	-7
1.51600	-7
1.51967	-8
1.52333	-8
1.52700	-8
1.53067	-8
1.53433	-8
1.53800	-7
1.54167	-7
1.54533	-6
1.54900	-5
1.55267	-5
1.55633	-5
1.56000	-4
1.56367	-4
1.56733	-4
1.57100	-4
1.57467	-4
1.57833	-4
1.58200	-4
1.58567	-4
1.58933	-5
1.59300	-5
1.59667	-5
1.60033	-6
1.60400	-7
1.60767	-8
1.61133	-10
1.61500	-11
1.61867	-14
1.62233	-16
1.62600	-19
1.62967	-21
1.63333	-24
1.63700	-27
1.64067	-31
1.64433	-34
1.64800	-37
1.65167	-41
1.65533	-44
1.65900	-48
1.66267	-52
1.66633	-56
1.67000	-61
1.67367	-66
1.67733	-70
1.68100	-75
1.68467	-79
1.68833	-82
1.69200	-86
1.69567	-88
1.69933	-91
1.70300	-93
1.70667	-94
1.71033	-96
1.71400	-97
1.71767	-98
1.72133	-99
1.72500	-100
1.72867	-100
1.73233	-101
1.73600	-101
1.73967	-102
1.74333	-102
1.74700	-102
1.75067	-103
1.75433	-103
1.75800	-104
1.76167	-104
1.76533	-105
1.76900	-105
1.77267	-105
1.77633	-105
1.78000	-105
1.78367	-106
1.78733	-106
1.79100	-106
1.79467	-106
1.79833	-107
1.80200	-107
1.80567	-108
1.80933	-109
1.81300	-109
1.81667	-109
1.82033	-109
1.82400	-109
1.82767	-109
1.83133	-108
1.83500	-108
1.83867	-107
1.84233	-107
1.84600	-107
1.84967	-107
1.85333	-107
1.85700	-106
1.86067	-106
1.86433	-105
1.86800	-104
1.87167	-104
1.87533	-104
1.87900	-104
1.88267	-104
1.88633	-105
1.89000	-105
1.89367	-105
1.89733	-105
1.90100	-105
1.90467	-105
1.90833	-105
1.91200	-105
1.91567	-106
1.91933	-106
1.92300	-106
1.92667	-107
1.93033	-106
1.93400	-106
1.93767	-105
1.94133	-105
1.94500	-104
1.94867	-104
1.95233	-104
1.95600	-104
1.95967	-104
1.96333	-104
1.96700	-104
1.97067	-104
1.97433	-103
1.97800	-103
1.98167	-103
1.98533	-103
1.98900	-102
1.99267	-101
1.99633	-100
2.00000	-99
2.00367	-98
2.00733	-97
2.01100	-96
2.01467	-96
2.01833	-97
2.02200	-97
2.02567	-98
2.02933	-99
2.03300	-99
2.03667	-99
2.04033	-98
2.04400	-97
2.04767	-96
2.05133	-95
2.05500	-94
2.05867	-94
2.06233	-93
2.06600	-93
2.06967	-93
2.07333	-93
2.07700	-93
2.08067	-93
2.08433	-93
2.08800	-92
2.09167	-92
2.09533	-92
2.09900	-91
2.10267	-91
2.10633	-91
2.11000	-91
2.11367	-91
2.11733	-91
2.12100	-92
2.12467	-93
2.12833	-93
2.13200	-94
2.13567	-94
2.13933	-93
2.14300	-93
2.14667	-92
2.15033	-91
2.15400	-91
2.15767	-91
2.16133	-90
2.16500	-89
2.16867	-89
2.17233	-88
2.17600	-88
2.17967	-87
2.18333	-86
2.18700	-85
2.19067	-84
2.19433	-84
2.19800	-84
2.20167	-84
2.20533	-84
2.20900	-84
2.21267	-83
2.21633	-83
2.22000	-82
2.22367	-82
2.22733	-83
2.23100	-83
2.23467	-84
2.23833	-85
2.24200	-86
2.24567	-86
2.24933	-86
2.25300	-85
2.25667	-84
2.26033	-83
2.26400	-82
2.26767	-80
2.27133	-80
2.27500	-79
2.27867	-78
2.28233	-77
2.28600	-77
2.28967	-77
2.29333	-77
2.29700	-77
2.30067	-77
2.30433	-77
2.30800	-77
2.31167	-77
2.31533	-76
2.31900	-76
2.32267	-76
2.32633	-76
2.33000	-76
2.33367	-76
2.33733	-76
2.34100	-76
2.34467	-75
2.34833	-75
2.35200	-74
2.35567	-73
2.35933	-72
2.36300	-70
2.36667	-68
2.37033	-66
2.37400	-63
2.37767	-59
2.38133	-56
2.38500	-52
2.38867	-47
2.39233	-43
2.39600	-38
2.39967	-34
2.40333	-30
2.40700	-26
2.41067	-22
2.41433	-19
2.41800	-15
2.42167	-12
2.42533	-10
2.42900	-8
2.43267	-6
2.43633	-4
2.44000	-2
2.44367	-1
2.44733	1
2.45100	2
2.45467	4
2.45833	5
2.46200	6
2.46567	7
2.46933	8
2.47300	9
2.47667	9
2.48033	10
2.48400	11
2.48767	11
2.49133	12
2.49500	13
2.49867	13
2.50233	12
2.50600	11
2.50967	10
2.51333	10
2.51700	10
2.52067	9
2.52433	9
2.52800	10
2.53167	10
2.53533	10
2.53900	10
2.54267	9
2.54633	9
2.55000	10
2.55367	10
2.55733	11
2.56100	12
2.56467	12
2.56833	12
2.57200	13
2.57567	13
2.57933	13
2.58300	14
2.58667	15
2.59033	15
2.59400	15
2.59767	16
2.60133	16
2.60500	16
2.60867	16
2.61233	16
2.61600	17
2.61967	17
2.62333	17
2.62700	18
2.63067	19
2.63433	19
2.63800	19
2.64167	20
2.64533	20
2.64900	21
2.65267	21
2.65633	22
2.66000	22
2.66367	22
2.66733	22
2.67100	22
2.67467	22
2.67833	22
2.68200	22
2.68567	22
2.68933	22
2.69300	22
2.69667	22
2.70033	22
2.70400	22
2.70767	23
2.71133	23
2.71500	23
2.71867	24
2.72233	24
2.72600	24
2.72967	24
2.73333	24
2.73700	24
2.74067	24
2.74433	24
2.74800	24
2.75167	24
2.75533	24
2.75900	24
2.76267	24
2.76633	24
2.77000	25
2.77367	25
2.77733	26
2.78100	26
2.78467	27
2.78833	27
2.79200	28
2.79567	28
2.79933	29
2.80300	29
2.80667	30
2.81033	30
2.81400	30
2.81767	30
2.82133	30
2.82500	29
2.82867	28
2.83233	28
2.83600	27
2.83967	27
2.84333	26
2.84700	26
2.85067	26
2.85433	25
2.85800	25
2.86167	24
2.86533	22
2.86900	18
2.87267	12
2.87633	2
2.88000	-12
2.88367	-31
2.88733	-54
2.89100	-83
2.89467	-117
2.89833	-156
2.90200	-200
2.90567	-248
2.90933	-300
2.91300	-356
2.91667	-414
2.92033	-474
2.92400	-536
2.92767	-597
2.93133	-659
2.93500	-720
2.93867	-778
2.94233	-834
2.94600	-886
2.94967	-938
2.95333	-993
2.95700	-1047
2.96067	-1091
2.96433	-1117
2.96800	-1117
2.97167	-1092
2.97533	-1046
2.97900	-982
2.98267	-908
2.98633	-828
2.99000	-746
2.99367	-666
2.99733	-589
3.00100	-518
3.00467	-452
3.00833	-393
3.01200	-340
3.01567	-292
3.01933	-251
3.02300	-214
3.02667	-182
3.03033	-154
3.03400	-130
3.03767	-110
3.04133	-92
3.04500	-76
3.04867	-63
3.05233	-52
3.05600	-42
3.05967	-34
3.06333	-27
3.06700	-21
3.07067	-15
3.07433	-11
3.07800	-7
3.08167	-3
3.08533	-1
3.08900	2
3.09267	4
3.09633	6
3.10000	7
3.10367	9
3.10733	10
3.11100	11
3.11467	12
3.11833	13
3.12200	13
3.12567	14
3.12933	15
3.13300	15
3.13667	16
3.14033	16
3.14400	17
3.14767	17
3.15133	17
3.15500	18
3.15867	18
3.16233	19
3.16600	19
3.16967	19
3.17333	19
3.17700	20
3.18067	21
3.18433	21
3.18800	22
3.19167	22
3.19533	22
3.19900	22
3.20267	23
3.20633	23
3.21000	22
3.21367	22
3.21733	22
3.22100	22
3.22467	22
3.22833	22
3.23200	22
3.23567	22
3.23933	22
3.24300	22
3.24667	22
3.25033	22
3.25400	22
3.25767	23
3.26133	23
3.26500	23
3.26867	23
3.27233	23
3.27600	23
3.27967	23
3.28333	23
3.28700	23
3.29067	24
3.29433	24
3.29800	24
3.30167	25
3.30533	25
3.30900	25
3.31267	26
3.31633	26
3.32000	25
3.32367	25
3.32733	26
3.33100	26
3.33467	26
3.33833	26
3.34200	26
3.34567	26
3.34933	26
3.35300	26
3.35667	26
3.36033	26
3.36400	27
3.36767	27
3.37133	27
3.37500	27
3.37867	26
3.38233	26
3.38600	26
3.38967	26
3.39333	26
3.39700	26
3.40067	26
3.40433	26
3.40800	26
3.41167	26
3.41533	26
3.41900	26
3.42267	26
3.42633	26
3.43000	26
3.43367	27
3.43733	27
3.44100	27
3.44467	27
3.44833	27
3.45200	27
3.45567	27
3.45933	27
3.46300	27
3.46667	27
3.47033	27
3.47400	27
3.47767	28
3.48133	28
3.48500	28
3.48867	28
3.49233	27
3.49600	27
3.49967	27
3.50333	27
3.50700	27
3.51067	27
3.51433	27
3.51800	27
3.52167	27
3.52533	28
3.52900	28
3.53267	28
3.53633	28
3.54000	28
3.54367	28
3.54733	28
3.55100	28
3.55467	28
3.55833	28
3.56200	28
3.56567	28
3.56933	28
3.57300	28
3.57667	28
3.58033	28
3.58400	28
3.58767	28
3.59133	28
3.59500	28
3.59867	28
3.60233	28
3.60600	28
3.60967	28
3.61333	28
3.61700	27
3.62067	27
3.62433	27
3.62800	27
3.63167	27
3.63533	27
3.63900	27
3.64267	28
3.64633	28
3.65000	27
3.65367	27
3.65733	27
3.66100	27
3.66467	27
3.66833	27
3.67200	27
3.67567	28
3.67933	28
3.68300	28
3.68667	28
3.69033	28
3.69400	28
3.69767	28
3.70133	28
3.70500	28
3.70867	28
3.71233	28
3.71600	27
3.71967	27
3.72333	27
3.72700	27
3.73067	27
3.73433	27
3.73800	27
3.74167	27
3.74533	26
3.74900	27
3.75267	27
3.75633	27
3.76000	27
3.76367	27
3.76733	27
3.77100	27
3.77467	27
3.77833	27
3.78200	28
3.78567	28
3.78933	28
3.79300	28
3.79667	28
3.80033	28
3.80400	28
3.80767	28
3.81133	28
3.81500	28
3.81867	27
3.82233	27
3.82600	27
3.82967	27
3.83333	27
3.83700	27
3.84067	28
3.84433	28
3.84800	28
3.85167	28
3.85533	28
3.85900	28
3.86267	28
3.86633	28
3.87000	28
3.87367	28
3.87733	28
3.88100	27
3.88467	27
3.88833	27
3.89200	27
3.89567	27
3.89933	27
3.90300	27
3.90667	27
3.91033	27
3.91400	27
3.91767	27
3.92133	28
3.92500	27
3.92867	27
3.93233	27
3.93600	27
3.93967	26
3.94333	26
3.94700	26
3.95067	26
3.95433	26
3.95800	26
3.96167	26
3.96533	26
3.96900	26
3.97267	26
3.97633	26
3.98000	26
3.98367	26
3.98733	26
3.99100	27
3.99467	27
3.99833	27

[Chromatogram (Ch3)]
Interval(msec)	220
# of Points	1091
Start Time(min)	0.002
End Time(min)	3.998
R.Time (min)	Intensity
0.00167	-1
0.00533	-1
0.00900	-1
0.01267	-4
0.01633	-4
0.02000	-3
0.02367	-4
0.02733	-6
0.03100	-7
0.03467	-7
0.03833	-2
0.04200	-1
0.04567	-3
0.04933	-3
0.05300	-1
0.05667	1
0.06033	1
0.06400	2
0.06767	5
0.07133	6
0.07500	7
0.07867	6
0.08233	7
0.08600	6
0.08967	5
0.09333	4
0.09700	5
0.10067	3
0.10433	1
0.10800	2
0.11167	1
0.11533	0
0.11900	2
0.12267	4
0.12633	7
0.13000	6
0.13367	6
0.13733	8
0.14100	8
0.14467	8
0.14833	7
0.15200	6
0.15567	4
0.15933	4
0.16300	5
0.16667	6
0.17033	7
0.17400	7
0.17767	5
0.18133	5
0.18500	6
0.18867	7
0.19233	8
0.19600	8
0.19967	8
0.20333	7
0.20700	8
0.21067	8
0.21433	8
0.21800	7
0.22167	6
0.22533	6
0.22900	7
0.23267	7
0.23633	6
0.24000	5
0.24367	4
0.24733	4
0.25100	4
0.25467	4
0.25833	6
0.26200	9
0.26567	10
0.26933	8
0.27300	7
0.27667	9
0.28033	11
0.28400	12
0.28767	10
0.29133	7
0.29500	5
0.29867	5
0.30233	4
0.30600	4
0.30967	4
0.31333	6
0.31700	9
0.32067	11
0.32433	10
0.32800	9
0.33167	9
0.33533	8
0.33900	7
0.34267	7
0.34633	8
0.35000	9
0.35367	10
0.35733	10
0.36100	10
0.36467	9
0.36833	10
0.37200	10
0.37567	11
0.37933	13
0.38300	15
0.38667	14
0.39033	12
0.39400	11
0.39767	11
0.40133	13
0.40500	12
0.40867	10
0.41233	10
0.41600	10
0.41967	12
0.42333	14
0.42700	14
0.43067	15
0.43433	16
0.43800	16
0.44167	15
0.44533	15
0.44900	14
0.45267	12
0.45633	11
0.46000	12
0.46367	13
0.46733	15
0.47100	15
0.47467	14
0.47833	14
0.48200	14
0.48567	15
0.48933	16
0.49300	15
0.49667	14
0.50033	14
0.50400	14
0.50767	14
0.51133	12
0.51500	9
0.51867	9
0.52233	6
0.52600	7
0.52967	9
0.53333	13
0.53700	15
0.54067	16
0.54433	14
0.54800	13
0.55167	13
0.55533	15
0.55900	17
0.56267	18
0.56633	17
0.57000	16
0.57367	17
0.57733	16
0.58100	15
0.58467	17
0.58833	19
0.59200	21
0.59567	22
0.59933	20
0.60300	19
0.60667	20
0.61033	20
0.61400	19
0.61767	19
0.62133	18
0.62500	19
0.62867	19
0.63233	18
0.63600	17
0.63967	17
0.64333	16
0.64700	18
0.65067	20
0.65433	21
0.65800	20
0.66167	19
0.66533	19
0.66900	21
0.67267	22
0.67633	21
0.68000	18
0.68367	17
0.68733	17
0.69100	18
0.69467	19
0.69833	21
0.70200	22
0.70567	21
0.70933	18
0.71300	17
0.71667	16
0.72033	15
0.72400	16
0.72767	17
0.73133	19
0.73500	19
0.73867	18
0.74233	18
0.74600	17
0.74967	19
0.75333	19
0.75700	18
0.76067	19
0.76433	20
0.76800	20
0.77167	18
0.77533	17
0.77900	18
0.78267	21
0.78633	22
0.79000	23
0.79367	23
0.79733	23
0.80100	22
0.80467	19
0.80833	18
0.81200	17
0.81567	17
0.81933	17
0.82300	16
0.82667	16
0.83033	16
0.83400	15
0.83767	15
0.84133	19
0.84500	21
0.84867	20
0.85233	17
0.85600	17
0.85967	18
0.86333	18
0.86700	18
0.87067	19
0.87433	18
0.87800	19
0.88167	20
0.88533	22
0.88900	23
0.89267	25
0.89633	25
0.90000	24
0.90367	22
0.90733	20
0.91100	19
0.91467	18
0.91833	19
0.92200	19
0.92567	18
0.92933	17
0.93300	18
0.93667	17
0.94033	18
0.94400	17
0.94767	14
0.95133	14
0.95500	15
0.95867	17
0.96233	22
0.96600	23
0.96967	22
0.97333	21
0.97700	21
0.98067	20
0.98433	18
0.98800	15
0.99167	14
0.99533	15
0.99900	15
1.00267	15
1.00633	15
1.01000	16
1.01367	17
1.01733	18
1.02100	20
1.02467	20
1.02833	19
1.03200	19
1.03567	18
1.03933	19
1.04300	17
1.04667	15
1.05033	16
1.05400	19
1.05767	21
1.06133	21
1.06500	21
1.06867	21
1.07233	22
1.07600	25
1.07967	23
1.08333	22
1.08700	21
1.09067	21
1.09433	23
1.09800	24
1.10167	23
1.10533	23
1.10900	24
1.11267	24
1.11633	25
1.12000	25
1.12367	25
1.12733	24
1.13100	22
1.13467	22
1.13833	22
1.14200	21
1.14567	21
1.14933	21
1.15300	22
1.15667	21
1.16033	20
1.16400	20
1.16767	21
1.17133	22
1.17500	23
1.17867	22
1.18233	23
1.18600	23
1.18967	22
1.19333	20
1.19700	18
1.20067	19
1.20433	20
1.20800	21
1.21167	21
1.21533	23
1.21900	25
1.22267	26
1.22633	25
1.23000	24
1.23367	21
1.23733	20
1.24100	23
1.24467	23
1.24833	22
1.25200	22
1.25567	23
1.25933	23
1.26300	24
1.26667	24
1.27033	25
1.27400	25
1.27767	26
1.28133	24
1.28500	21
1.28867	19
1.29233	20
1.29600	20
1.29967	21
1.30333	23
1.30700	23
1.31067	22
1.31433	22
1.31800	23
1.32167	23
1.32533	24
1.32900	23
1.33267	23
1.33633	23
1.34000	22
1.34367	20
1.34733	18
1.35100	18
1.35467	20
1.35833	21
1.36200	20
1.36567	21
1.36933	24
1.37300	25
1.37667	24
1.38033	23
1.38400	22
1.38767	22
1.39133	22
1.39500	23
1.39867	23
1.40233	23
1.40600	23
1.40967	23
1.41333	23
1.41700	20
1.42067	18
1.42433	17
1.42800	17
1.43167	19
1.43533	22
1.43900	23
1.44267	23
1.44633	23
1.45000	25
1.45367	25
1.45733	25
1.46100	25
1.46467	25
1.46833	25
1.47200	25
1.47567	25
1.47933	26
1.48300	26
1.48667	26
1.49033	25
1.49400	24
1.49767	26
1.50133	29
1.50500	30
1.50867	30
1.51233	30
1.51600	30
1.51967	27
1.52333	23
1.52700	22
1.53067	21
1.53433	22
1.53800	23
1.54167	25
1.54533	27
1.54900	28
1.55267	29
1.55633	28
1.56000	26
1.56367	24
1.56733	22
1.57100	21
1.57467	23
1.57833	25
1.58200	24
1.58567	22
1.58933	20
1.59300	20
1.59667	21
1.60033	23
1.60400	24
1.60767	25
1.61133	26
1.61500	26
1.61867	27
1.62233	27
1.62600	27
1.62967	27
1.63333	24
1.63700	23
1.64067	22
1.64433	22
1.64800	23
1.65167	23
1.65533	24
1.65900	25
1.66267	24
1.66633	25
1.67000	25
1.67367	25
1.67733	27
1.68100	29
1.68467	33
1.68833	34
1.69200	35
1.69567	36
1.69933	36
1.70300	36
1.70667	36
1.71033	35
1.71400	36
1.71767	35
1.72133	34
1.72500	35
1.72867	37
1.73233	38
1.73600	37
1.73967	36
1.74333	38
1.74700	38
1.75067	39
1.75433	40
1.75800	39
1.76167	38
1.76533	39
1.76900	40
1.77267	36
1.77633	35
1.78000	33
1.78367	34
1.78733	37
1.79100	40
1.79467	40
1.79833	40
1.80200	42
1.80567	44
1.80933	45
1.81300	44
1.81667	43
1.82033	45
1.82400	46
1.82767	45
1.83133	45
1.83500	46
1.83867	44
1.84233	43
1.84600	43
1.84967	44
1.85333	48
1.85700	48
1.86067	48
1.86433	48
1.86800	47
1.87167	49
1.87533	51
1.87900	51
1.88267	51
1.88633	51
1.89000	51
1.89367	51
1.89733	52
1.90100	53
1.90467	55
1.90833	56
1.91200	58
1.91567	60
1.91933	60
1.92300	61
1.92667	62
1.93033	62
1.93400	61
1.93767	61
1.94133	62
1.94500	64
1.94867	64
1.95233	65
1.95600	65
1.95967	65
1.96333	65
1.96700	68
1.97067	69
1.97433	70
1.97800	72
1.98167	71
1.98533	72
1.98900	72
1.99267	73
1.99633	74
2.00000	75
2.00367	75
2.00733	75
2.01100	77
2.01467	78
2.01833	78
2.02200	79
2.02567	81
2.02933	84
2.03300	85
2.03667	87
2.04033	88
2.04400	86
2.04767	84
2.05133	84
2.05500	85
2.05867	85
2.06233	87
2.06600	88
2.06967	88
2.07333	89
2.07700	92
2.08067	93
2.08433	93
2.08800	93
2.09167	95
2.09533	95
2.09900	95
2.10267	95
2.10633	96
2.11000	100
2.11367	103
2.11733	102
2.12100	103
2.12467	105
2.12833	107
2.13200	110
2.13567	111
2.13933	111
2.14300	110
2.14667	111
2.15033	112
2.15400	112
2.15767	111
2.16133	111
2.16500	112
2.16867	114
2.17233	115
2.17600	114
2.17967	113
2.18333	112
2.18700	113
2.19067	115
2.19433	117
2.19800	118
2.20167	121
2.20533	123
2.20900	123
2.21267	123
2.21633	126
2.22000	128
2.22367	127
2.22733	126
2.23100	127
2.23467	129
2.23833	129
2.24200	128
2.24567	128
2.24933	127
2.25300	127
2.25667	127
2.26033	126
2.26400	127
2.26767	128
2.27133	128
2.27500	126
2.27867	125
2.28233	126
2.28600	126
2.28967	128
2.29333	130
2.29700	133
2.30067	134
2.30433	133
2.30800	131
2.31167	129
2.31533	130
2.31900	132
2.32267	133
2.32633	133
2.33000	135
2.33367	137
2.33733	138
2.34100	139
2.34467	142
2.34833	145
2.35200	146
2.35567	147
2.35933	148
2.36300	147
2.36667	147
2.37033	145
2.37400	141
2.37767	138
2.38133	136
2.38500	134
2.38867	132
2.39233	133
2.39600	135
2.39967	138
2.40333	141
2.40700	142
2.41067	144
2.41433	146
2.41800	148
2.42167	149
2.42533	149
2.42900	147
2.43267	147
2.43633	149
2.44000	154
2.44367	194
2.44733	273
2.45100	347
2.45467	402
2.45833	425
2.46200	420
2.46567	402
2.46933	387
2.47300	374
2.47667	358
2.48033	335
2.48400	310
2.48767	285
2.49133	260
2.49500	242
2.49867	228
2.50233	221
2.50600	220
2.50967	225
2.51333	233
2.51700	240
2.52067	243
2.52433	241
2.52800	234
2.53167	222
2.53533	211
2.53900	201
2.54267	191
2.54633	180
2.55000	170
2.55367	163
2.55733	157
2.56100	153
2.56467	149
2.56833	148
2.57200	147
2.57567	146
2.57933	146
2.58300	145
2.58667	152
2.59033	178
2.59400	223
2.59767	276
2.60133	333
2.60500	391
2.60867	446
2.61233	499
2.61600	545
2.61967	582
2.62333	607
2.62700	621
2.63067	628
2.63433	630
2.63800	629
2.64167	628
2.64533	626
2.64900	622
2.65267	620
2.65633	618
2.66000	616
2.66367	615
2.66733	614
2.67100	614
2.67467	614
2.67833	617
2.68200	621
2.68567	624
2.68933	625
2.69300	628
2.69667	632
2.70033	637
2.70400	640
2.70767	644
2.71133	651
2.71500	657
2.71867	664
2.72233	668
2.72600	670
2.72967	672
2.73333	675
2.73700	678
2.74067	682
2.74433	685
2.74800	685
2.75167	684
2.75533	684
2.75900	684
2.76267	683
2.76633	678
2.77000	671
2.77367	665
2.77733	663
2.78100	661
2.78467	658
2.78833	652
2.79200	645
2.79567	637
2.79933	631
2.80300	626
2.80667	621
2.81033	616
2.81400	611
2.81767	607
2.82133	605
2.82500	603
2.82867	602
2.83233	603
2.83600	612
2.83967	637
2.84333	691
2.84700	794
2.85067	970
2.85433	1240
2.85800	1613
2.86167	2088
2.86533	2640
2.86900	3234
2.87267	3824
2.87633	4359
2.88000	4794
2.88367	5097
2.88733	5255
2.89100	5271
2.89467	5166
2.89833	4961
2.90200	4686
2.90567	4366
2.90933	4024
2.91300	3681
2.91667	3349
2.92033	3037
2.92400	2746
2.92767	2483
2.93133	2243
2.93500	2029
2.93867	1840
2.94233	1675
2.94600	1533
2.94967	1408
2.95333	1300
2.95700	1205
2.96067	1124
2.96433	1054
2.96800	995
2.97167	942
2.97533	898
2.97900	860
2.98267	825
2.98633	793
2.99000	767
2.99367	747
2.99733	728
3.00100	712
3.00467	700
3.00833	690
3.01200	681
3.01567	673
3.01933	667
3.02300	664
3.02667	661
3.03033	655
3.03400	651
3.03767	647
3.04133	642
3.04500	639
3.04867	635
3.05233	631
3.05600	628
3.05967	628
3.06333	630
3.06700	630
3.07067	631
3.07433	633
3.07800	634
3.08167	633
3.08533	630
3.08900	627
3.09267	627
3.09633	628
3.10000	629
3.10367	626
3.10733	623
3.11100	621
3.11467	619
3.11833	621
3.12200	622
3.12567	623
3.12933	620
3.13300	620
3.13667	621
3.14033	620
3.14400	619
3.14767	620
3.15133	620
3.15500	620
3.15867	620
3.16233	618
3.16600	614
3.16967	613
3.17333	609
3.17700	608
3.18067	607
3.18433	607
3.18800	605
3.19167	604
3.19533	603
3.19900	604
3.20267	604
3.20633	604
3.21000	603
3.21367	601
3.21733	601
3.22100	601
3.22467	600
3.22833	601
3.23200	601
3.23567	602
3.23933	602
3.24300	601
3.24667	601
3.25033	600
3.25400	599
3.25767	599
3.26133	598
3.26500	597
3.26867	596
3.27233	594
3.27600	594
3.27967	593
3.28333	592
3.28700	590
3.29067	588
3.29433	587
3.29800	587
3.30167	586
3.30533	585
3.30900	584
3.31267	583
3.31633	581
3.32000	578
3.32367	575
3.32733	570
3.33100	568
3.33467	567
3.33833	565
3.34200	563
3.34567	561
3.34933	559
3.35300	558
3.35667	556
3.36033	553
3.36400	550
3.36767	548
3.37133	546
3.37500	542
3.37867	539
3.38233	536
3.38600	532
3.38967	529
3.39333	529
3.39700	527
3.40067	524
3.40433	522
3.40800	521
3.41167	519
3.41533	516
3.41900	514
3.42267	513
3.42633	510
3.43000	509
3.43367	509
3.43733	507
3.44100	502
3.44467	499
3.44833	497
3.45200	497
3.45567	497
3.45933	498
3.46300	498
3.46667	496
3.47033	490
3.47400	488
3.47767	486
3.48133	486
3.48500	485
3.48867	482
3.49233	480
3.49600	479
3.49967	476
3.50333	474
3.50700	472
3.51067	469
3.51433	468
3.51800	466
3.52167	465
3.52533	463
3.52900	464
3.53267	465
3.53633	463
3.54000	461
3.54367	459
3.54733	457
3.55100	456
3.55467	454
3.55833	452
3.56200	450
3.56567	450
3.56933	449
3.57300	448
3.57667	445
3.58033	445
3.58400	443
3.58767	440
3.59133	437
3.59500	435
3.59867	434
3.60233	433
3.60600	431
3.60967	431
3.61333	433
3.61700	435
3.62067	436
3.62433	434
3.62800	429
3.63167	426
3.63533	424
3.63900	423
3.64267	424
3.64633	424
3.65000	424
3.65367	424
3.65733	423
3.66100	422
3.66467	421
3.66833	419
3.67200	417
3.67567	414
3.67933	413
3.68300	411
3.68667	410
3.69033	411
3.69400	411
3.69767	410
3.70133	408
3.70500	406
3.70867	409
3.71233	411
3.71600	412
3.71967	412
3.72333	412
3.72700	411
3.73067	407
3.73433	403
3.73800	402
3.74167	400
3.74533	399
3.74900	398
3.75267	397
3.75633	396
3.76000	394
3.76367	397
3.76733	398
3.77100	398
3.77467	398
3.77833	398
3.78200	397
3.78567	394
3.78933	393
3.79300	391
3.79667	390
3.80033	388
3.80400	382
3.80767	379
3.81133	380
3.81500	381
3.81867	383
3.82233	383
3.82600	383
3.82967	382
3.83333	382
3.83700	381
3.84067	379
3.84433	379
3.84800	378
3.85167	378
3.85533	378
3.85900	376
3.86267	375
3.86633	373
3.87000	371
3.87367	370
3.87733	371
3.88100	373
3.88467	371
3.88833	370
3.89200	370
3.89567	371
3.89933	371
3.90300	370
3.90667	369
3.91033	366
3.91400	366
3.91767	365
3.92133	365
3.92500	362
3.92867	360
3.93233	359
3.93600	358
3.93967	357
3.94333	357
3.94700	357
3.95067	356
3.95433	356
3.95800	356
3.96167	356
3.96533	357
3.96900	356
3.97267	354
3.97633	353
3.98000	352
3.98367	349
3.98733	346
3.99100	345
3.99467	343
3.99833	341

[Status Trace (Column Oven Temperature)]
Interval(msec)	1000
# of Points	240
Start Time(min)	0.003
End Time(min)	3.986
Intensity Units	
Intensity Multiplier	1
R.Time (min)	Intensity
0.00282	35.06
0.01948	35.05
0.03615	35.04
0.05282	35.04
0.06948	35.04
0.08615	35.06
0.10282	35.05
0.11948	35.06
0.13615	35.07
0.15282	35.08
0.16948	35.09
0.18615	35.09
0.20282	35.09
0.21948	35.07
0.23615	35.06
0.25282	35.04
0.26948	35.03
0.28615	35.02
0.30282	35.03
0.31948	35.03
0.33615	35.04
0.35282	35.05
0.36948	35.06
0.38615	35.06
0.40282	35.06
0.41948	35.05
0.43615	35.02
0.45282	35.01
0.46948	34.99
0.48615	34.98
0.50282	34.97
0.51948	34.97
0.53615	34.98
0.55282	34.99
0.56948	34.99
0.58615	34.99
0.60282	34.99
0.61948	35.01
0.63615	35.01
0.65282	35.01
0.66948	35.02
0.68615	35.02
0.70282	35.02
0.71948	35.02
0.73615	35.01
0.75282	35.00
0.76948	35.00
0.78615	35.00
0.80282	34.99
0.81948	34.99
0.83615	34.98
0.85282	34.98
0.86948	34.99
0.88615	34.99
0.90282	35.00
0.91948	35.00
0.93615	34.98
0.95282	34.99
0.96948	34.99
0.98615	34.98
1.00282	34.98
1.01948	35.00
1.03615	34.99
1.05282	34.99
1.06948	35.00
1.08615	35.01
1.10282	35.02
1.11948	35.01
1.13615	35.01
1.15282	35.00
1.16948	34.99
1.18615	34.99
1.20282	35.00
1.21948	35.01
1.23615	35.00
1.25282	34.99
1.26948	34.99
1.28615	34.99
1.30282	34.98
1.31948	34.99
1.33615	35.00
1.35282	35.01
1.36948	35.01
1.38615	35.01
1.40282	35.00
1.41948	34.99
1.43615	34.99
1.45282	34.98
1.46948	34.99
1.48615	35.00
1.50282	35.01
1.51948	35.03
1.53615	35.03
1.55282	35.02
1.56948	35.01
1.58615	35.01
1.60282	35.03
1.61948	35.13
1.63615	35.29
1.65282	35.51
1.66948	35.83
1.68615	36.19
1.70282	36.53
1.71948	36.87
1.73615	37.21
1.75282	37.54
1.76948	37.88
1.78615	38.21
1.80282	38.55
1.81948	38.88
1.83615	39.21
1.85282	39.54
1.86948	39.83
1.88615	40.16
1.90282	40.49
1.91948	40.82
1.93615	41.15
1.95282	41.47
1.96948	41.80
1.98615	42.13
2.00282	42.43
2.01948	42.75
2.03615	43.09
2.05282	43.39
2.06948	43.73
2.08615	44.04
2.10282	44.37
2.11948	44.72
2.13615	45.06
2.15282	45.40
2.16948	45.72
2.18615	46.04
2.20282	46.38
2.21948	46.69
2.23615	47.07
2.25282	47.38
2.26948	47.69
2.28615	48.05
2.30282	48.38
2.31948	48.70
2.33615	49.03
2.35282	49.36
2.36948	49.58
2.38615	49.67
2.40282	49.69
2.41948	49.68
2.43615	49.70
2.45282	49.70
2.46948	49.71
2.48615	49.70
2.50282	49.73
2.51948	49.75
2.53615	49.75
2.55282	49.76
2.56948	49.79
2.58615	49.79
2.60282	49.81
2.61948	49.81
2.63615	49.82
2.65282	49.81
2.66948	49.82
2.68615	49.83
2.70282	49.83
2.71948	49.84
2.73615	49.86
2.75282	49.88
2.76948	49.88
2.78615	49.87
2.80282	49.85
2.81948	49.85
2.83615	49.88
2.85282	49.89
2.86948	49.89
2.88615	49.90
2.90282	49.91
2.91948	49.92
2.93615	49.93
2.95282	49.94
2.96948	49.94
2.98615	49.95
3.00282	49.95
3.01948	49.95
3.03615	49.96
3.05282	49.96
3.06948	49.96
3.08615	49.97
3.10282	49.98
3.11948	49.98
3.13615	49.98
3.15282	49.99
3.16948	50.00
3.18615	50.00
3.20282	50.02
3.21948	50.02
3.23615	50.03
3.25282	50.04
3.26948	50.06
3.28615	50.07
3.30282	50.08
3.31948	50.07
3.33615	50.07
3.35282	50.07
3.36948	50.08
3.38615	50.09
3.40282	50.10
3.41948	50.10
3.43615	50.09
3.45282	50.10
3.46948	50.10
3.48615	50.09
3.50282	50.09
3.51948	50.08
3.53615	50.08
3.55282	50.07
3.56948	50.07
3.58615	50.07
3.60282	50.06
3.61948	50.06
3.63615	50.07
3.65282	50.06
3.66948	50.06
3.68615	50.05
3.70282	50.05
3.71948	50.05
3.73615	50.05
3.75282	50.05
3.76948	50.06
3.78615	50.06
3.80282	50.06
3.81948	50.06
3.83615	50.06
3.85282	50.06
3.86948	50.07
3.88615	50.07
3.90282	50.08
3.91948	50.08
3.93615	50.08
3.95282	50.09
3.96948	50.10
3.98615	50.10

[Status Trace (Injection Unit Temperature)]
Interval(msec)	1000
# of Points	240
Start Time(min)	0.003
End Time(min)	3.986
Intensity Units	
Intensity Multiplier	1
R.Time (min)	Intensity
0.00282	99.98
0.01948	99.98
0.03615	99.98
0.05282	99.98
0.06948	99.98
0.08615	99.98
0.10282	99.98
0.11948	99.98
0.13615	99.98
0.15282	99.98
0.16948	99.98
0.18615	99.98
0.20282	99.98
0.21948	99.98
0.23615	99.98
0.25282	99.98
0.26948	99.98
0.28615	99.98
0.30282	99.98
0.31948	99.99
0.33615	99.99
0.35282	99.99
0.36948	99.98
0.38615	99.98
0.40282	99.98
0.41948	99.98
0.43615	99.98
0.45282	99.98
0.46948	99.99
0.48615	99.98
0.50282	99.98
0.51948	99.98
0.53615	99.98
0.55282	99.99
0.56948	99.99
0.58615	99.98
0.60282	99.98
0.61948	99.98
0.63615	99.99
0.65282	99.99
0.66948	99.99
0.68615	99.98
0.70282	99.98
0.71948	99.98
0.73615	99.99
0.75282	99.98
0.76948	99.99
0.78615	99.98
0.80282	99.98
0.81948	99.98
0.83615	99.98
0.85282	99.98
0.86948	99.98
0.88615	99.98
0.90282	99.99
0.91948	99.98
0.93615	99.98
0.95282	99.98
0.96948	99.98
0.98615	99.99
1.00282	99.98
1.01948	99.98
1.03615	99.98
1.05282	99.98
1.06948	99.98
1.08615	99.98
1.10282	99.99
1.11948	99.98
1.13615	99.98
1.15282	99.98
1.16948	99.98
1.18615	99.98
1.20282	99.99
1.21948	99.98
1.23615	99.99
1.25282	99.98
1.26948	99.99
1.28615	99.99
1.30282	99.99
1.31948	99.98
1.33615	99.99
1.35282	99.99
1.36948	99.98
1.38615	99.99
1.40282	99.99
1.41948	99.99
1.43615	99.99
1.45282	99.99
1.46948	99.99
1.48615	99.99
1.50282	99.99
1.51948	99.99
1.53615	99.99
1.55282	99.99
1.56948	99.99
1.58615	99.99
1.60282	99.99
1.61948	99.99
1.63615	99.99
1.65282	99.99
1.66948	99.99
1.68615	99.99
1.70282	99.99
1.71948	99.99
1.73615	99.99
1.75282	99.99
1.76948	99.99
1.78615	99.99
1.80282	99.99
1.81948	99.99
1.83615	99.99
1.85282	99.99
1.86948	99.98
1.88615	99.99
1.90282	99.98
1.91948	99.98
1.93615	99.98
1.95282	99.98
1.96948	99.98
1.98615	99.98
2.00282	99.98
2.01948	99.97
2.03615	99.97
2.05282	99.97
2.06948	99.97
2.08615	99.97
2.10282	99.97
2.11948	99.97
2.13615	99.97
2.15282	99.97
2.16948	99.96
2.18615	99.96
2.20282	99.96
2.21948	99.96
2.23615	99.96
2.25282	99.96
2.26948	99.96
2.28615	99.96
2.30282	99.96
2.31948	99.96
2.33615	99.96
2.35282	99.96
2.36948	99.95
2.38615	99.96
2.40282	99.96
2.41948	99.96
2.43615	99.96
2.45282	99.96
2.46948	99.96
2.48615	99.96
2.50282	99.96
2.51948	99.96
2.53615	99.96
2.55282	99.96
2.56948	99.96
2.58615	99.97
2.60282	99.97
2.61948	99.97
2.63615	99.97
2.65282	99.97
2.66948	99.97
2.68615	99.97
2.70282	99.98
2.71948	99.98
2.73615	99.98
2.75282	99.98
2.76948	99.98
2.78615	99.99
2.80282	99.99
2.81948	99.99
2.83615	99.99
2.85282	100.00
2.86948	100.00
2.88615	100.00
2.90282	100.00
2.91948	100.00
2.93615	100.00
2.95282	100.00
2.96948	100.01
2.98615	100.01
3.00282	100.01
3.01948	100.01
3.03615	100.01
3.05282	100.01
3.06948	100.02
3.08615	100.02
3.10282	100.02
3.11948	100.02
3.13615	100.03
3.15282	100.02
3.16948	100.03
3.18615	100.03
3.20282	100.03
3.21948	100.03
3.23615	100.03
3.25282	100.03
3.26948	100.03
3.28615	100.03
3.30282	100.03
3.31948	100.04
3.33615	100.03
3.35282	100.04
3.36948	100.04
3.38615	100.04
3.40282	100.04
3.41948	100.04
3.43615	100.04
3.45282	100.04
3.46948	100.04
3.48615	100.04
3.50282	100.04
3.51948	100.04
3.53615	100.05
3.55282	100.05
3.56948	100.05
3.58615	100.05
3.60282	100.05
3.61948	100.04
3.63615	100.04
3.65282	100.05
3.66948	100.05
3.68615	100.05
3.70282	100.05
3.71948	100.05
3.73615	100.05
3.75282	100.05
3.76948	100.05
3.78615	100.05
3.80282	100.05
3.81948	100.05
3.83615	100.05
3.85282	100.05
3.86948	100.05
3.88615	100.05
3.90282	100.05
3.91948	100.05
3.93615	100.05
3.95282	100.05
3.96948	100.05
3.98615	100.05

[Status Trace (Carrier Gas Pressure)]
Interval(msec)	1000
# of Points	240
Start Time(min)	0.003
End Time(min)	3.986
Intensity Units	
Intensity Multiplier	1
R.Time (min)	Intensity
0.00282	58.00
0.01948	56.13
0.03615	56.36
0.05282	58.70
0.06948	59.76
0.08615	58.23
0.10282	57.97
0.11948	58.01
0.13615	58.01
0.15282	58.01
0.16948	58.00
0.18615	58.00
0.20282	58.00
0.21948	58.00
0.23615	58.00
0.25282	58.00
0.26948	58.00
0.28615	58.00
0.30282	58.00
0.31948	58.00
0.33615	58.00
0.35282	58.00
0.36948	58.00
0.38615	58.00
0.40282	58.00
0.41948	58.00
0.43615	58.00
0.45282	58.00
0.46948	58.00
0.48615	58.00
0.50282	58.00
0.51948	58.00
0.53615	58.00
0.55282	58.00
0.56948	58.00
0.58615	58.00
0.60282	58.00
0.61948	58.00
0.63615	58.00
0.65282	58.00
0.66948	58.00
0.68615	58.00
0.70282	58.00
0.71948	58.00
0.73615	58.00
0.75282	58.00
0.76948	58.00
0.78615	58.00
0.80282	58.00
0.81948	58.00
0.83615	58.00
0.85282	58.00
0.86948	58.00
0.88615	58.00
0.90282	58.00
0.91948	58.00
0.93615	58.00
0.95282	58.00
0.96948	58.00
0.98615	58.00
1.00282	58.00
1.01948	58.00
1.03615	58.00
1.05282	58.00
1.06948	58.00
1.08615	58.00
1.10282	58.00
1.11948	58.00
1.13615	58.00
1.15282	58.00
1.16948	58.00
1.18615	58.00
1.20282	58.00
1.21948	58.00
1.23615	58.00
1.25282	58.00
1.26948	58.00
1.28615	58.00
1.30282	58.00
1.31948	58.00
1.33615	58.00
1.35282	58.00
1.36948	58.00
1.38615	58.00
1.40282	58.00
1.41948	58.00
1.43615	58.00
1.45282	58.00
1.46948	58.00
1.48615	58.00
1.50282	58.00
1.51948	58.00
1.53615	58.00
1.55282	58.00
1.56948	58.00
1.58615	58.00
1.60282	58.00
1.61948	58.00
1.63615	58.00
1.65282	58.00
1.66948	58.01
1.68615	58.01
1.70282	58.00
1.71948	58.00
1.73615	58.00
1.75282	58.00
1.76948	58.00
1.78615	58.00
1.80282	58.00
1.81948	58.00
1.83615	58.00
1.85282	58.00
1.86948	58.00
1.88615	58.00
1.90282	58.00
1.91948	58.00
1.93615	58.00
1.95282	58.00
1.96948	58.00
1.98615	58.00
2.00282	58.00
2.01948	58.00
2.03615	58.00
2.05282	58.00
2.06948	58.00
2.08615	58.00
2.10282	58.00
2.11948	58.00
2.13615	58.00
2.15282	58.00
2.16948	58.00
2.18615	58.00
2.20282	58.00
2.21948	58.00
2.23615	58.00
2.25282	58.00
2.26948	58.00
2.28615	58.00
2.30282	58.00
2.31948	58.00
2.33615	58.00
2.35282	58.00
2.36948	58.00
2.38615	57.99
2.40282	57.99
2.41948	58.00
2.43615	58.00
2.45282	58.00
2.46948	58.00
2.48615	58.00
2.50282	57.96
2.51948	58.01
2.53615	57.99
2.55282	58.00
2.56948	58.00
2.58615	58.00
2.60282	58.00
2.61948	58.00
2.63615	58.00
2.65282	58.00
2.66948	58.00
2.68615	58.00
2.70282	58.00
2.71948	58.00
2.73615	58.00
2.75282	58.00
2.76948	58.00
2.78615	58.00
2.80282	58.00
2.81948	58.00
2.83615	58.00
2.85282	58.00
2.86948	58.00
2.88615	58.00
2.90282	58.00
2.91948	58.00
2.93615	58.00
2.95282	58.00
2.96948	58.00
2.98615	58.00
3.00282	58.00
3.01948	58.00
3.03615	58.00
3.05282	58.00
3.06948	58.00
3.08615	58.00
3.10282	58.00
3.11948	58.00
3.13615	58.00
3.15282	58.00
3.16948	58.00
3.18615	58.00
3.20282	58.00
3.21948	58.00
3.23615	58.00
3.25282	58.00
3.26948	58.00
3.28615	58.00
3.30282	58.00
3.31948	58.00
3.33615	58.00
3.35282	58.00
3.36948	58.00
3.38615	58.00
3.40282	58.00
3.41948	58.00
3.43615	58.00
3.45282	58.00
3.46948	58.00
3.48615	58.00
3.50282	58.00
3.51948	58.00
3.53615	58.00
3.55282	58.00
3.56948	58.00
3.58615	58.00
3.60282	58.00
3.61948	58.00
3.63615	58.00
3.65282	58.00
3.66948	58.00
3.68615	58.00
3.70282	58.00
3.71948	58.00
3.73615	58.00
3.75282	58.00
3.76948	58.00
3.78615	58.00
3.80282	58.00
3.81948	58.00
3.83615	58.00
3.85282	58.00
3.86948	58.00
3.88615	58.00
3.90282	58.00
3.91948	58.00
3.93615	58.00
3.95282	58.00
3.96948	58.00
3.98615	58.00

[Status Trace (Carrier Gas Flow)]
Interval(msec)	1000
# of Points	240
Start Time(min)	0.003
End Time(min)	3.986
Intensity Units	
Intensity Multiplier	1
R.Time (min)	Intensity
0.00282	34.51
0.01948	34.60
0.03615	34.55
0.05282	34.55
0.06948	34.49
0.08615	34.52
0.10282	34.52
0.11948	34.52
0.13615	34.52
0.15282	34.52
0.16948	34.51
0.18615	34.52
0.20282	34.52
0.21948	34.52
0.23615	34.52
0.25282	34.52
0.26948	34.52
0.28615	34.52
0.30282	34.52
0.31948	34.52
0.33615	34.52
0.35282	34.52
0.36948	34.52
0.38615	34.52
0.40282	34.52
0.41948	34.52
0.43615	34.52
0.45282	34.52
0.46948	34.52
0.48615	34.52
0.50282	34.52
0.51948	34.52
0.53615	34.52
0.55282	34.51
0.56948	34.53
0.58615	34.52
0.60282	34.51
0.61948	34.51
0.63615	34.52
0.65282	34.52
0.66948	34.52
0.68615	34.52
0.70282	34.52
0.71948	34.52
0.73615	34.52
0.75282	34.52
0.76948	34.52
0.78615	34.52
0.80282	34.52
0.81948	34.52
0.83615	34.52
0.85282	34.52
0.86948	34.52
0.88615	34.52
0.90282	34.52
0.91948	34.51
0.93615	34.52
0.95282	34.51
0.96948	34.52
0.98615	34.51
1.00282	34.51
1.01948	34.52
1.03615	34.52
1.05282	34.52
1.06948	34.51
1.08615	34.52
1.10282	34.52
1.11948	34.52
1.13615	34.52
1.15282	34.52
1.16948	34.52
1.18615	34.52
1.20282	34.52
1.21948	34.52
1.23615	34.52
1.25282	34.52
1.26948	34.52
1.28615	34.52
1.30282	34.52
1.31948	34.52
1.33615	34.52
1.35282	34.52
1.36948	34.52
1.38615	34.52
1.40282	34.52
1.41948	34.52
1.43615	34.52
1.45282	34.52
1.46948	34.52
1.48615	34.51
1.50282	34.51
1.51948	34.52
1.53615	34.52
1.55282	34.52
1.56948	34.52
1.58615	34.52
1.60282	34.52
1.61948	34.52
1.63615	34.51
1.65282	34.52
1.66948	34.52
1.68615	34.52
1.70282	34.52
1.71948	34.53
1.73615	34.52
1.75282	34.51
1.76948	34.51
1.78615	34.52
1.80282	34.52
1.81948	34.51
1.83615	34.52
1.85282	34.52
1.86948	34.52
1.88615	34.52
1.90282	34.52
1.91948	34.52
1.93615	34.52
1.95282	34.51
1.96948	34.51
1.98615	34.52
2.00282	34.52
2.01948	34.51
2.03615	34.52
2.05282	34.53
2.06948	34.51
2.08615	34.51
2.10282	34.52
2.11948	34.51
2.13615	34.51
2.15282	34.53
2.16948	34.52
2.18615	34.52
2.20282	34.51
2.21948	34.52
2.23615	34.52
2.25282	34.51
2.26948	34.52
2.28615	34.52
2.30282	34.52
2.31948	34.52
2.33615	34.53
2.35282	34.52
2.36948	34.52
2.38615	34.52
2.40282	34.52
2.41948	34.52
2.43615	34.51
2.45282	34.52
2.46948	34.52
2.48615	34.52
2.50282	34.67
2.51948	34.52
2.53615	34.52
2.55282	34.52
2.56948	34.52
2.58615	34.52
2.60282	34.53
2.61948	34.52
2.63615	34.52
2.65282	34.52
2.66948	34.52
2.68615	34.52
2.70282	34.51
2.71948	34.52
2.73615	34.52
2.75282	34.51
2.76948	34.52
2.78615	34.52
2.80282	34.52
2.81948	34.51
2.83615	34.52
2.85282	34.52
2.86948	34.52
2.88615	34.52
2.90282	34.52
2.91948	34.52
2.93615	34.52
2.95282	34.52
2.96948	34.52
2.98615	34.51
3.00282	34.52
3.01948	34.52
3.03615	34.52
3.05282	34.52
3.06948	34.51
3.08615	34.52
3.10282	34.52
3.11948	34.52
3.13615	34.52
3.15282	34.52
3.16948	34.52
3.18615	34.52
3.20282	34.52
3.21948	34.52
3.23615	34.51
3.25282	34.52
3.26948	34.52
3.28615	34.51
3.30282	34.52
3.31948	34.52
3.33615	34.52
3.35282	34.52
3.36948	34.52
3.38615	34.52
3.40282	34.52
3.41948	34.52
3.43615	34.52
3.45282	34.52
3.46948	34.52
3.48615	34.52
3.50282	34.52
3.51948	34.52
3.53615	34.52
3.55282	34.52
3.56948	34.52
3.58615	34.52
3.60282	34.51
3.61948	34.52
3.63615	34.52
3.65282	34.52
3.66948	34.52
3.68615	34.52
3.70282	34.52
3.71948	34.52
3.73615	34.52
3.75282	34.52
3.76948	34.52
3.78615	34.52
3.80282	34.52
3.81948	34.52
3.83615	34.52
3.85282	34.51
3.86948	34.52
3.88615	34.52
3.90282	34.52
3.91948	34.52
3.93615	34.52
3.95282	34.52
3.96948	34.51
3.98615	34.52

[Status Trace (Column Flow)]
Interval(msec)	1000
# of Points	240
Start Time(min)	0.003
End Time(min)	3.986
Intensity Units	
Intensity Multiplier	1
R.Time (min)	Intensity
0.00282	5.53
0.01948	5.32
0.03615	5.34
0.05282	5.62
0.06948	5.74
0.08615	5.56
0.10282	5.53
0.11948	5.53
0.13615	5.53
0.15282	5.53
0.16948	5.53
0.18615	5.53
0.20282	5.53
0.21948	5.53
0.23615	5.53
0.25282	5.53
0.26948	5.54
0.28615	5.54
0.30282	5.54
0.31948	5.54
0.33615	5.53
0.35282	5.53
0.36948	5.53
0.38615	5.53
0.40282	5.53
0.41948	5.53
0.43615	5.54
0.45282	5.54
0.46948	5.54
0.48615	5.54
0.50282	5.54
0.51948	5.54
0.53615	5.54
0.55282	5.54
0.56948	5.54
0.58615	5.54
0.60282	5.54
0.61948	5.54
0.63615	5.54
0.65282	5.54
0.66948	5.54
0.68615	5.54
0.70282	5.54
0.71948	5.54
0.73615	5.54
0.75282	5.54
0.76948	5.54
0.78615	5.54
0.80282	5.54
0.81948	5.54
0.83615	5.54
0.85282	5.54
0.86948	5.54
0.88615	5.54
0.90282	5.54
0.91948	5.54
0.93615	5.54
0.95282	5.54
0.96948	5.54
0.98615	5.54
1.00282	5.54
1.01948	5.54
1.03615	5.54
1.05282	5.54
1.06948	5.54
1.08615	5.54
1.10282	5.54
1.11948	5.54
1.13615	5.54
1.15282	5.54
1.16948	5.54
1.18615	5.54
1.20282	5.54
1.21948	5.54
1.23615	5.54
1.25282	5.54
1.26948	5.54
1.28615	5.54
1.30282	5.54
1.31948	5.54
1.33615	5.54
1.35282	5.54
1.36948	5.54
1.38615	5.54
1.40282	5.54
1.41948	5.54
1.43615	5.54
1.45282	5.54
1.46948	5.54
1.48615	5.54
1.50282	5.54
1.51948	5.54
1.53615	5.54
1.55282	5.54
1.56948	5.54
1.58615	5.54
1.60282	5.54
1.61948	5.53
1.63615	5.53
1.65282	5.52
1.66948	5.51
1.68615	5.50
1.70282	5.49
1.71948	5.48
1.73615	5.47
1.75282	5.46
1.76948	5.45
1.78615	5.44
1.80282	5.43
1.81948	5.42
1.83615	5.41
1.85282	5.40
1.86948	5.39
1.88615	5.38
1.90282	5.37
1.91948	5.36
1.93615	5.35
1.95282	5.34
1.96948	5.33
1.98615	5.32
2.00282	5.31
2.01948	5.30
2.03615	5.29
2.05282	5.28
2.06948	5.27
2.08615	5.26
2.10282	5.25
2.11948	5.24
2.13615	5.23
2.15282	5.22
2.16948	5.21
2.18615	5.20
2.20282	5.19
2.21948	5.18
2.23615	5.17
2.25282	5.16
2.26948	5.16
2.28615	5.15
2.30282	5.14
2.31948	5.13
2.33615	5.12
2.35282	5.11
2.36948	5.10
2.38615	5.10
2.40282	5.10
2.41948	5.10
2.43615	5.10
2.45282	5.10
2.46948	5.10
2.48615	5.10
2.50282	5.10
2.51948	5.10
2.53615	5.10
2.55282	5.10
2.56948	5.10
2.58615	5.10
2.60282	5.10
2.61948	5.10
2.63615	5.10
2.65282	5.10
2.66948	5.10
2.68615	5.10
2.70282	5.10
2.71948	5.10
2.73615	5.10
2.75282	5.10
2.76948	5.10
2.78615	5.10
2.80282	5.10
2.81948	5.10
2.83615	5.10
2.85282	5.09
2.86948	5.09
2.88615	5.09
2.90282	5.09
2.91948	5.09
2.93615	5.09
2.95282	5.09
2.96948	5.09
2.98615	5.09
3.00282	5.09
3.01948	5.09
3.03615	5.09
3.05282	5.09
3.06948	5.09
3.08615	5.09
3.10282	5.09
3.11948	5.09
3.13615	5.09
3.15282	5.09
3.16948	5.09
3.18615	5.09
3.20282	5.09
3.21948	5.09
3.23615	5.09
3.25282	5.09
3.26948	5.09
3.28615	5.09
3.30282	5.09
3.31948	5.09
3.33615	5.09
3.35282	5.09
3.36948	5.09
3.38615	5.09
3.40282	5.09
3.41948	5.09
3.43615	5.09
3.45282	5.09
3.46948	5.09
3.48615	5.09
3.50282	5.09
3.51948	5.09
3.53615	5.09
3.55282	5.09
3.56948	5.09
3.58615	5.09
3.60282	5.09
3.61948	5.09
3.63615	5.09
3.65282	5.09
3.66948	5.09
3.68615	5.09
3.70282	5.09
3.71948	5.09
3.73615	5.09
3.75282	5.09
3.76948	5.09
3.78615	5.09
3.80282	5.09
3.81948	5.09
3.83615	5.09
3.85282	5.09
3.86948	5.09
3.88615	5.09
3.90282	5.09
3.91948	5.09
3.93615	5.09
3.95282	5.09
3.96948	5.09
3.98615	5.09

[Status Trace (Linear Velocity)]
Interval(msec)	1000
# of Points	240
Start Time(min)	0.003
End Time(min)	3.986
Intensity Units	
Intensity Multiplier	1
R.Time (min)	Intensity
0.00282	39.01
0.01948	37.79
0.03615	37.94
0.05282	39.47
0.06948	40.17
0.08615	39.17
0.10282	39.00
0.11948	39.02
0.13615	39.02
0.15282	39.02
0.16948	39.01
0.18615	39.01
0.20282	39.01
0.21948	39.01
0.23615	39.01
0.25282	39.02
0.26948	39.02
0.28615	39.02
0.30282	39.02
0.31948	39.02
0.33615	39.02
0.35282	39.01
0.36948	39.01
0.38615	39.01
0.40282	39.01
0.41948	39.02
0.43615	39.02
0.45282	39.02
0.46948	39.02
0.48615	39.02
0.50282	39.02
0.51948	39.02
0.53615	39.02
0.55282	39.02
0.56948	39.02
0.58615	39.02
0.60282	39.02
0.61948	39.02
0.63615	39.02
0.65282	39.02
0.66948	39.02
0.68615	39.02
0.70282	39.02
0.71948	39.02
0.73615	39.02
0.75282	39.02
0.76948	39.02
0.78615	39.02
0.80282	39.02
0.81948	39.02
0.83615	39.02
0.85282	39.02
0.86948	39.02
0.88615	39.02
0.90282	39.02
0.91948	39.02
0.93615	39.02
0.95282	39.02
0.96948	39.02
0.98615	39.02
1.00282	39.02
1.01948	39.02
1.03615	39.02
1.05282	39.02
1.06948	39.02
1.08615	39.02
1.10282	39.02
1.11948	39.02
1.13615	39.02
1.15282	39.02
1.16948	39.02
1.18615	39.02
1.20282	39.02
1.21948	39.02
1.23615	39.02
1.25282	39.02
1.26948	39.02
1.28615	39.02
1.30282	39.02
1.31948	39.02
1.33615	39.02
1.35282	39.02
1.36948	39.02
1.38615	39.02
1.40282	39.02
1.41948	39.02
1.43615	39.02
1.45282	39.02
1.46948	39.02
1.48615	39.02
1.50282	39.02
1.51948	39.02
1.53615	39.02
1.55282	39.02
1.56948	39.02
1.58615	39.02
1.60282	39.02
1.61948	39.01
1.63615	39.00
1.65282	38.97
1.66948	38.94
1.68615	38.91
1.70282	38.87
1.71948	38.84
1.73615	38.81
1.75282	38.78
1.76948	38.75
1.78615	38.71
1.80282	38.68
1.81948	38.65
1.83615	38.62
1.85282	38.59
1.86948	38.56
1.88615	38.53
1.90282	38.50
1.91948	38.47
1.93615	38.44
1.95282	38.41
1.96948	38.38
1.98615	38.35
2.00282	38.32
2.01948	38.29
2.03615	38.26
2.05282	38.23
2.06948	38.20
2.08615	38.17
2.10282	38.14
2.11948	38.11
2.13615	38.08
2.15282	38.05
2.16948	38.02
2.18615	37.99
2.20282	37.96
2.21948	37.93
2.23615	37.90
2.25282	37.87
2.26948	37.84
2.28615	37.81
2.30282	37.78
2.31948	37.75
2.33615	37.72
2.35282	37.69
2.36948	37.67
2.38615	37.66
2.40282	37.66
2.41948	37.66
2.43615	37.66
2.45282	37.66
2.46948	37.66
2.48615	37.66
2.50282	37.64
2.51948	37.66
2.53615	37.65
2.55282	37.66
2.56948	37.65
2.58615	37.65
2.60282	37.65
2.61948	37.65
2.63615	37.65
2.65282	37.65
2.66948	37.65
2.68615	37.65
2.70282	37.65
2.71948	37.65
2.73615	37.65
2.75282	37.65
2.76948	37.65
2.78615	37.65
2.80282	37.65
2.81948	37.65
2.83615	37.65
2.85282	37.65
2.86948	37.65
2.88615	37.64
2.90282	37.64
2.91948	37.64
2.93615	37.64
2.95282	37.64
2.96948	37.64
2.98615	37.64
3.00282	37.64
3.01948	37.64
3.03615	37.64
3.05282	37.64
3.06948	37.64
3.08615	37.64
3.10282	37.64
3.11948	37.64
3.13615	37.64
3.15282	37.64
3.16948	37.64
3.18615	37.64
3.20282	37.63
3.21948	37.63
3.23615	37.63
3.25282	37.63
3.26948	37.63
3.28615	37.63
3.30282	37.63
3.31948	37.63
3.33615	37.63
3.35282	37.63
3.36948	37.63
3.38615	37.63
3.40282	37.63
3.41948	37.63
3.43615	37.63
3.45282	37.63
3.46948	37.63
3.48615	37.63
3.50282	37.63
3.51948	37.63
3.53615	37.63
3.55282	37.63
3.56948	37.63
3.58615	37.63
3.60282	37.63
3.61948	37.63
3.63615	37.63
3.65282	37.63
3.66948	37.63
3.68615	37.63
3.70282	37.63
3.71948	37.63
3.73615	37.63
3.75282	37.63
3.76948	37.63
3.78615	37.63
3.80282	37.63
3.81948	37.63
3.83615	37.63
3.85282	37.63
3.86948	37.63
3.88615	37.63
3.90282	37.63
3.91948	37.63
3.93615	37.63
3.95282	37.63
3.96948	37.63
3.98615	37.63

