[Header]
Application Name	LabSolutions
Version	5.110
Data File Name	C:\Users\User\Desktop\Junior\UIC Prairie Sampling\5.18.23\05182023_056.gcd
Output Date	6/5/2023
Output Time	2:17:28 PM

[File Information]
Type	Data File
Generated	5/24/2023 6:23:07 PM
Generated by	System Administrator
Modified	5/24/2023 6:30:35 PM
Modified by	System Administrator

[Sample Information]
Operator Name	System Administrator
Acquired	5/24/2023 6:26:33 PM
Sample Type	0:Unknown
Level	0
Sample Name	056
Sample ID	056
ISTD Amount1	1
ISTD Amount2	1
ISTD Amount3	1
ISTD Amount4	1
ISTD Amount5	1
ISTD Amount6	1
ISTD Amount7	1
ISTD Amount8	1
ISTD Amount9	1
ISTD Amount10	1
ISTD Amount11	1
ISTD Amount12	1
ISTD Amount13	1
ISTD Amount14	1
ISTD Amount15	1
ISTD Amount16	1
ISTD Amount17	1
ISTD Amount18	1
ISTD Amount19	1
ISTD Amount20	1
ISTD Amount21	1
ISTD Amount22	1
ISTD Amount23	1
ISTD Amount24	1
ISTD Amount25	1
ISTD Amount26	1
ISTD Amount27	1
ISTD Amount28	1
ISTD Amount29	1
ISTD Amount30	1
ISTD Amount31	1
ISTD Amount32	1
Sample Amount	1
Dilution Factor	1
Vial#	55
Injection Volume	1
Injection Count	1
Bar Code	

[Original Files]
Data File	C:\Users\User\Desktop\Junior\UIC Prairie Sampling\5.18.23\05182023_056.gcd
Method File	C:\LabSolutions\Data\GHG_4min_2022\ghg3_togas_w_acet_4 min_new_int.gcm
Batch File	C:\LabSolutions\Data\AutoSamplerTesting\05182023.gcb
Report Format File	c:\LabSolutions\System\DEFAULT.lsr

[File Description]


[Configuration]
Instrument Name	C0B7VH3-Instrument1
Instrument #	1
Line #	1
# of Detectors	3
Detector ID	DET#1	DET#2	DET#3
Detector Name	FID	PTCD	ECD
# of Channels	1	1	1

[Peak Table(Ch1)]
# of Peaks	4
Peak#	R.Time	I.Time	F.Time	Area	Height	A/H	Conc.	Mark	ID#	Name	k'	Plate #	Plate Ht.	Tailing	Resolution	Sep.Factor	Area Ratio	Height Ratio	Conc. %	Norm Conc.
1	1.472	1.432	1.527	4788	2313	2.070	0.000	   	1	CO	0.000	9535	15.732	1.234	0.000	0.000	0	0	0.000	0.000
2	1.564	1.527	1.626	4414	2227	1.982	21.518	 V 	2	CH4	0.062	11497	13.047	1.156	1.545	0.000	0	0	5.713	5.713
3	1.989	1.941	2.495	1842564	881473	2.090	355.096	   	3	CO2	0.351	17322	8.660	1.300	7.161	5.640	0	0	94.287	94.287
4	3.074	2.777	3.624	2625	96	27.437	0.000	   	5	Acetylene	1.089	5190	28.903	1.432	9.391	3.099	0	0	0.000	0.000

[Peak Table(Ch2)]
# of Peaks	0

[Peak Table(Ch3)]
# of Peaks	5
Peak#	R.Time	I.Time	F.Time	Area	Height	A/H	Conc.	Mark	ID#	Name	k'	Plate #	Plate Ht.	Tailing	Resolution	Sep.Factor	Area Ratio	Height Ratio	Conc. %	Norm Conc.
1	2.458	2.440	2.510	681	283	2.407	0.000	   			0.000	17940	8.361	0.000	0.000	0.000	0	0	0.000	0.000
2	2.524	2.510	2.565	190	93	2.031	0.000	 V 			0.027	11696	12.825	0.000	0.791	0.000	0	0	0.000	0.000
3	2.627	2.576	2.686	2227	470	4.735	0.000	   			0.069	2537	59.122	0.000	0.680	2.556	0	0	0.000	0.000
4	2.752	2.686	2.829	3017	389	7.752	0.045	 V 	1	N2O	0.119	167	897.385	0.000	0.235	1.739	0	0	12.894	12.894
5	2.891	2.829	3.228	20383	4877	4.179	0.302	 V 	1	N2O	0.176	12820	11.701	0.000	0.292	1.475	0	0	87.106	87.106

[Compound Results(Ch1)]
# of IDs	6
ID#	Name	R.Time	Area	Height	Conc.	Curve	3rd	2nd	1st	Constant	Area Ratio	Height Ratio	Conc. %	Norm Conc.
1	CO	1.472	4788	2313	0.000	Linear	0.000000e+00	0.000000e+00	0.000000e+00	0.000000e+00	0	0	0.000	0.000
2	CH4	1.564	4414	2227	21.518	Linear	0.000000e+00	0.000000e+00	2.051179e+002	0.000000e+00	0	0	5.713	5.713
3	CO2	1.989	1842564	881473	355.096	Linear	0.000000e+00	0.000000e+00	5.188919e+003	0.000000e+00	0	0	94.287	94.287
4	Ethylene	0.000	0	0	0.000	Linear	0.000000e+00	0.000000e+00	0.000000e+00	0.000000e+00	0	0	0.000	0.000
5	Acetylene	3.074	2625	96	0.000	Linear	0.000000e+00	0.000000e+00	0.000000e+00	0.000000e+00	0	0	0.000	0.000
6	Ethane	0.000	0	0	0.000	Linear	0.000000e+00	0.000000e+00	0.000000e+00	0.000000e+00	0	0	0.000	0.000

[Compound Results(Ch2)]
# of IDs	5
ID#	Name	R.Time	Area	Height	Conc.	Curve	3rd	2nd	1st	Constant	Area Ratio	Height Ratio	Conc. %	Norm Conc.
1	Hydrogen	0.000	0	0	0.000	Linear	0.000000e+00	0.000000e+00	0.000000e+00	0.000000e+00	0	0	0.000	0.000
2	Oxygen	0.000	0	0	0.000	Linear	0.000000e+00	0.000000e+00	0.000000e+00	0.000000e+00	0	0	0.000	0.000
3	Nitrogen	0.000	0	0	0.000	Linear	0.000000e+00	0.000000e+00	0.000000e+00	0.000000e+00	0	0	0.000	0.000
4	Methane	0.000	0	0	0.000	Linear	0.000000e+00	0.000000e+00	0.000000e+00	0.000000e+00	0	0	0.000	0.000
5	Carbon Monoxide	0.000	0	0	0.000	Linear	0.000000e+00	0.000000e+00	0.000000e+00	0.000000e+00	0	0	0.000	0.000

[Compound Results(Ch3)]
# of IDs	2
ID#	Name	R.Time	Area	Height	Conc.	Curve	3rd	2nd	1st	Constant	Area Ratio	Height Ratio	Conc. %	Norm Conc.
1	N2O	2.891	23400	5266	0.346	Linear	0.000000e+00	0.000000e+00	6.759880e+004	0.000000e+00	0	0	100.000	100.000
2	SF6	0.000	0	0	0.000	Linear	0.000000e+00	0.000000e+00	0.000000e+00	0.000000e+00	0	0	0.000	0.000

[Group Results(Ch1)]
# of Groups	0

[Group Results(Ch2)]
# of Groups	0

[Group Results(Ch3)]
# of Groups	0

[Chromatogram (Ch1)]
Interval(msec)	220
# of Points	1091
Start Time(min)	0.002
End Time(min)	3.998
R.Time (min)	Intensity
0.00167	1
0.00533	-1
0.00900	1
0.01267	5
0.01633	11
0.02000	20
0.02367	26
0.02733	27
0.03100	25
0.03467	23
0.03833	24
0.04200	24
0.04567	23
0.04933	20
0.05300	21
0.05667	22
0.06033	16
0.06400	9
0.06767	2
0.07133	-1
0.07500	2
0.07867	5
0.08233	6
0.08600	8
0.08967	6
0.09333	-1
0.09700	-8
0.10067	-15
0.10433	-17
0.10800	-14
0.11167	-10
0.11533	-5
0.11900	-3
0.12267	-1
0.12633	3
0.13000	6
0.13367	11
0.13733	13
0.14100	10
0.14467	2
0.14833	-5
0.15200	-8
0.15567	-6
0.15933	3
0.16300	13
0.16667	21
0.17033	28
0.17400	30
0.17767	23
0.18133	11
0.18500	2
0.18867	-2
0.19233	-4
0.19600	-1
0.19967	9
0.20333	19
0.20700	24
0.21067	24
0.21433	21
0.21800	18
0.22167	13
0.22533	5
0.22900	-4
0.23267	-9
0.23633	-6
0.24000	2
0.24367	9
0.24733	14
0.25100	17
0.25467	17
0.25833	18
0.26200	22
0.26567	24
0.26933	22
0.27300	20
0.27667	19
0.28033	17
0.28400	14
0.28767	10
0.29133	8
0.29500	3
0.29867	-2
0.30233	-2
0.30600	-1
0.30967	-1
0.31333	-0
0.31700	4
0.32067	10
0.32433	15
0.32800	19
0.33167	22
0.33533	26
0.33900	29
0.34267	30
0.34633	31
0.35000	32
0.35367	34
0.35733	32
0.36100	28
0.36467	22
0.36833	17
0.37200	11
0.37567	10
0.37933	14
0.38300	17
0.38667	16
0.39033	15
0.39400	15
0.39767	14
0.40133	14
0.40500	11
0.40867	5
0.41233	3
0.41600	3
0.41967	3
0.42333	-0
0.42700	-4
0.43067	-5
0.43433	-2
0.43800	3
0.44167	6
0.44533	7
0.44900	6
0.45267	8
0.45633	9
0.46000	9
0.46367	10
0.46733	13
0.47100	18
0.47467	23
0.47833	27
0.48200	26
0.48567	20
0.48933	16
0.49300	14
0.49667	13
0.50033	11
0.50400	2
0.50767	-8
0.51133	-11
0.51500	-9
0.51867	-6
0.52233	-5
0.52600	-4
0.52967	-4
0.53333	-4
0.53700	-4
0.54067	-2
0.54433	3
0.54800	7
0.55167	11
0.55533	15
0.55900	18
0.56267	20
0.56633	21
0.57000	20
0.57367	15
0.57733	8
0.58100	0
0.58467	-7
0.58833	-9
0.59200	-9
0.59567	-4
0.59933	1
0.60300	3
0.60667	5
0.61033	8
0.61400	7
0.61767	4
0.62133	7
0.62500	15
0.62867	20
0.63233	23
0.63600	23
0.63967	19
0.64333	13
0.64700	5
0.65067	5
0.65433	6
0.65800	5
0.66167	1
0.66533	3
0.66900	8
0.67267	10
0.67633	8
0.68000	5
0.68367	4
0.68733	3
0.69100	-1
0.69467	-4
0.69833	-6
0.70200	-11
0.70567	-15
0.70933	-13
0.71300	-7
0.71667	1
0.72033	8
0.72400	10
0.72767	6
0.73133	2
0.73500	-0
0.73867	-2
0.74233	-5
0.74600	-9
0.74967	-9
0.75333	-6
0.75700	-5
0.76067	-5
0.76433	-4
0.76800	-3
0.77167	0
0.77533	7
0.77900	14
0.78267	18
0.78633	16
0.79000	8
0.79367	-3
0.79733	-13
0.80100	-20
0.80467	-24
0.80833	-26
0.81200	-24
0.81567	-19
0.81933	-8
0.82300	5
0.82667	12
0.83033	14
0.83400	18
0.83767	24
0.84133	28
0.84500	27
0.84867	27
0.85233	26
0.85600	21
0.85967	10
0.86333	-2
0.86700	-12
0.87067	-16
0.87433	-17
0.87800	-17
0.88167	-16
0.88533	-14
0.88900	-11
0.89267	-5
0.89633	1
0.90000	4
0.90367	5
0.90733	1
0.91100	-8
0.91467	-20
0.91833	-30
0.92200	-35
0.92567	-38
0.92933	-38
0.93300	-32
0.93667	-24
0.94033	-17
0.94400	-17
0.94767	-25
0.95133	-29
0.95500	-30
0.95867	-33
0.96233	-31
0.96600	-26
0.96967	-21
0.97333	-18
0.97700	-17
0.98067	-15
0.98433	-10
0.98800	-5
0.99167	-1
0.99533	6
0.99900	12
1.00267	12
1.00633	6
1.01000	-3
1.01367	-9
1.01733	-12
1.02100	-12
1.02467	-11
1.02833	-9
1.03200	-8
1.03567	-10
1.03933	-13
1.04300	-18
1.04667	-23
1.05033	-25
1.05400	-25
1.05767	-21
1.06133	-13
1.06500	-3
1.06867	2
1.07233	-2
1.07600	-6
1.07967	-5
1.08333	-5
1.08700	-6
1.09067	-9
1.09433	-12
1.09800	-14
1.10167	-12
1.10533	-12
1.10900	-13
1.11267	-16
1.11633	-24
1.12000	-31
1.12367	-29
1.12733	-24
1.13100	-18
1.13467	-14
1.13833	-14
1.14200	-14
1.14567	-14
1.14933	-12
1.15300	-12
1.15667	-12
1.16033	-15
1.16400	-17
1.16767	-17
1.17133	-18
1.17500	-23
1.17867	-29
1.18233	-31
1.18600	-27
1.18967	-21
1.19333	-20
1.19700	-21
1.20067	-21
1.20433	-19
1.20800	-15
1.21167	-13
1.21533	-13
1.21900	-13
1.22267	-17
1.22633	-24
1.23000	-27
1.23367	-25
1.23733	-20
1.24100	-13
1.24467	-6
1.24833	-4
1.25200	-6
1.25567	-14
1.25933	-25
1.26300	-34
1.26667	-38
1.27033	-38
1.27400	-33
1.27767	-26
1.28133	-22
1.28500	-20
1.28867	-17
1.29233	-16
1.29600	-18
1.29967	-24
1.30333	-31
1.30700	-39
1.31067	-46
1.31433	-46
1.31800	-42
1.32167	-38
1.32533	-33
1.32900	-30
1.33267	-25
1.33633	-22
1.34000	-20
1.34367	-18
1.34733	-19
1.35100	-24
1.35467	-30
1.35833	-31
1.36200	-30
1.36567	-29
1.36933	-22
1.37300	-12
1.37667	-3
1.38033	3
1.38400	3
1.38767	1
1.39133	-2
1.39500	-10
1.39867	-24
1.40233	-36
1.40600	-43
1.40967	-46
1.41333	-45
1.41700	-44
1.42067	-46
1.42433	-49
1.42800	-53
1.43167	-48
1.43533	-25
1.43900	15
1.44267	55
1.44633	139
1.45000	370
1.45367	757
1.45733	1203
1.46100	1617
1.46467	1949
1.46833	2175
1.47200	2268
1.47567	2202
1.47933	1981
1.48300	1652
1.48667	1290
1.49033	956
1.49400	683
1.49767	475
1.50133	323
1.50500	218
1.50867	147
1.51233	94
1.51600	53
1.51967	22
1.52333	-0
1.52700	-13
1.53067	-14
1.53433	24
1.53800	156
1.54167	432
1.54533	832
1.54900	1274
1.55267	1669
1.55633	1968
1.56000	2149
1.56367	2186
1.56733	2061
1.57100	1787
1.57467	1430
1.57833	1067
1.58200	752
1.58567	503
1.58933	323
1.59300	203
1.59667	125
1.60033	74
1.60400	42
1.60767	21
1.61133	6
1.61500	-7
1.61867	-20
1.62233	-31
1.62600	-37
1.62967	-42
1.63333	-43
1.63700	-39
1.64067	-37
1.64433	-37
1.64800	-39
1.65167	-41
1.65533	-44
1.65900	-47
1.66267	-50
1.66633	-52
1.67000	-56
1.67367	-59
1.67733	-58
1.68100	-54
1.68467	-49
1.68833	-43
1.69200	-41
1.69567	-38
1.69933	-34
1.70300	-33
1.70667	-38
1.71033	-45
1.71400	-52
1.71767	-55
1.72133	-52
1.72500	-45
1.72867	-36
1.73233	-27
1.73600	-24
1.73967	-23
1.74333	-25
1.74700	-29
1.75067	-37
1.75433	-45
1.75800	-55
1.76167	-68
1.76533	-81
1.76900	-91
1.77267	-96
1.77633	-97
1.78000	-96
1.78367	-93
1.78733	-85
1.79100	-74
1.79467	-69
1.79833	-64
1.80200	-58
1.80567	-52
1.80933	-44
1.81300	-33
1.81667	-25
1.82033	-24
1.82400	-26
1.82767	-28
1.83133	-34
1.83500	-41
1.83867	-48
1.84233	-54
1.84600	-61
1.84967	-64
1.85333	-61
1.85700	-56
1.86067	-53
1.86433	-51
1.86800	-47
1.87167	-41
1.87533	-37
1.87900	-38
1.88267	-35
1.88633	-30
1.89000	-28
1.89367	-27
1.89733	-28
1.90100	-30
1.90467	-31
1.90833	-30
1.91200	-28
1.91567	-25
1.91933	-26
1.92300	-31
1.92667	-39
1.93033	-47
1.93400	-53
1.93767	-54
1.94133	-51
1.94500	-32
1.94867	94
1.95233	864
1.95600	4521
1.95967	17577
1.96333	53028
1.96700	127333
1.97067	248932
1.97433	407608
1.97800	576967
1.98167	726805
1.98533	833194
1.98900	881457
1.99267	866566
1.99633	794268
2.00000	681251
2.00367	550099
2.00733	421893
2.01100	310619
2.01467	222075
2.01833	155907
2.02200	108594
2.02567	75745
2.02933	53349
2.03300	38224
2.03667	28027
2.04033	21116
2.04400	16385
2.04767	13088
2.05133	10741
2.05500	9032
2.05867	7756
2.06233	6776
2.06600	6002
2.06967	5378
2.07333	4865
2.07700	4438
2.08067	4080
2.08433	3773
2.08800	3503
2.09167	3262
2.09533	3048
2.09900	2862
2.10267	2698
2.10633	2548
2.11000	2407
2.11367	2278
2.11733	2163
2.12100	2063
2.12467	1973
2.12833	1889
2.13200	1810
2.13567	1735
2.13933	1668
2.14300	1607
2.14667	1547
2.15033	1491
2.15400	1443
2.15767	1401
2.16133	1362
2.16500	1320
2.16867	1271
2.17233	1221
2.17600	1172
2.17967	1128
2.18333	1092
2.18700	1063
2.19067	1040
2.19433	1021
2.19800	1001
2.20167	976
2.20533	945
2.20900	916
2.21267	891
2.21633	869
2.22000	842
2.22367	816
2.22733	795
2.23100	778
2.23467	765
2.23833	753
2.24200	740
2.24567	725
2.24933	710
2.25300	695
2.25667	684
2.26033	679
2.26400	675
2.26767	670
2.27133	662
2.27500	651
2.27867	640
2.28233	627
2.28600	614
2.28967	601
2.29333	586
2.29700	572
2.30067	561
2.30433	553
2.30800	548
2.31167	542
2.31533	532
2.31900	522
2.32267	514
2.32633	508
2.33000	505
2.33367	504
2.33733	503
2.34100	501
2.34467	496
2.34833	491
2.35200	484
2.35567	479
2.35933	475
2.36300	466
2.36667	456
2.37033	451
2.37400	446
2.37767	439
2.38133	434
2.38500	432
2.38867	427
2.39233	425
2.39600	426
2.39967	428
2.40333	433
2.40700	432
2.41067	427
2.41433	426
2.41800	427
2.42167	432
2.42533	430
2.42900	422
2.43267	416
2.43633	411
2.44000	403
2.44367	394
2.44733	386
2.45100	380
2.45467	378
2.45833	377
2.46200	374
2.46567	372
2.46933	373
2.47300	379
2.47667	387
2.48033	387
2.48400	378
2.48767	367
2.49133	359
2.49500	352
2.49867	344
2.50233	339
2.50600	339
2.50967	345
2.51333	353
2.51700	355
2.52067	356
2.52433	361
2.52800	365
2.53167	368
2.53533	370
2.53900	372
2.54267	375
2.54633	372
2.55000	364
2.55367	355
2.55733	352
2.56100	352
2.56467	351
2.56833	350
2.57200	347
2.57567	345
2.57933	342
2.58300	343
2.58667	345
2.59033	345
2.59400	348
2.59767	347
2.60133	345
2.60500	348
2.60867	348
2.61233	346
2.61600	342
2.61967	340
2.62333	340
2.62700	344
2.63067	347
2.63433	350
2.63800	350
2.64167	351
2.64533	356
2.64900	362
2.65267	362
2.65633	357
2.66000	352
2.66367	352
2.66733	357
2.67100	357
2.67467	356
2.67833	358
2.68200	362
2.68567	366
2.68933	371
2.69300	375
2.69667	379
2.70033	382
2.70400	383
2.70767	384
2.71133	386
2.71500	388
2.71867	386
2.72233	381
2.72600	374
2.72967	370
2.73333	366
2.73700	361
2.74067	359
2.74433	357
2.74800	354
2.75167	350
2.75533	346
2.75900	343
2.76267	342
2.76633	344
2.77000	348
2.77367	354
2.77733	359
2.78100	363
2.78467	369
2.78833	377
2.79200	384
2.79567	390
2.79933	393
2.80300	396
2.80667	393
2.81033	387
2.81400	381
2.81767	377
2.82133	376
2.82500	377
2.82867	377
2.83233	374
2.83600	371
2.83967	373
2.84333	377
2.84700	381
2.85067	384
2.85433	391
2.85800	399
2.86167	405
2.86533	407
2.86900	408
2.87267	408
2.87633	406
2.88000	406
2.88367	408
2.88733	411
2.89100	413
2.89467	414
2.89833	412
2.90200	410
2.90567	408
2.90933	408
2.91300	412
2.91667	418
2.92033	420
2.92400	419
2.92767	416
2.93133	412
2.93500	411
2.93867	412
2.94233	415
2.94600	419
2.94967	424
2.95333	426
2.95700	421
2.96067	413
2.96433	408
2.96800	406
2.97167	407
2.97533	411
2.97900	416
2.98267	420
2.98633	417
2.99000	416
2.99367	422
2.99733	430
3.00100	433
3.00467	430
3.00833	423
3.01200	417
3.01567	411
3.01933	412
3.02300	420
3.02667	428
3.03033	434
3.03400	439
3.03767	438
3.04133	435
3.04500	431
3.04867	428
3.05233	426
3.05600	426
3.05967	431
3.06333	441
3.06700	453
3.07067	463
3.07433	464
3.07800	459
3.08167	454
3.08533	446
3.08900	436
3.09267	424
3.09633	415
3.10000	418
3.10367	427
3.10733	430
3.11100	428
3.11467	425
3.11833	425
3.12200	426
3.12567	426
3.12933	424
3.13300	427
3.13667	433
3.14033	436
3.14400	438
3.14767	440
3.15133	438
3.15500	436
3.15867	438
3.16233	442
3.16600	447
3.16967	448
3.17333	442
3.17700	434
3.18067	428
3.18433	428
3.18800	428
3.19167	431
3.19533	436
3.19900	439
3.20267	439
3.20633	438
3.21000	439
3.21367	445
3.21733	454
3.22100	463
3.22467	466
3.22833	465
3.23200	464
3.23567	463
3.23933	458
3.24300	451
3.24667	446
3.25033	443
3.25400	443
3.25767	441
3.26133	438
3.26500	437
3.26867	438
3.27233	436
3.27600	435
3.27967	438
3.28333	445
3.28700	454
3.29067	460
3.29433	460
3.29800	456
3.30167	452
3.30533	449
3.30900	447
3.31267	443
3.31633	437
3.32000	435
3.32367	433
3.32733	431
3.33100	427
3.33467	425
3.33833	427
3.34200	430
3.34567	434
3.34933	437
3.35300	437
3.35667	437
3.36033	436
3.36400	432
3.36767	427
3.37133	426
3.37500	429
3.37867	432
3.38233	434
3.38600	439
3.38967	439
3.39333	433
3.39700	428
3.40067	427
3.40433	427
3.40800	425
3.41167	419
3.41533	412
3.41900	411
3.42267	414
3.42633	419
3.43000	426
3.43367	434
3.43733	441
3.44100	444
3.44467	441
3.44833	436
3.45200	433
3.45567	433
3.45933	438
3.46300	443
3.46667	444
3.47033	445
3.47400	444
3.47767	444
3.48133	441
3.48500	438
3.48867	433
3.49233	425
3.49600	417
3.49967	410
3.50333	407
3.50700	407
3.51067	406
3.51433	405
3.51800	408
3.52167	412
3.52533	412
3.52900	409
3.53267	409
3.53633	410
3.54000	408
3.54367	409
3.54733	413
3.55100	415
3.55467	416
3.55833	415
3.56200	412
3.56567	409
3.56933	404
3.57300	403
3.57667	407
3.58033	414
3.58400	418
3.58767	419
3.59133	421
3.59500	425
3.59867	428
3.60233	427
3.60600	420
3.60967	412
3.61333	402
3.61700	393
3.62067	388
3.62433	384
3.62800	380
3.63167	377
3.63533	377
3.63900	384
3.64267	393
3.64633	399
3.65000	402
3.65367	401
3.65733	396
3.66100	390
3.66467	384
3.66833	381
3.67200	381
3.67567	382
3.67933	385
3.68300	389
3.68667	392
3.69033	390
3.69400	387
3.69767	387
3.70133	393
3.70500	399
3.70867	405
3.71233	409
3.71600	410
3.71967	409
3.72333	404
3.72700	394
3.73067	386
3.73433	381
3.73800	370
3.74167	358
3.74533	349
3.74900	345
3.75267	346
3.75633	348
3.76000	355
3.76367	366
3.76733	374
3.77100	377
3.77467	376
3.77833	373
3.78200	368
3.78567	364
3.78933	360
3.79300	357
3.79667	356
3.80033	358
3.80400	358
3.80767	358
3.81133	357
3.81500	356
3.81867	353
3.82233	354
3.82600	357
3.82967	357
3.83333	356
3.83700	354
3.84067	353
3.84433	354
3.84800	354
3.85167	351
3.85533	347
3.85900	345
3.86267	346
3.86633	352
3.87000	362
3.87367	374
3.87733	379
3.88100	377
3.88467	372
3.88833	368
3.89200	365
3.89567	363
3.89933	364
3.90300	366
3.90667	366
3.91033	364
3.91400	362
3.91767	364
3.92133	364
3.92500	357
3.92867	345
3.93233	334
3.93600	330
3.93967	329
3.94333	330
3.94700	336
3.95067	341
3.95433	340
3.95800	339
3.96167	339
3.96533	337
3.96900	332
3.97267	327
3.97633	324
3.98000	321
3.98367	318
3.98733	317
3.99100	320
3.99467	325
3.99833	328

[Chromatogram (Ch2)]
Interval(msec)	220
# of Points	1091
Start Time(min)	0.002
End Time(min)	3.998
R.Time (min)	Intensity
0.00167	-0
0.00533	-0
0.00900	-0
0.01267	-1
0.01633	-1
0.02000	-1
0.02367	-1
0.02733	-1
0.03100	-1
0.03467	-1
0.03833	-1
0.04200	-1
0.04567	-1
0.04933	-1
0.05300	-1
0.05667	-1
0.06033	-1
0.06400	-1
0.06767	-1
0.07133	-1
0.07500	-1
0.07867	-1
0.08233	-0
0.08600	-0
0.08967	0
0.09333	1
0.09700	1
0.10067	1
0.10433	1
0.10800	0
0.11167	0
0.11533	0
0.11900	0
0.12267	-0
0.12633	-0
0.13000	-1
0.13367	-1
0.13733	-1
0.14100	-1
0.14467	-2
0.14833	-2
0.15200	-2
0.15567	-2
0.15933	-2
0.16300	-2
0.16667	-2
0.17033	-2
0.17400	-2
0.17767	-2
0.18133	-2
0.18500	-2
0.18867	-2
0.19233	-2
0.19600	-2
0.19967	-2
0.20333	-3
0.20700	-3
0.21067	-3
0.21433	-3
0.21800	-3
0.22167	-3
0.22533	-3
0.22900	-2
0.23267	-2
0.23633	-2
0.24000	-2
0.24367	-2
0.24733	-2
0.25100	-2
0.25467	-2
0.25833	-1
0.26200	-1
0.26567	-1
0.26933	-0
0.27300	0
0.27667	0
0.28033	0
0.28400	1
0.28767	1
0.29133	1
0.29500	1
0.29867	2
0.30233	2
0.30600	2
0.30967	2
0.31333	2
0.31700	2
0.32067	2
0.32433	2
0.32800	2
0.33167	2
0.33533	2
0.33900	2
0.34267	2
0.34633	1
0.35000	1
0.35367	1
0.35733	1
0.36100	1
0.36467	0
0.36833	0
0.37200	0
0.37567	-0
0.37933	-0
0.38300	-0
0.38667	-0
0.39033	-1
0.39400	-1
0.39767	-2
0.40133	-2
0.40500	-2
0.40867	-2
0.41233	-3
0.41600	-3
0.41967	-2
0.42333	-2
0.42700	-2
0.43067	-1
0.43433	-1
0.43800	-1
0.44167	-1
0.44533	-1
0.44900	-1
0.45267	-1
0.45633	-0
0.46000	-0
0.46367	-0
0.46733	0
0.47100	0
0.47467	0
0.47833	0
0.48200	0
0.48567	0
0.48933	0
0.49300	0
0.49667	0
0.50033	1
0.50400	0
0.50767	0
0.51133	0
0.51500	1
0.51867	1
0.52233	1
0.52600	1
0.52967	1
0.53333	0
0.53700	0
0.54067	0
0.54433	0
0.54800	0
0.55167	0
0.55533	-0
0.55900	0
0.56267	0
0.56633	0
0.57000	0
0.57367	1
0.57733	1
0.58100	1
0.58467	1
0.58833	2
0.59200	1
0.59567	1
0.59933	1
0.60300	1
0.60667	1
0.61033	1
0.61400	1
0.61767	1
0.62133	1
0.62500	1
0.62867	1
0.63233	1
0.63600	1
0.63967	1
0.64333	1
0.64700	0
0.65067	-0
0.65433	-1
0.65800	-1
0.66167	-1
0.66533	-2
0.66900	-2
0.67267	-2
0.67633	-2
0.68000	-2
0.68367	-2
0.68733	-2
0.69100	-2
0.69467	-2
0.69833	-2
0.70200	-2
0.70567	-2
0.70933	-1
0.71300	-1
0.71667	-0
0.72033	-0
0.72400	-0
0.72767	-0
0.73133	-0
0.73500	-0
0.73867	-0
0.74233	-0
0.74600	-0
0.74967	-0
0.75333	-0
0.75700	-0
0.76067	-0
0.76433	-0
0.76800	-0
0.77167	-0
0.77533	-0
0.77900	-0
0.78267	-0
0.78633	-0
0.79000	-0
0.79367	-0
0.79733	-0
0.80100	-0
0.80467	-0
0.80833	-1
0.81200	-1
0.81567	-1
0.81933	-1
0.82300	-1
0.82667	-1
0.83033	-1
0.83400	-1
0.83767	-1
0.84133	-1
0.84500	-1
0.84867	-1
0.85233	-1
0.85600	-1
0.85967	-1
0.86333	-1
0.86700	-2
0.87067	-2
0.87433	-2
0.87800	-2
0.88167	-2
0.88533	-2
0.88900	-2
0.89267	-2
0.89633	-2
0.90000	-2
0.90367	-1
0.90733	-1
0.91100	-1
0.91467	-1
0.91833	-1
0.92200	-1
0.92567	-1
0.92933	-1
0.93300	-1
0.93667	-2
0.94033	-2
0.94400	-2
0.94767	-2
0.95133	-2
0.95500	-2
0.95867	-3
0.96233	-3
0.96600	-3
0.96967	-3
0.97333	-2
0.97700	-2
0.98067	-2
0.98433	-1
0.98800	-1
0.99167	-1
0.99533	-1
0.99900	-1
1.00267	-1
1.00633	-1
1.01000	-2
1.01367	-2
1.01733	-2
1.02100	-3
1.02467	-3
1.02833	-3
1.03200	-4
1.03567	-4
1.03933	-4
1.04300	-4
1.04667	-4
1.05033	-4
1.05400	-4
1.05767	-4
1.06133	-4
1.06500	-4
1.06867	-4
1.07233	-4
1.07600	-4
1.07967	-4
1.08333	-4
1.08700	-4
1.09067	-4
1.09433	-4
1.09800	-4
1.10167	-4
1.10533	-4
1.10900	-4
1.11267	-4
1.11633	-4
1.12000	-4
1.12367	-4
1.12733	-4
1.13100	-4
1.13467	-5
1.13833	-5
1.14200	-4
1.14567	-4
1.14933	-4
1.15300	-3
1.15667	-2
1.16033	-2
1.16400	-1
1.16767	-1
1.17133	-0
1.17500	0
1.17867	0
1.18233	1
1.18600	1
1.18967	1
1.19333	1
1.19700	1
1.20067	1
1.20433	1
1.20800	1
1.21167	1
1.21533	1
1.21900	1
1.22267	1
1.22633	1
1.23000	1
1.23367	1
1.23733	0
1.24100	0
1.24467	-0
1.24833	-0
1.25200	-1
1.25567	-1
1.25933	-2
1.26300	-2
1.26667	-2
1.27033	-3
1.27400	-3
1.27767	-3
1.28133	-3
1.28500	-3
1.28867	-3
1.29233	-3
1.29600	-3
1.29967	-3
1.30333	-4
1.30700	-4
1.31067	-4
1.31433	-4
1.31800	-3
1.32167	-3
1.32533	-3
1.32900	-3
1.33267	-3
1.33633	-3
1.34000	-3
1.34367	-3
1.34733	-3
1.35100	-3
1.35467	-2
1.35833	-2
1.36200	-2
1.36567	-2
1.36933	-2
1.37300	-2
1.37667	-2
1.38033	-2
1.38400	-1
1.38767	-1
1.39133	-1
1.39500	-1
1.39867	-1
1.40233	-0
1.40600	-0
1.40967	-0
1.41333	0
1.41700	0
1.42067	0
1.42433	0
1.42800	0
1.43167	0
1.43533	-0
1.43900	-0
1.44267	-1
1.44633	-1
1.45000	-1
1.45367	-1
1.45733	-2
1.46100	-2
1.46467	-2
1.46833	-2
1.47200	-2
1.47567	-2
1.47933	-2
1.48300	-2
1.48667	-2
1.49033	-3
1.49400	-3
1.49767	-3
1.50133	-3
1.50500	-3
1.50867	-3
1.51233	-3
1.51600	-3
1.51967	-3
1.52333	-3
1.52700	-3
1.53067	-3
1.53433	-3
1.53800	-2
1.54167	-2
1.54533	-2
1.54900	-2
1.55267	-2
1.55633	-3
1.56000	-3
1.56367	-4
1.56733	-4
1.57100	-4
1.57467	-5
1.57833	-5
1.58200	-5
1.58567	-6
1.58933	-7
1.59300	-7
1.59667	-8
1.60033	-8
1.60400	-9
1.60767	-10
1.61133	-12
1.61500	-14
1.61867	-16
1.62233	-18
1.62600	-21
1.62967	-24
1.63333	-27
1.63700	-30
1.64067	-33
1.64433	-36
1.64800	-39
1.65167	-42
1.65533	-46
1.65900	-49
1.66267	-52
1.66633	-55
1.67000	-58
1.67367	-62
1.67733	-66
1.68100	-70
1.68467	-74
1.68833	-78
1.69200	-82
1.69567	-85
1.69933	-88
1.70300	-91
1.70667	-93
1.71033	-95
1.71400	-96
1.71767	-97
1.72133	-98
1.72500	-99
1.72867	-99
1.73233	-100
1.73600	-100
1.73967	-100
1.74333	-101
1.74700	-101
1.75067	-102
1.75433	-102
1.75800	-103
1.76167	-103
1.76533	-103
1.76900	-103
1.77267	-103
1.77633	-103
1.78000	-103
1.78367	-103
1.78733	-103
1.79100	-103
1.79467	-103
1.79833	-104
1.80200	-105
1.80567	-105
1.80933	-105
1.81300	-105
1.81667	-105
1.82033	-105
1.82400	-105
1.82767	-105
1.83133	-105
1.83500	-105
1.83867	-104
1.84233	-104
1.84600	-105
1.84967	-105
1.85333	-105
1.85700	-105
1.86067	-105
1.86433	-105
1.86800	-105
1.87167	-105
1.87533	-105
1.87900	-106
1.88267	-106
1.88633	-106
1.89000	-105
1.89367	-105
1.89733	-104
1.90100	-103
1.90467	-103
1.90833	-102
1.91200	-103
1.91567	-103
1.91933	-103
1.92300	-104
1.92667	-104
1.93033	-105
1.93400	-104
1.93767	-104
1.94133	-103
1.94500	-102
1.94867	-101
1.95233	-101
1.95600	-100
1.95967	-100
1.96333	-99
1.96700	-99
1.97067	-99
1.97433	-99
1.97800	-98
1.98167	-98
1.98533	-98
1.98900	-98
1.99267	-97
1.99633	-97
2.00000	-97
2.00367	-96
2.00733	-96
2.01100	-97
2.01467	-97
2.01833	-97
2.02200	-97
2.02567	-97
2.02933	-97
2.03300	-96
2.03667	-96
2.04033	-95
2.04400	-95
2.04767	-95
2.05133	-95
2.05500	-95
2.05867	-94
2.06233	-94
2.06600	-94
2.06967	-94
2.07333	-94
2.07700	-94
2.08067	-94
2.08433	-94
2.08800	-93
2.09167	-92
2.09533	-92
2.09900	-91
2.10267	-91
2.10633	-90
2.11000	-90
2.11367	-90
2.11733	-90
2.12100	-90
2.12467	-89
2.12833	-89
2.13200	-88
2.13567	-88
2.13933	-88
2.14300	-87
2.14667	-87
2.15033	-87
2.15400	-86
2.15767	-86
2.16133	-87
2.16500	-87
2.16867	-87
2.17233	-87
2.17600	-86
2.17967	-86
2.18333	-85
2.18700	-84
2.19067	-84
2.19433	-83
2.19800	-83
2.20167	-83
2.20533	-83
2.20900	-83
2.21267	-84
2.21633	-84
2.22000	-84
2.22367	-84
2.22733	-83
2.23100	-83
2.23467	-82
2.23833	-81
2.24200	-80
2.24567	-79
2.24933	-78
2.25300	-77
2.25667	-76
2.26033	-76
2.26400	-75
2.26767	-74
2.27133	-74
2.27500	-74
2.27867	-74
2.28233	-74
2.28600	-74
2.28967	-74
2.29333	-74
2.29700	-74
2.30067	-74
2.30433	-74
2.30800	-74
2.31167	-74
2.31533	-73
2.31900	-73
2.32267	-72
2.32633	-72
2.33000	-72
2.33367	-71
2.33733	-70
2.34100	-70
2.34467	-69
2.34833	-68
2.35200	-67
2.35567	-66
2.35933	-65
2.36300	-64
2.36667	-63
2.37033	-62
2.37400	-60
2.37767	-57
2.38133	-54
2.38500	-50
2.38867	-46
2.39233	-42
2.39600	-38
2.39967	-34
2.40333	-29
2.40700	-25
2.41067	-21
2.41433	-17
2.41800	-13
2.42167	-10
2.42533	-8
2.42900	-6
2.43267	-4
2.43633	-2
2.44000	-0
2.44367	2
2.44733	4
2.45100	6
2.45467	7
2.45833	8
2.46200	9
2.46567	10
2.46933	10
2.47300	11
2.47667	12
2.48033	13
2.48400	14
2.48767	14
2.49133	15
2.49500	15
2.49867	15
2.50233	15
2.50600	14
2.50967	14
2.51333	14
2.51700	13
2.52067	12
2.52433	12
2.52800	11
2.53167	11
2.53533	11
2.53900	11
2.54267	11
2.54633	12
2.55000	12
2.55367	12
2.55733	12
2.56100	12
2.56467	13
2.56833	13
2.57200	14
2.57567	14
2.57933	15
2.58300	16
2.58667	16
2.59033	17
2.59400	17
2.59767	17
2.60133	17
2.60500	18
2.60867	18
2.61233	18
2.61600	18
2.61967	18
2.62333	18
2.62700	18
2.63067	19
2.63433	19
2.63800	19
2.64167	20
2.64533	21
2.64900	21
2.65267	22
2.65633	23
2.66000	23
2.66367	24
2.66733	24
2.67100	24
2.67467	25
2.67833	25
2.68200	25
2.68567	24
2.68933	24
2.69300	24
2.69667	24
2.70033	24
2.70400	25
2.70767	25
2.71133	25
2.71500	26
2.71867	26
2.72233	26
2.72600	26
2.72967	26
2.73333	26
2.73700	26
2.74067	26
2.74433	27
2.74800	27
2.75167	27
2.75533	28
2.75900	28
2.76267	29
2.76633	30
2.77000	30
2.77367	31
2.77733	31
2.78100	32
2.78467	32
2.78833	32
2.79200	32
2.79567	31
2.79933	31
2.80300	31
2.80667	30
2.81033	30
2.81400	29
2.81767	29
2.82133	29
2.82500	29
2.82867	29
2.83233	29
2.83600	29
2.83967	29
2.84333	29
2.84700	29
2.85067	29
2.85433	29
2.85800	29
2.86167	29
2.86533	27
2.86900	23
2.87267	17
2.87633	7
2.88000	-6
2.88367	-24
2.88733	-47
2.89100	-75
2.89467	-108
2.89833	-146
2.90200	-189
2.90567	-236
2.90933	-287
2.91300	-342
2.91667	-399
2.92033	-459
2.92400	-520
2.92767	-582
2.93133	-643
2.93500	-704
2.93867	-763
2.94233	-819
2.94600	-872
2.94967	-923
2.95333	-977
2.95700	-1032
2.96067	-1079
2.96433	-1107
2.96800	-1112
2.97167	-1091
2.97533	-1048
2.97900	-987
2.98267	-915
2.98633	-836
2.99000	-755
2.99367	-675
2.99733	-598
3.00100	-526
3.00467	-459
3.00833	-399
3.01200	-345
3.01567	-297
3.01933	-254
3.02300	-217
3.02667	-184
3.03033	-156
3.03400	-131
3.03767	-110
3.04133	-92
3.04500	-76
3.04867	-63
3.05233	-51
3.05600	-42
3.05967	-33
3.06333	-26
3.06700	-20
3.07067	-15
3.07433	-10
3.07800	-6
3.08167	-3
3.08533	-0
3.08900	2
3.09267	4
3.09633	6
3.10000	8
3.10367	9
3.10733	10
3.11100	12
3.11467	12
3.11833	13
3.12200	14
3.12567	15
3.12933	16
3.13300	17
3.13667	17
3.14033	18
3.14400	19
3.14767	19
3.15133	20
3.15500	20
3.15867	20
3.16233	21
3.16600	21
3.16967	21
3.17333	21
3.17700	21
3.18067	22
3.18433	22
3.18800	22
3.19167	22
3.19533	23
3.19900	23
3.20267	23
3.20633	23
3.21000	24
3.21367	24
3.21733	24
3.22100	25
3.22467	25
3.22833	25
3.23200	25
3.23567	25
3.23933	25
3.24300	24
3.24667	24
3.25033	24
3.25400	24
3.25767	24
3.26133	25
3.26500	25
3.26867	25
3.27233	25
3.27600	25
3.27967	25
3.28333	25
3.28700	26
3.29067	26
3.29433	26
3.29800	26
3.30167	26
3.30533	26
3.30900	26
3.31267	26
3.31633	26
3.32000	26
3.32367	26
3.32733	26
3.33100	26
3.33467	26
3.33833	26
3.34200	26
3.34567	26
3.34933	26
3.35300	26
3.35667	26
3.36033	26
3.36400	27
3.36767	27
3.37133	27
3.37500	28
3.37867	28
3.38233	29
3.38600	29
3.38967	29
3.39333	29
3.39700	30
3.40067	30
3.40433	30
3.40800	30
3.41167	30
3.41533	30
3.41900	30
3.42267	30
3.42633	30
3.43000	30
3.43367	30
3.43733	30
3.44100	30
3.44467	30
3.44833	30
3.45200	30
3.45567	30
3.45933	30
3.46300	30
3.46667	30
3.47033	31
3.47400	31
3.47767	31
3.48133	31
3.48500	30
3.48867	30
3.49233	30
3.49600	30
3.49967	30
3.50333	30
3.50700	30
3.51067	30
3.51433	30
3.51800	30
3.52167	30
3.52533	30
3.52900	30
3.53267	30
3.53633	30
3.54000	30
3.54367	30
3.54733	30
3.55100	30
3.55467	30
3.55833	30
3.56200	30
3.56567	30
3.56933	30
3.57300	30
3.57667	30
3.58033	30
3.58400	30
3.58767	30
3.59133	30
3.59500	30
3.59867	31
3.60233	31
3.60600	31
3.60967	31
3.61333	31
3.61700	31
3.62067	31
3.62433	31
3.62800	31
3.63167	31
3.63533	31
3.63900	31
3.64267	31
3.64633	31
3.65000	30
3.65367	30
3.65733	30
3.66100	30
3.66467	30
3.66833	30
3.67200	30
3.67567	30
3.67933	29
3.68300	29
3.68667	29
3.69033	29
3.69400	29
3.69767	29
3.70133	29
3.70500	29
3.70867	29
3.71233	29
3.71600	29
3.71967	29
3.72333	30
3.72700	30
3.73067	30
3.73433	30
3.73800	30
3.74167	30
3.74533	30
3.74900	30
3.75267	30
3.75633	29
3.76000	29
3.76367	29
3.76733	29
3.77100	29
3.77467	29
3.77833	29
3.78200	29
3.78567	29
3.78933	29
3.79300	29
3.79667	29
3.80033	29
3.80400	30
3.80767	30
3.81133	30
3.81500	30
3.81867	30
3.82233	30
3.82600	30
3.82967	30
3.83333	30
3.83700	30
3.84067	30
3.84433	30
3.84800	30
3.85167	30
3.85533	30
3.85900	30
3.86267	30
3.86633	31
3.87000	31
3.87367	31
3.87733	31
3.88100	31
3.88467	30
3.88833	30
3.89200	30
3.89567	30
3.89933	30
3.90300	30
3.90667	30
3.91033	31
3.91400	31
3.91767	31
3.92133	31
3.92500	31
3.92867	31
3.93233	31
3.93600	31
3.93967	30
3.94333	30
3.94700	30
3.95067	30
3.95433	30
3.95800	30
3.96167	30
3.96533	30
3.96900	30
3.97267	30
3.97633	30
3.98000	31
3.98367	31
3.98733	31
3.99100	31
3.99467	31
3.99833	30

[Chromatogram (Ch3)]
Interval(msec)	220
# of Points	1091
Start Time(min)	0.002
End Time(min)	3.998
R.Time (min)	Intensity
0.00167	-0
0.00533	-2
0.00900	-3
0.01267	-3
0.01633	-3
0.02000	-4
0.02367	-3
0.02733	-2
0.03100	-2
0.03467	-3
0.03833	-2
0.04200	-0
0.04567	2
0.04933	2
0.05300	0
0.05667	1
0.06033	2
0.06400	3
0.06767	4
0.07133	5
0.07500	6
0.07867	5
0.08233	5
0.08600	4
0.08967	5
0.09333	4
0.09700	1
0.10067	-2
0.10433	-1
0.10800	0
0.11167	1
0.11533	0
0.11900	0
0.12267	-2
0.12633	-1
0.13000	1
0.13367	1
0.13733	3
0.14100	3
0.14467	5
0.14833	5
0.15200	5
0.15567	4
0.15933	5
0.16300	5
0.16667	5
0.17033	3
0.17400	4
0.17767	6
0.18133	7
0.18500	6
0.18867	5
0.19233	7
0.19600	9
0.19967	9
0.20333	8
0.20700	6
0.21067	5
0.21433	4
0.21800	4
0.22167	4
0.22533	4
0.22900	5
0.23267	5
0.23633	5
0.24000	5
0.24367	5
0.24733	6
0.25100	8
0.25467	10
0.25833	11
0.26200	9
0.26567	9
0.26933	9
0.27300	9
0.27667	10
0.28033	13
0.28400	15
0.28767	15
0.29133	14
0.29500	13
0.29867	12
0.30233	11
0.30600	11
0.30967	12
0.31333	13
0.31700	13
0.32067	12
0.32433	11
0.32800	11
0.33167	13
0.33533	14
0.33900	12
0.34267	9
0.34633	8
0.35000	7
0.35367	9
0.35733	13
0.36100	14
0.36467	12
0.36833	8
0.37200	8
0.37567	10
0.37933	12
0.38300	14
0.38667	12
0.39033	10
0.39400	9
0.39767	9
0.40133	8
0.40500	5
0.40867	4
0.41233	4
0.41600	4
0.41967	6
0.42333	8
0.42700	10
0.43067	10
0.43433	11
0.43800	12
0.44167	13
0.44533	15
0.44900	16
0.45267	17
0.45633	17
0.46000	14
0.46367	12
0.46733	12
0.47100	14
0.47467	15
0.47833	16
0.48200	17
0.48567	14
0.48933	12
0.49300	10
0.49667	12
0.50033	12
0.50400	12
0.50767	10
0.51133	11
0.51500	12
0.51867	12
0.52233	11
0.52600	10
0.52967	11
0.53333	12
0.53700	15
0.54067	17
0.54433	20
0.54800	23
0.55167	24
0.55533	23
0.55900	23
0.56267	21
0.56633	18
0.57000	17
0.57367	17
0.57733	18
0.58100	18
0.58467	17
0.58833	16
0.59200	15
0.59567	15
0.59933	15
0.60300	15
0.60667	15
0.61033	15
0.61400	15
0.61767	15
0.62133	15
0.62500	16
0.62867	16
0.63233	19
0.63600	20
0.63967	20
0.64333	19
0.64700	20
0.65067	20
0.65433	21
0.65800	22
0.66167	22
0.66533	22
0.66900	21
0.67267	21
0.67633	23
0.68000	24
0.68367	24
0.68733	23
0.69100	22
0.69467	20
0.69833	17
0.70200	17
0.70567	18
0.70933	19
0.71300	20
0.71667	21
0.72033	23
0.72400	23
0.72767	23
0.73133	24
0.73500	23
0.73867	23
0.74233	24
0.74600	25
0.74967	26
0.75333	24
0.75700	22
0.76067	20
0.76433	18
0.76800	18
0.77167	19
0.77533	19
0.77900	19
0.78267	19
0.78633	20
0.79000	19
0.79367	17
0.79733	16
0.80100	16
0.80467	16
0.80833	18
0.81200	19
0.81567	20
0.81933	20
0.82300	20
0.82667	21
0.83033	21
0.83400	21
0.83767	20
0.84133	20
0.84500	20
0.84867	22
0.85233	23
0.85600	24
0.85967	25
0.86333	25
0.86700	25
0.87067	24
0.87433	23
0.87800	20
0.88167	20
0.88533	19
0.88900	19
0.89267	20
0.89633	20
0.90000	21
0.90367	22
0.90733	23
0.91100	23
0.91467	23
0.91833	22
0.92200	21
0.92567	22
0.92933	22
0.93300	20
0.93667	18
0.94033	18
0.94400	19
0.94767	21
0.95133	22
0.95500	22
0.95867	22
0.96233	23
0.96600	24
0.96967	25
0.97333	24
0.97700	24
0.98067	25
0.98433	27
0.98800	30
0.99167	30
0.99533	29
0.99900	30
1.00267	31
1.00633	32
1.01000	31
1.01367	26
1.01733	24
1.02100	24
1.02467	25
1.02833	27
1.03200	28
1.03567	31
1.03933	31
1.04300	30
1.04667	30
1.05033	31
1.05400	31
1.05767	30
1.06133	27
1.06500	26
1.06867	26
1.07233	27
1.07600	28
1.07967	30
1.08333	33
1.08700	33
1.09067	32
1.09433	29
1.09800	28
1.10167	27
1.10533	26
1.10900	26
1.11267	25
1.11633	24
1.12000	24
1.12367	24
1.12733	25
1.13100	25
1.13467	25
1.13833	26
1.14200	27
1.14567	26
1.14933	26
1.15300	26
1.15667	25
1.16033	24
1.16400	23
1.16767	24
1.17133	24
1.17500	23
1.17867	22
1.18233	23
1.18600	26
1.18967	27
1.19333	28
1.19700	29
1.20067	30
1.20433	28
1.20800	26
1.21167	24
1.21533	23
1.21900	25
1.22267	24
1.22633	24
1.23000	26
1.23367	27
1.23733	26
1.24100	27
1.24467	30
1.24833	30
1.25200	31
1.25567	30
1.25933	29
1.26300	28
1.26667	27
1.27033	27
1.27400	26
1.27767	26
1.28133	28
1.28500	29
1.28867	28
1.29233	27
1.29600	27
1.29967	28
1.30333	27
1.30700	26
1.31067	26
1.31433	25
1.31800	24
1.32167	24
1.32533	26
1.32900	28
1.33267	28
1.33633	27
1.34000	26
1.34367	27
1.34733	28
1.35100	29
1.35467	29
1.35833	29
1.36200	31
1.36567	32
1.36933	33
1.37300	31
1.37667	30
1.38033	29
1.38400	28
1.38767	27
1.39133	29
1.39500	30
1.39867	30
1.40233	28
1.40600	25
1.40967	25
1.41333	27
1.41700	28
1.42067	28
1.42433	28
1.42800	28
1.43167	28
1.43533	27
1.43900	26
1.44267	25
1.44633	26
1.45000	25
1.45367	26
1.45733	26
1.46100	24
1.46467	23
1.46833	25
1.47200	28
1.47567	28
1.47933	27
1.48300	26
1.48667	25
1.49033	26
1.49400	27
1.49767	28
1.50133	26
1.50500	26
1.50867	26
1.51233	27
1.51600	29
1.51967	31
1.52333	32
1.52700	31
1.53067	31
1.53433	32
1.53800	33
1.54167	31
1.54533	30
1.54900	29
1.55267	29
1.55633	27
1.56000	27
1.56367	27
1.56733	26
1.57100	27
1.57467	29
1.57833	30
1.58200	31
1.58567	30
1.58933	30
1.59300	31
1.59667	28
1.60033	26
1.60400	26
1.60767	26
1.61133	27
1.61500	27
1.61867	27
1.62233	29
1.62600	29
1.62967	28
1.63333	28
1.63700	30
1.64067	29
1.64433	29
1.64800	31
1.65167	31
1.65533	32
1.65900	32
1.66267	35
1.66633	38
1.67000	38
1.67367	40
1.67733	41
1.68100	40
1.68467	40
1.68833	39
1.69200	39
1.69567	41
1.69933	42
1.70300	41
1.70667	43
1.71033	43
1.71400	40
1.71767	40
1.72133	41
1.72500	43
1.72867	43
1.73233	43
1.73600	41
1.73967	39
1.74333	39
1.74700	40
1.75067	41
1.75433	41
1.75800	43
1.76167	46
1.76533	48
1.76900	49
1.77267	50
1.77633	51
1.78000	53
1.78367	54
1.78733	55
1.79100	56
1.79467	55
1.79833	55
1.80200	54
1.80567	54
1.80933	53
1.81300	53
1.81667	51
1.82033	49
1.82400	50
1.82767	51
1.83133	51
1.83500	51
1.83867	51
1.84233	53
1.84600	56
1.84967	57
1.85333	57
1.85700	55
1.86067	54
1.86433	55
1.86800	56
1.87167	55
1.87533	56
1.87900	59
1.88267	61
1.88633	62
1.89000	61
1.89367	60
1.89733	62
1.90100	65
1.90467	68
1.90833	71
1.91200	70
1.91567	70
1.91933	71
1.92300	72
1.92667	73
1.93033	73
1.93400	73
1.93767	72
1.94133	71
1.94500	71
1.94867	72
1.95233	73
1.95600	76
1.95967	79
1.96333	80
1.96700	80
1.97067	78
1.97433	77
1.97800	78
1.98167	81
1.98533	83
1.98900	84
1.99267	85
1.99633	86
2.00000	87
2.00367	87
2.00733	88
2.01100	88
2.01467	89
2.01833	89
2.02200	90
2.02567	91
2.02933	93
2.03300	94
2.03667	95
2.04033	98
2.04400	98
2.04767	98
2.05133	100
2.05500	102
2.05867	103
2.06233	104
2.06600	106
2.06967	107
2.07333	107
2.07700	108
2.08067	109
2.08433	109
2.08800	107
2.09167	106
2.09533	107
2.09900	109
2.10267	111
2.10633	112
2.11000	113
2.11367	116
2.11733	117
2.12100	116
2.12467	113
2.12833	111
2.13200	111
2.13567	113
2.13933	115
2.14300	117
2.14667	119
2.15033	121
2.15400	120
2.15767	117
2.16133	116
2.16500	115
2.16867	117
2.17233	119
2.17600	121
2.17967	120
2.18333	118
2.18700	117
2.19067	119
2.19433	123
2.19800	129
2.20167	132
2.20533	131
2.20900	131
2.21267	133
2.21633	133
2.22000	130
2.22367	130
2.22733	128
2.23100	126
2.23467	125
2.23833	125
2.24200	126
2.24567	128
2.24933	130
2.25300	131
2.25667	133
2.26033	135
2.26400	135
2.26767	134
2.27133	134
2.27500	134
2.27867	134
2.28233	135
2.28600	137
2.28967	137
2.29333	135
2.29700	133
2.30067	134
2.30433	135
2.30800	137
2.31167	138
2.31533	140
2.31900	141
2.32267	142
2.32633	142
2.33000	140
2.33367	140
2.33733	141
2.34100	141
2.34467	141
2.34833	141
2.35200	140
2.35567	142
2.35933	142
2.36300	140
2.36667	141
2.37033	141
2.37400	142
2.37767	143
2.38133	144
2.38500	145
2.38867	144
2.39233	142
2.39600	141
2.39967	142
2.40333	144
2.40700	147
2.41067	150
2.41433	152
2.41800	152
2.42167	152
2.42533	154
2.42900	155
2.43267	155
2.43633	153
2.44000	156
2.44367	195
2.44733	276
2.45100	355
2.45467	413
2.45833	438
2.46200	431
2.46567	411
2.46933	391
2.47300	377
2.47667	364
2.48033	346
2.48400	323
2.48767	296
2.49133	272
2.49500	254
2.49867	240
2.50233	230
2.50600	226
2.50967	225
2.51333	228
2.51700	234
2.52067	240
2.52433	245
2.52800	244
2.53167	238
2.53533	228
2.53900	217
2.54267	205
2.54633	193
2.55000	182
2.55367	172
2.55733	163
2.56100	157
2.56467	150
2.56833	144
2.57200	144
2.57567	155
2.57933	181
2.58300	219
2.58667	260
2.59033	303
2.59400	349
2.59767	397
2.60133	449
2.60500	502
2.60867	549
2.61233	590
2.61600	622
2.61967	644
2.62333	655
2.62700	658
2.63067	656
2.63433	650
2.63800	640
2.64167	628
2.64533	619
2.64900	611
2.65267	605
2.65633	597
2.66000	590
2.66367	585
2.66733	580
2.67100	579
2.67467	580
2.67833	580
2.68200	580
2.68567	583
2.68933	586
2.69300	590
2.69667	596
2.70033	602
2.70400	606
2.70767	611
2.71133	614
2.71500	620
2.71867	625
2.72233	629
2.72600	632
2.72967	633
2.73333	636
2.73700	641
2.74067	645
2.74433	650
2.74800	654
2.75167	657
2.75533	659
2.75900	657
2.76267	654
2.76633	650
2.77000	645
2.77367	644
2.77733	642
2.78100	640
2.78467	636
2.78833	630
2.79200	624
2.79567	618
2.79933	613
2.80300	607
2.80667	600
2.81033	595
2.81400	594
2.81767	593
2.82133	590
2.82500	585
2.82867	584
2.83233	587
2.83600	598
2.83967	624
2.84333	681
2.84700	788
2.85067	969
2.85433	1243
2.85800	1618
2.86167	2094
2.86533	2646
2.86900	3236
2.87267	3819
2.87633	4346
2.88000	4773
2.88367	5070
2.88733	5221
2.89100	5234
2.89467	5126
2.89833	4919
2.90200	4644
2.90567	4326
2.90933	3986
2.91300	3641
2.91667	3309
2.92033	2997
2.92400	2710
2.92767	2445
2.93133	2204
2.93500	1992
2.93867	1808
2.94233	1645
2.94600	1502
2.94967	1377
2.95333	1268
2.95700	1172
2.96067	1088
2.96433	1015
2.96800	953
2.97167	899
2.97533	852
2.97900	811
2.98267	777
2.98633	747
2.99000	721
2.99367	699
2.99733	681
3.00100	666
3.00467	653
3.00833	641
3.01200	630
3.01567	621
3.01933	615
3.02300	609
3.02667	604
3.03033	600
3.03400	599
3.03767	600
3.04133	599
3.04500	597
3.04867	593
3.05233	591
3.05600	590
3.05967	590
3.06333	591
3.06700	590
3.07067	589
3.07433	589
3.07800	590
3.08167	591
3.08533	590
3.08900	589
3.09267	588
3.09633	587
3.10000	585
3.10367	587
3.10733	590
3.11100	592
3.11467	593
3.11833	593
3.12200	593
3.12567	592
3.12933	592
3.13300	590
3.13667	586
3.14033	585
3.14400	585
3.14767	584
3.15133	584
3.15500	583
3.15867	583
3.16233	583
3.16600	582
3.16967	581
3.17333	580
3.17700	581
3.18067	580
3.18433	578
3.18800	578
3.19167	577
3.19533	575
3.19900	577
3.20267	578
3.20633	581
3.21000	581
3.21367	578
3.21733	577
3.22100	576
3.22467	575
3.22833	573
3.23200	572
3.23567	571
3.23933	570
3.24300	567
3.24667	566
3.25033	568
3.25400	571
3.25767	571
3.26133	571
3.26500	569
3.26867	566
3.27233	563
3.27600	562
3.27967	562
3.28333	563
3.28700	563
3.29067	561
3.29433	557
3.29800	555
3.30167	552
3.30533	550
3.30900	549
3.31267	548
3.31633	549
3.32000	549
3.32367	549
3.32733	548
3.33100	545
3.33467	541
3.33833	537
3.34200	537
3.34567	539
3.34933	537
3.35300	533
3.35667	532
3.36033	531
3.36400	529
3.36767	526
3.37133	523
3.37500	521
3.37867	519
3.38233	516
3.38600	513
3.38967	512
3.39333	511
3.39700	508
3.40067	502
3.40433	497
3.40800	496
3.41167	497
3.41533	498
3.41900	498
3.42267	496
3.42633	493
3.43000	488
3.43367	486
3.43733	485
3.44100	483
3.44467	481
3.44833	481
3.45200	479
3.45567	478
3.45933	475
3.46300	472
3.46667	469
3.47033	469
3.47400	467
3.47767	464
3.48133	461
3.48500	460
3.48867	459
3.49233	456
3.49600	454
3.49967	453
3.50333	452
3.50700	451
3.51067	447
3.51433	442
3.51800	440
3.52167	440
3.52533	443
3.52900	443
3.53267	442
3.53633	441
3.54000	440
3.54367	437
3.54733	435
3.55100	435
3.55467	432
3.55833	432
3.56200	431
3.56567	429
3.56933	426
3.57300	423
3.57667	421
3.58033	419
3.58400	417
3.58767	413
3.59133	410
3.59500	406
3.59867	405
3.60233	406
3.60600	405
3.60967	402
3.61333	400
3.61700	400
3.62067	400
3.62433	398
3.62800	396
3.63167	397
3.63533	395
3.63900	392
3.64267	392
3.64633	392
3.65000	391
3.65367	389
3.65733	387
3.66100	384
3.66467	383
3.66833	383
3.67200	381
3.67567	382
3.67933	379
3.68300	376
3.68667	375
3.69033	374
3.69400	371
3.69767	368
3.70133	365
3.70500	362
3.70867	362
3.71233	361
3.71600	360
3.71967	361
3.72333	360
3.72700	359
3.73067	360
3.73433	359
3.73800	355
3.74167	351
3.74533	351
3.74900	353
3.75267	353
3.75633	349
3.76000	344
3.76367	339
3.76733	335
3.77100	333
3.77467	334
3.77833	334
3.78200	334
3.78567	333
3.78933	332
3.79300	331
3.79667	328
3.80033	326
3.80400	322
3.80767	318
3.81133	315
3.81500	312
3.81867	312
3.82233	310
3.82600	309
3.82967	309
3.83333	309
3.83700	307
3.84067	306
3.84433	305
3.84800	303
3.85167	302
3.85533	301
3.85900	299
3.86267	297
3.86633	296
3.87000	294
3.87367	293
3.87733	292
3.88100	290
3.88467	287
3.88833	284
3.89200	279
3.89567	275
3.89933	276
3.90300	276
3.90667	275
3.91033	274
3.91400	272
3.91767	270
3.92133	269
3.92500	269
3.92867	269
3.93233	270
3.93600	270
3.93967	268
3.94333	264
3.94700	262
3.95067	261
3.95433	262
3.95800	260
3.96167	259
3.96533	257
3.96900	254
3.97267	251
3.97633	247
3.98000	245
3.98367	245
3.98733	245
3.99100	245
3.99467	243
3.99833	240

[Status Trace (Column Oven Temperature)]
Interval(msec)	1000
# of Points	240
Start Time(min)	0.006
End Time(min)	3.989
Intensity Units	
Intensity Multiplier	1
R.Time (min)	Intensity
0.00615	35.04
0.02282	35.05
0.03948	35.04
0.05615	35.04
0.07282	35.04
0.08948	35.04
0.10615	35.05
0.12282	35.05
0.13948	35.06
0.15615	35.05
0.17282	35.05
0.18948	35.05
0.20615	35.06
0.22282	35.07
0.23948	35.06
0.25615	35.05
0.27282	35.05
0.28948	35.04
0.30615	35.04
0.32282	35.02
0.33948	35.01
0.35615	35.01
0.37282	35.01
0.38948	35.02
0.40615	35.03
0.42282	35.04
0.43948	35.04
0.45615	35.04
0.47282	35.04
0.48948	35.03
0.50615	35.02
0.52282	35.02
0.53948	35.02
0.55615	35.00
0.57282	35.00
0.58948	34.99
0.60615	34.99
0.62282	34.99
0.63948	35.00
0.65615	35.01
0.67282	35.02
0.68948	35.02
0.70615	35.00
0.72282	35.00
0.73948	35.01
0.75615	35.00
0.77282	35.00
0.78948	35.00
0.80615	35.00
0.82282	35.01
0.83948	35.00
0.85615	35.01
0.87282	35.01
0.88948	35.00
0.90615	35.00
0.92282	35.00
0.93948	35.01
0.95615	35.01
0.97282	35.01
0.98948	35.00
1.00615	35.01
1.02282	35.01
1.03948	35.01
1.05615	35.02
1.07282	35.02
1.08948	35.03
1.10615	35.04
1.12282	35.05
1.13948	35.05
1.15615	35.03
1.17282	35.02
1.18948	35.01
1.20615	35.00
1.22282	34.99
1.23948	34.99
1.25615	35.00
1.27282	35.00
1.28948	35.01
1.30615	35.02
1.32282	35.02
1.33948	35.02
1.35615	35.00
1.37282	35.00
1.38948	35.00
1.40615	34.99
1.42282	34.98
1.43948	34.98
1.45615	34.98
1.47282	34.98
1.48948	34.98
1.50615	34.99
1.52282	34.99
1.53948	34.98
1.55615	34.99
1.57282	35.00
1.58948	35.02
1.60615	35.08
1.62282	35.20
1.63948	35.38
1.65615	35.61
1.67282	35.91
1.68948	36.27
1.70615	36.62
1.72282	36.95
1.73948	37.30
1.75615	37.65
1.77282	37.95
1.78948	38.28
1.80615	38.64
1.82282	38.96
1.83948	39.29
1.85615	39.61
1.87282	39.94
1.88948	40.27
1.90615	40.59
1.92282	40.93
1.93948	41.25
1.95615	41.58
1.97282	41.91
1.98948	42.24
2.00615	42.58
2.02282	42.89
2.03948	43.23
2.05615	43.54
2.07282	43.88
2.08948	44.20
2.10615	44.53
2.12282	44.86
2.13948	45.18
2.15615	45.51
2.17282	45.83
2.18948	46.15
2.20615	46.50
2.22282	46.84
2.23948	47.15
2.25615	47.47
2.27282	47.80
2.28948	48.12
2.30615	48.46
2.32282	48.79
2.33948	49.11
2.35615	49.39
2.37282	49.60
2.38948	49.67
2.40615	49.67
2.42282	49.66
2.43948	49.67
2.45615	49.67
2.47282	49.67
2.48948	49.67
2.50615	49.68
2.52282	49.70
2.53948	49.70
2.55615	49.73
2.57282	49.75
2.58948	49.76
2.60615	49.78
2.62282	49.80
2.63948	49.81
2.65615	49.81
2.67282	49.81
2.68948	49.84
2.70615	49.84
2.72282	49.87
2.73948	49.88
2.75615	49.87
2.77282	49.85
2.78948	49.84
2.80615	49.86
2.82282	49.88
2.83948	49.89
2.85615	49.89
2.87282	49.89
2.88948	49.90
2.90615	49.89
2.92282	49.90
2.93948	49.90
2.95615	49.91
2.97282	49.92
2.98948	49.94
3.00615	49.95
3.02282	49.96
3.03948	49.98
3.05615	49.98
3.07282	50.00
3.08948	50.01
3.10615	50.02
3.12282	50.03
3.13948	50.03
3.15615	50.03
3.17282	50.03
3.18948	50.04
3.20615	50.03
3.22282	50.03
3.23948	50.05
3.25615	50.05
3.27282	50.06
3.28948	50.07
3.30615	50.09
3.32282	50.09
3.33948	50.10
3.35615	50.11
3.37282	50.10
3.38948	50.09
3.40615	50.09
3.42282	50.08
3.43948	50.08
3.45615	50.08
3.47282	50.08
3.48948	50.08
3.50615	50.07
3.52282	50.07
3.53948	50.07
3.55615	50.07
3.57282	50.06
3.58948	50.06
3.60615	50.05
3.62282	50.05
3.63948	50.05
3.65615	50.04
3.67282	50.05
3.68948	50.06
3.70615	50.07
3.72282	50.07
3.73948	50.08
3.75615	50.08
3.77282	50.08
3.78948	50.09
3.80615	50.08
3.82282	50.08
3.83948	50.08
3.85615	50.09
3.87282	50.09
3.88948	50.09
3.90615	50.08
3.92282	50.08
3.93948	50.08
3.95615	50.08
3.97282	50.07
3.98948	50.06

[Status Trace (Injection Unit Temperature)]
Interval(msec)	1000
# of Points	240
Start Time(min)	0.006
End Time(min)	3.989
Intensity Units	
Intensity Multiplier	1
R.Time (min)	Intensity
0.00615	99.98
0.02282	99.98
0.03948	99.98
0.05615	99.98
0.07282	99.98
0.08948	99.98
0.10615	99.97
0.12282	99.98
0.13948	99.98
0.15615	99.98
0.17282	99.98
0.18948	99.98
0.20615	99.98
0.22282	99.98
0.23948	99.98
0.25615	99.98
0.27282	99.98
0.28948	99.98
0.30615	99.98
0.32282	99.97
0.33948	99.98
0.35615	99.98
0.37282	99.98
0.38948	99.98
0.40615	99.98
0.42282	99.98
0.43948	99.98
0.45615	99.98
0.47282	99.98
0.48948	99.98
0.50615	99.98
0.52282	99.98
0.53948	99.98
0.55615	99.99
0.57282	99.98
0.58948	99.99
0.60615	99.99
0.62282	99.99
0.63948	99.99
0.65615	99.99
0.67282	99.99
0.68948	99.98
0.70615	99.99
0.72282	99.99
0.73948	99.99
0.75615	99.99
0.77282	99.99
0.78948	99.99
0.80615	99.98
0.82282	99.99
0.83948	99.99
0.85615	99.98
0.87282	99.99
0.88948	99.99
0.90615	99.99
0.92282	99.99
0.93948	99.99
0.95615	99.99
0.97282	99.99
0.98948	99.99
1.00615	99.99
1.02282	99.99
1.03948	99.98
1.05615	99.99
1.07282	99.99
1.08948	99.99
1.10615	99.98
1.12282	99.99
1.13948	99.98
1.15615	99.99
1.17282	99.98
1.18948	99.98
1.20615	99.99
1.22282	99.99
1.23948	99.98
1.25615	99.98
1.27282	99.98
1.28948	99.98
1.30615	99.98
1.32282	99.99
1.33948	99.98
1.35615	99.98
1.37282	99.98
1.38948	99.98
1.40615	99.98
1.42282	99.98
1.43948	99.99
1.45615	99.98
1.47282	99.98
1.48948	99.98
1.50615	99.99
1.52282	99.99
1.53948	99.98
1.55615	99.98
1.57282	99.99
1.58948	99.98
1.60615	99.99
1.62282	99.99
1.63948	99.99
1.65615	99.98
1.67282	99.99
1.68948	99.99
1.70615	99.99
1.72282	99.99
1.73948	99.99
1.75615	99.99
1.77282	99.99
1.78948	99.99
1.80615	99.98
1.82282	99.99
1.83948	99.99
1.85615	99.98
1.87282	99.99
1.88948	99.98
1.90615	99.98
1.92282	99.98
1.93948	99.99
1.95615	99.98
1.97282	99.99
1.98948	99.99
2.00615	99.98
2.02282	99.98
2.03948	99.98
2.05615	99.98
2.07282	99.98
2.08948	99.98
2.10615	99.98
2.12282	99.97
2.13948	99.97
2.15615	99.97
2.17282	99.97
2.18948	99.97
2.20615	99.98
2.22282	99.97
2.23948	99.97
2.25615	99.97
2.27282	99.97
2.28948	99.97
2.30615	99.97
2.32282	99.97
2.33948	99.97
2.35615	99.97
2.37282	99.97
2.38948	99.97
2.40615	99.97
2.42282	99.97
2.43948	99.97
2.45615	99.97
2.47282	99.97
2.48948	99.97
2.50615	99.97
2.52282	99.97
2.53948	99.97
2.55615	99.97
2.57282	99.97
2.58948	99.98
2.60615	99.97
2.62282	99.98
2.63948	99.98
2.65615	99.98
2.67282	99.98
2.68948	99.98
2.70615	99.98
2.72282	99.99
2.73948	99.99
2.75615	99.99
2.77282	99.99
2.78948	99.99
2.80615	100.00
2.82282	100.00
2.83948	100.00
2.85615	100.00
2.87282	100.00
2.88948	100.00
2.90615	100.01
2.92282	100.01
2.93948	100.01
2.95615	100.01
2.97282	100.01
2.98948	100.01
3.00615	100.01
3.02282	100.02
3.03948	100.02
3.05615	100.02
3.07282	100.02
3.08948	100.02
3.10615	100.02
3.12282	100.02
3.13948	100.02
3.15615	100.02
3.17282	100.02
3.18948	100.02
3.20615	100.03
3.22282	100.03
3.23948	100.03
3.25615	100.02
3.27282	100.03
3.28948	100.03
3.30615	100.03
3.32282	100.04
3.33948	100.03
3.35615	100.03
3.37282	100.04
3.38948	100.03
3.40615	100.04
3.42282	100.04
3.43948	100.04
3.45615	100.04
3.47282	100.04
3.48948	100.04
3.50615	100.04
3.52282	100.04
3.53948	100.04
3.55615	100.04
3.57282	100.04
3.58948	100.04
3.60615	100.05
3.62282	100.04
3.63948	100.04
3.65615	100.04
3.67282	100.04
3.68948	100.05
3.70615	100.04
3.72282	100.04
3.73948	100.03
3.75615	100.05
3.77282	100.04
3.78948	100.04
3.80615	100.04
3.82282	100.05
3.83948	100.04
3.85615	100.05
3.87282	100.05
3.88948	100.04
3.90615	100.05
3.92282	100.04
3.93948	100.05
3.95615	100.05
3.97282	100.05
3.98948	100.05

[Status Trace (Carrier Gas Pressure)]
Interval(msec)	1000
# of Points	240
Start Time(min)	0.006
End Time(min)	3.989
Intensity Units	
Intensity Multiplier	1
R.Time (min)	Intensity
0.00615	58.00
0.02282	55.58
0.03948	56.86
0.05615	59.13
0.07282	59.46
0.08948	58.10
0.10615	57.98
0.12282	58.01
0.13948	58.01
0.15615	58.00
0.17282	58.00
0.18948	58.00
0.20615	58.00
0.22282	58.00
0.23948	58.00
0.25615	58.00
0.27282	58.00
0.28948	58.00
0.30615	58.00
0.32282	58.00
0.33948	58.00
0.35615	58.00
0.37282	58.00
0.38948	58.00
0.40615	58.00
0.42282	58.00
0.43948	58.00
0.45615	58.00
0.47282	58.00
0.48948	58.00
0.50615	58.00
0.52282	58.00
0.53948	58.00
0.55615	58.00
0.57282	58.00
0.58948	58.00
0.60615	58.00
0.62282	58.00
0.63948	58.00
0.65615	58.00
0.67282	58.00
0.68948	58.00
0.70615	58.00
0.72282	58.00
0.73948	58.00
0.75615	58.00
0.77282	58.00
0.78948	58.00
0.80615	58.00
0.82282	58.00
0.83948	58.00
0.85615	58.00
0.87282	58.00
0.88948	58.00
0.90615	58.00
0.92282	58.00
0.93948	58.00
0.95615	58.00
0.97282	58.00
0.98948	58.00
1.00615	58.00
1.02282	58.00
1.03948	58.00
1.05615	58.00
1.07282	58.00
1.08948	58.00
1.10615	58.00
1.12282	58.00
1.13948	58.00
1.15615	58.00
1.17282	58.00
1.18948	58.00
1.20615	58.00
1.22282	58.00
1.23948	58.00
1.25615	58.00
1.27282	58.00
1.28948	58.00
1.30615	58.00
1.32282	58.00
1.33948	58.00
1.35615	58.00
1.37282	58.00
1.38948	58.00
1.40615	58.00
1.42282	58.00
1.43948	58.00
1.45615	58.00
1.47282	58.00
1.48948	58.00
1.50615	58.00
1.52282	58.00
1.53948	58.00
1.55615	58.00
1.57282	58.00
1.58948	58.00
1.60615	58.00
1.62282	58.00
1.63948	58.00
1.65615	58.00
1.67282	58.01
1.68948	58.01
1.70615	58.00
1.72282	58.00
1.73948	58.00
1.75615	58.00
1.77282	58.00
1.78948	58.00
1.80615	58.00
1.82282	58.00
1.83948	58.00
1.85615	58.00
1.87282	58.00
1.88948	58.00
1.90615	58.00
1.92282	58.00
1.93948	58.00
1.95615	58.00
1.97282	58.00
1.98948	58.00
2.00615	58.00
2.02282	58.00
2.03948	58.00
2.05615	58.00
2.07282	58.00
2.08948	58.00
2.10615	58.00
2.12282	58.00
2.13948	58.00
2.15615	58.00
2.17282	58.00
2.18948	58.00
2.20615	58.00
2.22282	58.00
2.23948	58.00
2.25615	58.00
2.27282	58.00
2.28948	58.00
2.30615	58.00
2.32282	58.00
2.33948	58.00
2.35615	58.00
2.37282	58.00
2.38948	57.99
2.40615	57.99
2.42282	58.00
2.43948	58.00
2.45615	58.00
2.47282	58.00
2.48948	58.00
2.50615	58.00
2.52282	57.99
2.53948	57.99
2.55615	58.00
2.57282	58.00
2.58948	58.00
2.60615	58.00
2.62282	58.00
2.63948	58.00
2.65615	58.00
2.67282	58.00
2.68948	58.00
2.70615	58.00
2.72282	58.00
2.73948	58.00
2.75615	58.00
2.77282	58.00
2.78948	58.00
2.80615	58.00
2.82282	58.00
2.83948	58.00
2.85615	58.00
2.87282	58.00
2.88948	58.00
2.90615	58.00
2.92282	58.00
2.93948	58.00
2.95615	58.00
2.97282	58.00
2.98948	58.00
3.00615	58.00
3.02282	58.00
3.03948	58.00
3.05615	58.00
3.07282	58.00
3.08948	58.00
3.10615	58.00
3.12282	58.00
3.13948	58.00
3.15615	58.00
3.17282	58.00
3.18948	58.00
3.20615	58.00
3.22282	58.00
3.23948	58.00
3.25615	58.00
3.27282	58.00
3.28948	58.00
3.30615	58.00
3.32282	58.00
3.33948	58.00
3.35615	58.00
3.37282	58.00
3.38948	58.00
3.40615	58.00
3.42282	58.00
3.43948	58.00
3.45615	58.00
3.47282	58.00
3.48948	58.00
3.50615	58.00
3.52282	58.00
3.53948	58.00
3.55615	58.00
3.57282	58.00
3.58948	58.00
3.60615	58.00
3.62282	58.00
3.63948	58.00
3.65615	58.00
3.67282	58.00
3.68948	58.00
3.70615	58.00
3.72282	58.00
3.73948	58.00
3.75615	58.00
3.77282	58.00
3.78948	58.00
3.80615	58.00
3.82282	58.00
3.83948	58.00
3.85615	58.00
3.87282	58.00
3.88948	58.00
3.90615	58.00
3.92282	58.00
3.93948	58.00
3.95615	58.00
3.97282	58.00
3.98948	58.00

[Status Trace (Carrier Gas Flow)]
Interval(msec)	1000
# of Points	240
Start Time(min)	0.006
End Time(min)	3.989
Intensity Units	
Intensity Multiplier	1
R.Time (min)	Intensity
0.00615	34.51
0.02282	34.53
0.03948	34.55
0.05615	34.55
0.07282	34.49
0.08948	34.52
0.10615	34.52
0.12282	34.52
0.13948	34.52
0.15615	34.52
0.17282	34.52
0.18948	34.52
0.20615	34.52
0.22282	34.52
0.23948	34.52
0.25615	34.52
0.27282	34.52
0.28948	34.52
0.30615	34.52
0.32282	34.52
0.33948	34.52
0.35615	34.52
0.37282	34.52
0.38948	34.52
0.40615	34.52
0.42282	34.52
0.43948	34.52
0.45615	34.52
0.47282	34.52
0.48948	34.52
0.50615	34.52
0.52282	34.52
0.53948	34.52
0.55615	34.52
0.57282	34.52
0.58948	34.52
0.60615	34.52
0.62282	34.52
0.63948	34.52
0.65615	34.52
0.67282	34.52
0.68948	34.52
0.70615	34.52
0.72282	34.52
0.73948	34.52
0.75615	34.52
0.77282	34.52
0.78948	34.52
0.80615	34.53
0.82282	34.52
0.83948	34.51
0.85615	34.52
0.87282	34.52
0.88948	34.52
0.90615	34.51
0.92282	34.52
0.93948	34.52
0.95615	34.52
0.97282	34.52
0.98948	34.52
1.00615	34.52
1.02282	34.52
1.03948	34.52
1.05615	34.52
1.07282	34.52
1.08948	34.52
1.10615	34.52
1.12282	34.52
1.13948	34.51
1.15615	34.52
1.17282	34.52
1.18948	34.52
1.20615	34.51
1.22282	34.51
1.23948	34.52
1.25615	34.52
1.27282	34.52
1.28948	34.52
1.30615	34.52
1.32282	34.52
1.33948	34.52
1.35615	34.52
1.37282	34.52
1.38948	34.52
1.40615	34.52
1.42282	34.52
1.43948	34.51
1.45615	34.52
1.47282	34.52
1.48948	34.52
1.50615	34.52
1.52282	34.52
1.53948	34.52
1.55615	34.52
1.57282	34.52
1.58948	34.52
1.60615	34.52
1.62282	34.52
1.63948	34.52
1.65615	34.52
1.67282	34.51
1.68948	34.52
1.70615	34.53
1.72282	34.52
1.73948	34.52
1.75615	34.52
1.77282	34.52
1.78948	34.52
1.80615	34.52
1.82282	34.52
1.83948	34.52
1.85615	34.51
1.87282	34.52
1.88948	34.52
1.90615	34.52
1.92282	34.52
1.93948	34.53
1.95615	34.52
1.97282	34.52
1.98948	34.52
2.00615	34.52
2.02282	34.52
2.03948	34.51
2.05615	34.52
2.07282	34.51
2.08948	34.52
2.10615	34.51
2.12282	34.52
2.13948	34.52
2.15615	34.51
2.17282	34.52
2.18948	34.52
2.20615	34.51
2.22282	34.51
2.23948	34.53
2.25615	34.51
2.27282	34.51
2.28948	34.52
2.30615	34.52
2.32282	34.51
2.33948	34.51
2.35615	34.53
2.37282	34.53
2.38948	34.52
2.40615	34.52
2.42282	34.52
2.43948	34.52
2.45615	34.52
2.47282	34.52
2.48948	34.52
2.50615	34.48
2.52282	34.52
2.53948	34.52
2.55615	34.52
2.57282	34.52
2.58948	34.52
2.60615	34.52
2.62282	34.52
2.63948	34.52
2.65615	34.52
2.67282	34.52
2.68948	34.52
2.70615	34.52
2.72282	34.52
2.73948	34.52
2.75615	34.52
2.77282	34.51
2.78948	34.52
2.80615	34.52
2.82282	34.51
2.83948	34.52
2.85615	34.52
2.87282	34.52
2.88948	34.52
2.90615	34.52
2.92282	34.52
2.93948	34.51
2.95615	34.52
2.97282	34.52
2.98948	34.52
3.00615	34.52
3.02282	34.52
3.03948	34.52
3.05615	34.51
3.07282	34.51
3.08948	34.52
3.10615	34.52
3.12282	34.52
3.13948	34.52
3.15615	34.52
3.17282	34.52
3.18948	34.51
3.20615	34.52
3.22282	34.52
3.23948	34.51
3.25615	34.52
3.27282	34.52
3.28948	34.52
3.30615	34.51
3.32282	34.51
3.33948	34.52
3.35615	34.52
3.37282	34.52
3.38948	34.52
3.40615	34.52
3.42282	34.52
3.43948	34.52
3.45615	34.52
3.47282	34.52
3.48948	34.52
3.50615	34.52
3.52282	34.52
3.53948	34.52
3.55615	34.52
3.57282	34.52
3.58948	34.52
3.60615	34.52
3.62282	34.52
3.63948	34.52
3.65615	34.52
3.67282	34.51
3.68948	34.52
3.70615	34.52
3.72282	34.52
3.73948	34.52
3.75615	34.52
3.77282	34.52
3.78948	34.52
3.80615	34.52
3.82282	34.52
3.83948	34.52
3.85615	34.52
3.87282	34.52
3.88948	34.52
3.90615	34.52
3.92282	34.51
3.93948	34.52
3.95615	34.52
3.97282	34.52
3.98948	34.52

[Status Trace (Column Flow)]
Interval(msec)	1000
# of Points	240
Start Time(min)	0.006
End Time(min)	3.989
Intensity Units	
Intensity Multiplier	1
R.Time (min)	Intensity
0.00615	5.53
0.02282	5.25
0.03948	5.40
0.05615	5.66
0.07282	5.70
0.08948	5.54
0.10615	5.53
0.12282	5.53
0.13948	5.53
0.15615	5.53
0.17282	5.53
0.18948	5.53
0.20615	5.53
0.22282	5.53
0.23948	5.53
0.25615	5.53
0.27282	5.53
0.28948	5.53
0.30615	5.53
0.32282	5.53
0.33948	5.53
0.35615	5.53
0.37282	5.53
0.38948	5.53
0.40615	5.53
0.42282	5.53
0.43948	5.53
0.45615	5.53
0.47282	5.53
0.48948	5.53
0.50615	5.53
0.52282	5.53
0.53948	5.53
0.55615	5.53
0.57282	5.53
0.58948	5.53
0.60615	5.53
0.62282	5.53
0.63948	5.53
0.65615	5.53
0.67282	5.53
0.68948	5.53
0.70615	5.53
0.72282	5.53
0.73948	5.53
0.75615	5.53
0.77282	5.53
0.78948	5.53
0.80615	5.53
0.82282	5.53
0.83948	5.53
0.85615	5.53
0.87282	5.53
0.88948	5.53
0.90615	5.53
0.92282	5.53
0.93948	5.53
0.95615	5.53
0.97282	5.53
0.98948	5.53
1.00615	5.53
1.02282	5.53
1.03948	5.53
1.05615	5.53
1.07282	5.53
1.08948	5.53
1.10615	5.53
1.12282	5.53
1.13948	5.53
1.15615	5.53
1.17282	5.53
1.18948	5.53
1.20615	5.53
1.22282	5.53
1.23948	5.53
1.25615	5.53
1.27282	5.53
1.28948	5.53
1.30615	5.53
1.32282	5.53
1.33948	5.53
1.35615	5.53
1.37282	5.53
1.38948	5.53
1.40615	5.53
1.42282	5.53
1.43948	5.53
1.45615	5.53
1.47282	5.53
1.48948	5.53
1.50615	5.53
1.52282	5.53
1.53948	5.53
1.55615	5.53
1.57282	5.53
1.58948	5.53
1.60615	5.53
1.62282	5.53
1.63948	5.52
1.65615	5.51
1.67282	5.50
1.68948	5.49
1.70615	5.48
1.72282	5.47
1.73948	5.46
1.75615	5.45
1.77282	5.44
1.78948	5.43
1.80615	5.42
1.82282	5.41
1.83948	5.40
1.85615	5.39
1.87282	5.38
1.88948	5.37
1.90615	5.36
1.92282	5.35
1.93948	5.34
1.95615	5.33
1.97282	5.32
1.98948	5.31
2.00615	5.30
2.02282	5.29
2.03948	5.28
2.05615	5.27
2.07282	5.26
2.08948	5.25
2.10615	5.24
2.12282	5.23
2.13948	5.22
2.15615	5.22
2.17282	5.21
2.18948	5.20
2.20615	5.19
2.22282	5.18
2.23948	5.17
2.25615	5.16
2.27282	5.15
2.28948	5.14
2.30615	5.13
2.32282	5.12
2.33948	5.11
2.35615	5.10
2.37282	5.10
2.38948	5.10
2.40615	5.10
2.42282	5.10
2.43948	5.10
2.45615	5.10
2.47282	5.10
2.48948	5.10
2.50615	5.10
2.52282	5.09
2.53948	5.10
2.55615	5.10
2.57282	5.09
2.58948	5.09
2.60615	5.09
2.62282	5.09
2.63948	5.09
2.65615	5.09
2.67282	5.09
2.68948	5.09
2.70615	5.09
2.72282	5.09
2.73948	5.09
2.75615	5.09
2.77282	5.09
2.78948	5.09
2.80615	5.09
2.82282	5.09
2.83948	5.09
2.85615	5.09
2.87282	5.09
2.88948	5.09
2.90615	5.09
2.92282	5.09
2.93948	5.09
2.95615	5.09
2.97282	5.09
2.98948	5.09
3.00615	5.09
3.02282	5.09
3.03948	5.09
3.05615	5.09
3.07282	5.09
3.08948	5.09
3.10615	5.09
3.12282	5.09
3.13948	5.09
3.15615	5.09
3.17282	5.09
3.18948	5.09
3.20615	5.09
3.22282	5.09
3.23948	5.09
3.25615	5.09
3.27282	5.09
3.28948	5.09
3.30615	5.09
3.32282	5.09
3.33948	5.08
3.35615	5.08
3.37282	5.08
3.38948	5.09
3.40615	5.09
3.42282	5.09
3.43948	5.09
3.45615	5.09
3.47282	5.09
3.48948	5.09
3.50615	5.09
3.52282	5.09
3.53948	5.09
3.55615	5.09
3.57282	5.09
3.58948	5.09
3.60615	5.09
3.62282	5.09
3.63948	5.09
3.65615	5.09
3.67282	5.09
3.68948	5.09
3.70615	5.09
3.72282	5.09
3.73948	5.09
3.75615	5.09
3.77282	5.09
3.78948	5.09
3.80615	5.09
3.82282	5.09
3.83948	5.09
3.85615	5.09
3.87282	5.09
3.88948	5.09
3.90615	5.09
3.92282	5.09
3.93948	5.09
3.95615	5.09
3.97282	5.09
3.98948	5.09

[Status Trace (Linear Velocity)]
Interval(msec)	1000
# of Points	240
Start Time(min)	0.006
End Time(min)	3.989
Intensity Units	
Intensity Multiplier	1
R.Time (min)	Intensity
0.00615	39.02
0.02282	37.42
0.03948	38.27
0.05615	39.76
0.07282	39.97
0.08948	39.08
0.10615	39.00
0.12282	39.02
0.13948	39.02
0.15615	39.02
0.17282	39.02
0.18948	39.02
0.20615	39.01
0.22282	39.01
0.23948	39.01
0.25615	39.01
0.27282	39.01
0.28948	39.02
0.30615	39.02
0.32282	39.02
0.33948	39.02
0.35615	39.02
0.37282	39.02
0.38948	39.02
0.40615	39.02
0.42282	39.02
0.43948	39.02
0.45615	39.01
0.47282	39.02
0.48948	39.02
0.50615	39.02
0.52282	39.02
0.53948	39.02
0.55615	39.02
0.57282	39.02
0.58948	39.02
0.60615	39.02
0.62282	39.02
0.63948	39.02
0.65615	39.02
0.67282	39.02
0.68948	39.02
0.70615	39.02
0.72282	39.02
0.73948	39.02
0.75615	39.02
0.77282	39.02
0.78948	39.02
0.80615	39.02
0.82282	39.02
0.83948	39.02
0.85615	39.02
0.87282	39.02
0.88948	39.02
0.90615	39.02
0.92282	39.02
0.93948	39.02
0.95615	39.02
0.97282	39.02
0.98948	39.02
1.00615	39.02
1.02282	39.02
1.03948	39.02
1.05615	39.02
1.07282	39.02
1.08948	39.02
1.10615	39.02
1.12282	39.01
1.13948	39.01
1.15615	39.02
1.17282	39.02
1.18948	39.02
1.20615	39.02
1.22282	39.02
1.23948	39.02
1.25615	39.02
1.27282	39.02
1.28948	39.02
1.30615	39.02
1.32282	39.02
1.33948	39.02
1.35615	39.02
1.37282	39.02
1.38948	39.02
1.40615	39.02
1.42282	39.02
1.43948	39.02
1.45615	39.02
1.47282	39.02
1.48948	39.02
1.50615	39.02
1.52282	39.02
1.53948	39.02
1.55615	39.02
1.57282	39.02
1.58948	39.02
1.60615	39.01
1.62282	39.00
1.63948	38.99
1.65615	38.96
1.67282	38.94
1.68948	38.90
1.70615	38.87
1.72282	38.83
1.73948	38.80
1.75615	38.77
1.77282	38.74
1.78948	38.71
1.80615	38.67
1.82282	38.64
1.83948	38.61
1.85615	38.58
1.87282	38.55
1.88948	38.52
1.90615	38.49
1.92282	38.46
1.93948	38.43
1.95615	38.40
1.97282	38.37
1.98948	38.34
2.00615	38.30
2.02282	38.28
2.03948	38.24
2.05615	38.22
2.07282	38.19
2.08948	38.16
2.10615	38.13
2.12282	38.10
2.13948	38.07
2.15615	38.04
2.17282	38.01
2.18948	37.98
2.20615	37.95
2.22282	37.92
2.23948	37.89
2.25615	37.86
2.27282	37.83
2.28948	37.80
2.30615	37.77
2.32282	37.74
2.33948	37.71
2.35615	37.69
2.37282	37.67
2.38948	37.66
2.40615	37.66
2.42282	37.66
2.43948	37.66
2.45615	37.66
2.47282	37.66
2.48948	37.66
2.50615	37.66
2.52282	37.65
2.53948	37.66
2.55615	37.66
2.57282	37.66
2.58948	37.66
2.60615	37.65
2.62282	37.65
2.63948	37.65
2.65615	37.65
2.67282	37.65
2.68948	37.65
2.70615	37.65
2.72282	37.65
2.73948	37.65
2.75615	37.65
2.77282	37.65
2.78948	37.65
2.80615	37.65
2.82282	37.64
2.83948	37.64
2.85615	37.64
2.87282	37.64
2.88948	37.64
2.90615	37.64
2.92282	37.64
2.93948	37.64
2.95615	37.64
2.97282	37.64
2.98948	37.64
3.00615	37.64
3.02282	37.64
3.03948	37.64
3.05615	37.64
3.07282	37.64
3.08948	37.63
3.10615	37.63
3.12282	37.63
3.13948	37.63
3.15615	37.63
3.17282	37.63
3.18948	37.63
3.20615	37.63
3.22282	37.63
3.23948	37.63
3.25615	37.63
3.27282	37.63
3.28948	37.63
3.30615	37.63
3.32282	37.63
3.33948	37.63
3.35615	37.63
3.37282	37.63
3.38948	37.63
3.40615	37.63
3.42282	37.63
3.43948	37.63
3.45615	37.63
3.47282	37.63
3.48948	37.63
3.50615	37.63
3.52282	37.63
3.53948	37.63
3.55615	37.63
3.57282	37.63
3.58948	37.63
3.60615	37.63
3.62282	37.63
3.63948	37.63
3.65615	37.63
3.67282	37.63
3.68948	37.63
3.70615	37.63
3.72282	37.63
3.73948	37.63
3.75615	37.63
3.77282	37.63
3.78948	37.63
3.80615	37.63
3.82282	37.63
3.83948	37.63
3.85615	37.63
3.87282	37.63
3.88948	37.63
3.90615	37.63
3.92282	37.63
3.93948	37.63
3.95615	37.63
3.97282	37.63
3.98948	37.63

