[Header]
Application Name	LabSolutions
Version	5.110
Data File Name	C:\Users\User\Desktop\Junior\UIC Prairie Sampling\5.18.23\05182023_061.gcd
Output Date	6/5/2023
Output Time	2:17:28 PM

[File Information]
Type	Data File
Generated	5/24/2023 7:00:51 PM
Generated by	System Administrator
Modified	5/24/2023 7:08:27 PM
Modified by	System Administrator

[Sample Information]
Operator Name	System Administrator
Acquired	5/24/2023 7:04:25 PM
Sample Type	0:Unknown
Level	0
Sample Name	061
Sample ID	061
ISTD Amount1	1
ISTD Amount2	1
ISTD Amount3	1
ISTD Amount4	1
ISTD Amount5	1
ISTD Amount6	1
ISTD Amount7	1
ISTD Amount8	1
ISTD Amount9	1
ISTD Amount10	1
ISTD Amount11	1
ISTD Amount12	1
ISTD Amount13	1
ISTD Amount14	1
ISTD Amount15	1
ISTD Amount16	1
ISTD Amount17	1
ISTD Amount18	1
ISTD Amount19	1
ISTD Amount20	1
ISTD Amount21	1
ISTD Amount22	1
ISTD Amount23	1
ISTD Amount24	1
ISTD Amount25	1
ISTD Amount26	1
ISTD Amount27	1
ISTD Amount28	1
ISTD Amount29	1
ISTD Amount30	1
ISTD Amount31	1
ISTD Amount32	1
Sample Amount	1
Dilution Factor	1
Vial#	60
Injection Volume	1
Injection Count	1
Bar Code	

[Original Files]
Data File	C:\Users\User\Desktop\Junior\UIC Prairie Sampling\5.18.23\05182023_061.gcd
Method File	C:\LabSolutions\Data\GHG_4min_2022\ghg3_togas_w_acet_4 min_new_int.gcm
Batch File	C:\LabSolutions\Data\AutoSamplerTesting\05182023.gcb
Report Format File	c:\LabSolutions\System\DEFAULT.lsr

[File Description]


[Configuration]
Instrument Name	C0B7VH3-Instrument1
Instrument #	1
Line #	1
# of Detectors	3
Detector ID	DET#1	DET#2	DET#3
Detector Name	FID	PTCD	ECD
# of Channels	1	1	1

[Peak Table(Ch1)]
# of Peaks	3
Peak#	R.Time	I.Time	F.Time	Area	Height	A/H	Conc.	Mark	ID#	Name	k'	Plate #	Plate Ht.	Tailing	Resolution	Sep.Factor	Area Ratio	Height Ratio	Conc. %	Norm Conc.
1	1.472	1.428	1.531	5976	2924	2.044	0.000	   	1	CO	0.000	9577	15.663	1.225	0.000	0.000	0	0	0.000	0.000
2	1.564	1.531	1.622	7260	3683	1.971	35.392	 V 	2	CH4	0.062	11503	13.040	1.158	1.547	0.000	0	0	12.409	12.409
3	1.989	1.938	2.418	1296279	618196	2.097	249.817	   	3	CO2	0.351	17408	8.617	1.327	7.172	5.640	0	0	87.591	87.591

[Peak Table(Ch2)]
# of Peaks	0

[Peak Table(Ch3)]
# of Peaks	5
Peak#	R.Time	I.Time	F.Time	Area	Height	A/H	Conc.	Mark	ID#	Name	k'	Plate #	Plate Ht.	Tailing	Resolution	Sep.Factor	Area Ratio	Height Ratio	Conc. %	Norm Conc.
1	2.458	2.436	2.506	723	297	2.431	0.000	   			0.000	16182	9.269	0.000	0.000	0.000	0	0	0.000	0.000
2	2.528	2.506	2.576	284	106	2.670	0.000	 V 			0.028	6089	24.633	0.000	0.673	0.000	0	0	0.000	0.000
3	2.627	2.576	2.678	246	72	3.420	0.000	 V 			0.069	10669	14.060	0.000	0.856	2.421	0	0	0.000	0.000
4	2.891	2.744	3.137	20674	4878	4.239	0.306	   	1	N2O	0.176	13825	10.850	0.000	2.639	2.565	0	0	100.000	100.000
5	3.272	3.137	3.903	8728	323	27.028	0.000	 V 			0.331	100	1497.365	0.000	0.542	1.881	0	0	0.000	0.000

[Compound Results(Ch1)]
# of IDs	6
ID#	Name	R.Time	Area	Height	Conc.	Curve	3rd	2nd	1st	Constant	Area Ratio	Height Ratio	Conc. %	Norm Conc.
1	CO	1.472	5976	2924	0.000	Linear	0.000000e+00	0.000000e+00	0.000000e+00	0.000000e+00	0	0	0.000	0.000
2	CH4	1.564	7260	3683	35.392	Linear	0.000000e+00	0.000000e+00	2.051179e+002	0.000000e+00	0	0	12.409	12.409
3	CO2	1.989	1296279	618196	249.817	Linear	0.000000e+00	0.000000e+00	5.188919e+003	0.000000e+00	0	0	87.591	87.591
4	Ethylene	0.000	0	0	0.000	Linear	0.000000e+00	0.000000e+00	0.000000e+00	0.000000e+00	0	0	0.000	0.000
5	Acetylene	0.000	0	0	0.000	Linear	0.000000e+00	0.000000e+00	0.000000e+00	0.000000e+00	0	0	0.000	0.000
6	Ethane	0.000	0	0	0.000	Linear	0.000000e+00	0.000000e+00	0.000000e+00	0.000000e+00	0	0	0.000	0.000

[Compound Results(Ch2)]
# of IDs	5
ID#	Name	R.Time	Area	Height	Conc.	Curve	3rd	2nd	1st	Constant	Area Ratio	Height Ratio	Conc. %	Norm Conc.
1	Hydrogen	0.000	0	0	0.000	Linear	0.000000e+00	0.000000e+00	0.000000e+00	0.000000e+00	0	0	0.000	0.000
2	Oxygen	0.000	0	0	0.000	Linear	0.000000e+00	0.000000e+00	0.000000e+00	0.000000e+00	0	0	0.000	0.000
3	Nitrogen	0.000	0	0	0.000	Linear	0.000000e+00	0.000000e+00	0.000000e+00	0.000000e+00	0	0	0.000	0.000
4	Methane	0.000	0	0	0.000	Linear	0.000000e+00	0.000000e+00	0.000000e+00	0.000000e+00	0	0	0.000	0.000
5	Carbon Monoxide	0.000	0	0	0.000	Linear	0.000000e+00	0.000000e+00	0.000000e+00	0.000000e+00	0	0	0.000	0.000

[Compound Results(Ch3)]
# of IDs	2
ID#	Name	R.Time	Area	Height	Conc.	Curve	3rd	2nd	1st	Constant	Area Ratio	Height Ratio	Conc. %	Norm Conc.
1	N2O	2.891	20674	4878	0.306	Linear	0.000000e+00	0.000000e+00	6.759880e+004	0.000000e+00	0	0	100.000	100.000
2	SF6	0.000	0	0	0.000	Linear	0.000000e+00	0.000000e+00	0.000000e+00	0.000000e+00	0	0	0.000	0.000

[Group Results(Ch1)]
# of Groups	0

[Group Results(Ch2)]
# of Groups	0

[Group Results(Ch3)]
# of Groups	0

[Chromatogram (Ch1)]
Interval(msec)	220
# of Points	1091
Start Time(min)	0.002
End Time(min)	3.998
R.Time (min)	Intensity
0.00167	6
0.00533	6
0.00900	7
0.01267	7
0.01633	8
0.02000	7
0.02367	7
0.02733	9
0.03100	12
0.03467	16
0.03833	18
0.04200	20
0.04567	23
0.04933	22
0.05300	20
0.05667	17
0.06033	11
0.06400	5
0.06767	2
0.07133	3
0.07500	7
0.07867	12
0.08233	16
0.08600	15
0.08967	13
0.09333	11
0.09700	10
0.10067	6
0.10433	3
0.10800	4
0.11167	6
0.11533	3
0.11900	-3
0.12267	-7
0.12633	-9
0.13000	-8
0.13367	-3
0.13733	4
0.14100	16
0.14467	25
0.14833	26
0.15200	23
0.15567	18
0.15933	14
0.16300	11
0.16667	9
0.17033	4
0.17400	-1
0.17767	-5
0.18133	-10
0.18500	-13
0.18867	-13
0.19233	-10
0.19600	-7
0.19967	-1
0.20333	5
0.20700	7
0.21067	10
0.21433	18
0.21800	23
0.22167	23
0.22533	22
0.22900	20
0.23267	17
0.23633	11
0.24000	6
0.24367	3
0.24733	2
0.25100	0
0.25467	-0
0.25833	-1
0.26200	-7
0.26567	-14
0.26933	-16
0.27300	-14
0.27667	-14
0.28033	-12
0.28400	-8
0.28767	-1
0.29133	5
0.29500	10
0.29867	12
0.30233	12
0.30600	10
0.30967	6
0.31333	-1
0.31700	-8
0.32067	-11
0.32433	-13
0.32800	-13
0.33167	-11
0.33533	-10
0.33900	-8
0.34267	-3
0.34633	6
0.35000	12
0.35367	14
0.35733	12
0.36100	7
0.36467	2
0.36833	-2
0.37200	-3
0.37567	2
0.37933	7
0.38300	6
0.38667	-2
0.39033	-11
0.39400	-13
0.39767	-8
0.40133	-1
0.40500	5
0.40867	5
0.41233	1
0.41600	-7
0.41967	-14
0.42333	-18
0.42700	-20
0.43067	-20
0.43433	-20
0.43800	-19
0.44167	-17
0.44533	-17
0.44900	-19
0.45267	-21
0.45633	-21
0.46000	-18
0.46367	-15
0.46733	-13
0.47100	-12
0.47467	-10
0.47833	-3
0.48200	-0
0.48567	1
0.48933	1
0.49300	-2
0.49667	-5
0.50033	-6
0.50400	-8
0.50767	-11
0.51133	-11
0.51500	-9
0.51867	-8
0.52233	-7
0.52600	-4
0.52967	-1
0.53333	-1
0.53700	-0
0.54067	-0
0.54433	1
0.54800	0
0.55167	-4
0.55533	-9
0.55900	-13
0.56267	-19
0.56633	-21
0.57000	-15
0.57367	-7
0.57733	-2
0.58100	-6
0.58467	-14
0.58833	-21
0.59200	-23
0.59567	-22
0.59933	-21
0.60300	-17
0.60667	-13
0.61033	-10
0.61400	-9
0.61767	-12
0.62133	-14
0.62500	-14
0.62867	-14
0.63233	-14
0.63600	-13
0.63967	-13
0.64333	-12
0.64700	-10
0.65067	-6
0.65433	-4
0.65800	-1
0.66167	-2
0.66533	-5
0.66900	-10
0.67267	-15
0.67633	-18
0.68000	-20
0.68367	-19
0.68733	-17
0.69100	-13
0.69467	-11
0.69833	-12
0.70200	-15
0.70567	-16
0.70933	-14
0.71300	-13
0.71667	-15
0.72033	-20
0.72400	-25
0.72767	-28
0.73133	-26
0.73500	-27
0.73867	-31
0.74233	-34
0.74600	-32
0.74967	-28
0.75333	-26
0.75700	-21
0.76067	-14
0.76433	-6
0.76800	1
0.77167	8
0.77533	11
0.77900	11
0.78267	8
0.78633	-1
0.79000	-10
0.79367	-21
0.79733	-33
0.80100	-42
0.80467	-44
0.80833	-36
0.81200	-26
0.81567	-18
0.81933	-13
0.82300	-11
0.82667	-13
0.83033	-17
0.83400	-22
0.83767	-30
0.84133	-38
0.84500	-42
0.84867	-39
0.85233	-34
0.85600	-34
0.85967	-35
0.86333	-37
0.86700	-37
0.87067	-36
0.87433	-35
0.87800	-34
0.88167	-30
0.88533	-24
0.88900	-19
0.89267	-12
0.89633	0
0.90000	13
0.90367	18
0.90733	9
0.91100	-7
0.91467	-18
0.91833	-25
0.92200	-32
0.92567	-39
0.92933	-42
0.93300	-42
0.93667	-43
0.94033	-45
0.94400	-45
0.94767	-40
0.95133	-33
0.95500	-30
0.95867	-32
0.96233	-32
0.96600	-28
0.96967	-28
0.97333	-29
0.97700	-24
0.98067	-15
0.98433	-7
0.98800	-5
0.99167	-11
0.99533	-18
0.99900	-22
1.00267	-22
1.00633	-21
1.01000	-23
1.01367	-33
1.01733	-43
1.02100	-48
1.02467	-46
1.02833	-43
1.03200	-42
1.03567	-45
1.03933	-47
1.04300	-45
1.04667	-37
1.05033	-24
1.05400	-16
1.05767	-16
1.06133	-20
1.06500	-25
1.06867	-28
1.07233	-27
1.07600	-26
1.07967	-25
1.08333	-28
1.08700	-31
1.09067	-37
1.09433	-42
1.09800	-45
1.10167	-41
1.10533	-34
1.10900	-25
1.11267	-16
1.11633	-11
1.12000	-10
1.12367	-12
1.12733	-17
1.13100	-22
1.13467	-28
1.13833	-31
1.14200	-34
1.14567	-35
1.14933	-35
1.15300	-40
1.15667	-49
1.16033	-54
1.16400	-57
1.16767	-57
1.17133	-56
1.17500	-51
1.17867	-45
1.18233	-42
1.18600	-40
1.18967	-39
1.19333	-42
1.19700	-47
1.20067	-49
1.20433	-47
1.20800	-42
1.21167	-38
1.21533	-36
1.21900	-31
1.22267	-27
1.22633	-23
1.23000	-19
1.23367	-22
1.23733	-23
1.24100	-24
1.24467	-29
1.24833	-41
1.25200	-53
1.25567	-61
1.25933	-65
1.26300	-68
1.26667	-69
1.27033	-67
1.27400	-57
1.27767	-47
1.28133	-44
1.28500	-44
1.28867	-43
1.29233	-41
1.29600	-34
1.29967	-27
1.30333	-26
1.30700	-31
1.31067	-35
1.31433	-35
1.31800	-33
1.32167	-31
1.32533	-34
1.32900	-42
1.33267	-53
1.33633	-62
1.34000	-67
1.34367	-69
1.34733	-69
1.35100	-68
1.35467	-67
1.35833	-63
1.36200	-56
1.36567	-54
1.36933	-54
1.37300	-52
1.37667	-51
1.38033	-53
1.38400	-56
1.38767	-56
1.39133	-55
1.39500	-53
1.39867	-49
1.40233	-44
1.40600	-40
1.40967	-42
1.41333	-48
1.41700	-52
1.42067	-51
1.42433	-48
1.42800	-45
1.43167	-41
1.43533	-32
1.43900	-5
1.44267	38
1.44633	166
1.45000	494
1.45367	1011
1.45733	1587
1.46100	2103
1.46467	2510
1.46833	2780
1.47200	2875
1.47567	2767
1.47933	2469
1.48300	2046
1.48667	1586
1.49033	1165
1.49400	817
1.49767	551
1.50133	359
1.50500	229
1.50867	145
1.51233	87
1.51600	48
1.51967	25
1.52333	8
1.52700	-8
1.53067	-11
1.53433	50
1.53800	270
1.54167	732
1.54533	1398
1.54900	2123
1.55267	2769
1.55633	3261
1.56000	3561
1.56367	3624
1.56733	3413
1.57100	2958
1.57467	2363
1.57833	1758
1.58200	1233
1.58567	829
1.58933	542
1.59300	348
1.59667	217
1.60033	125
1.60400	57
1.60767	8
1.61133	-24
1.61500	-45
1.61867	-58
1.62233	-66
1.62600	-71
1.62967	-78
1.63333	-87
1.63700	-91
1.64067	-91
1.64433	-89
1.64800	-89
1.65167	-89
1.65533	-88
1.65900	-84
1.66267	-75
1.66633	-65
1.67000	-60
1.67367	-58
1.67733	-60
1.68100	-72
1.68467	-83
1.68833	-89
1.69200	-92
1.69567	-87
1.69933	-80
1.70300	-79
1.70667	-80
1.71033	-80
1.71400	-78
1.71767	-75
1.72133	-74
1.72500	-76
1.72867	-74
1.73233	-72
1.73600	-72
1.73967	-75
1.74333	-80
1.74700	-86
1.75067	-92
1.75433	-95
1.75800	-96
1.76167	-92
1.76533	-83
1.76900	-74
1.77267	-67
1.77633	-66
1.78000	-69
1.78367	-72
1.78733	-77
1.79100	-81
1.79467	-81
1.79833	-76
1.80200	-71
1.80567	-66
1.80933	-65
1.81300	-68
1.81667	-73
1.82033	-79
1.82400	-85
1.82767	-90
1.83133	-95
1.83500	-99
1.83867	-99
1.84233	-97
1.84600	-96
1.84967	-94
1.85333	-90
1.85700	-87
1.86067	-86
1.86433	-82
1.86800	-80
1.87167	-81
1.87533	-84
1.87900	-83
1.88267	-77
1.88633	-70
1.89000	-65
1.89367	-62
1.89733	-64
1.90100	-66
1.90467	-67
1.90833	-70
1.91200	-75
1.91567	-79
1.91933	-81
1.92300	-81
1.92667	-78
1.93033	-78
1.93400	-76
1.93767	-69
1.94133	-62
1.94500	-47
1.94867	31
1.95233	496
1.95600	2742
1.95967	10905
1.96333	33439
1.96700	81562
1.97067	162124
1.97433	270086
1.97800	388563
1.98167	496846
1.98533	577284
1.98900	618162
1.99267	614412
1.99633	568736
2.00000	491975
2.00367	400008
2.00733	308407
2.01100	227964
2.01467	163450
2.01833	114978
2.02200	80184
2.02567	55965
2.02933	39426
2.03300	28242
2.03667	20699
2.04033	15586
2.04400	12080
2.04767	9637
2.05133	7904
2.05500	6642
2.05867	5697
2.06233	4973
2.06600	4406
2.06967	3955
2.07333	3585
2.07700	3273
2.08067	3006
2.08433	2771
2.08800	2562
2.09167	2382
2.09533	2230
2.09900	2096
2.10267	1974
2.10633	1861
2.11000	1754
2.11367	1657
2.11733	1571
2.12100	1496
2.12467	1426
2.12833	1365
2.13200	1309
2.13567	1259
2.13933	1210
2.14300	1164
2.14667	1122
2.15033	1081
2.15400	1040
2.15767	998
2.16133	959
2.16500	924
2.16867	890
2.17233	857
2.17600	826
2.17967	797
2.18333	771
2.18700	749
2.19067	734
2.19433	718
2.19800	698
2.20167	678
2.20533	658
2.20900	641
2.21267	628
2.21633	614
2.22000	598
2.22367	580
2.22733	564
2.23100	554
2.23467	546
2.23833	539
2.24200	534
2.24567	529
2.24933	526
2.25300	525
2.25667	519
2.26033	504
2.26400	487
2.26767	469
2.27133	450
2.27500	430
2.27867	414
2.28233	401
2.28600	391
2.28967	384
2.29333	380
2.29700	377
2.30067	373
2.30433	368
2.30800	367
2.31167	372
2.31533	376
2.31900	377
2.32267	373
2.32633	364
2.33000	352
2.33367	340
2.33733	325
2.34100	314
2.34467	310
2.34833	307
2.35200	302
2.35567	298
2.35933	296
2.36300	295
2.36667	297
2.37033	300
2.37400	304
2.37767	310
2.38133	311
2.38500	305
2.38867	296
2.39233	288
2.39600	282
2.39967	275
2.40333	272
2.40700	273
2.41067	274
2.41433	269
2.41800	261
2.42167	255
2.42533	254
2.42900	256
2.43267	262
2.43633	271
2.44000	274
2.44367	271
2.44733	261
2.45100	252
2.45467	246
2.45833	245
2.46200	247
2.46567	248
2.46933	249
2.47300	250
2.47667	253
2.48033	252
2.48400	247
2.48767	239
2.49133	234
2.49500	236
2.49867	244
2.50233	256
2.50600	264
2.50967	268
2.51333	272
2.51700	274
2.52067	274
2.52433	268
2.52800	255
2.53167	241
2.53533	231
2.53900	225
2.54267	224
2.54633	227
2.55000	232
2.55367	232
2.55733	228
2.56100	223
2.56467	223
2.56833	228
2.57200	235
2.57567	239
2.57933	243
2.58300	246
2.58667	248
2.59033	247
2.59400	245
2.59767	245
2.60133	246
2.60500	249
2.60867	251
2.61233	252
2.61600	250
2.61967	247
2.62333	245
2.62700	243
2.63067	243
2.63433	246
2.63800	248
2.64167	246
2.64533	248
2.64900	250
2.65267	251
2.65633	250
2.66000	249
2.66367	248
2.66733	243
2.67100	239
2.67467	240
2.67833	246
2.68200	254
2.68567	260
2.68933	262
2.69300	263
2.69667	258
2.70033	249
2.70400	239
2.70767	233
2.71133	230
2.71500	229
2.71867	234
2.72233	241
2.72600	249
2.72967	256
2.73333	257
2.73700	253
2.74067	249
2.74433	246
2.74800	248
2.75167	253
2.75533	255
2.75900	254
2.76267	251
2.76633	248
2.77000	249
2.77367	253
2.77733	258
2.78100	262
2.78467	265
2.78833	270
2.79200	274
2.79567	279
2.79933	287
2.80300	294
2.80667	295
2.81033	290
2.81400	285
2.81767	287
2.82133	292
2.82500	296
2.82867	295
2.83233	293
2.83600	294
2.83967	297
2.84333	298
2.84700	297
2.85067	293
2.85433	284
2.85800	274
2.86167	268
2.86533	266
2.86900	272
2.87267	279
2.87633	283
2.88000	286
2.88367	290
2.88733	297
2.89100	311
2.89467	323
2.89833	321
2.90200	306
2.90567	288
2.90933	268
2.91300	251
2.91667	242
2.92033	240
2.92400	240
2.92767	247
2.93133	261
2.93500	276
2.93867	289
2.94233	296
2.94600	299
2.94967	300
2.95333	302
2.95700	304
2.96067	304
2.96433	303
2.96800	300
2.97167	299
2.97533	302
2.97900	309
2.98267	318
2.98633	326
2.99000	333
2.99367	331
2.99733	324
3.00100	318
3.00467	317
3.00833	316
3.01200	314
3.01567	312
3.01933	311
3.02300	311
3.02667	312
3.03033	316
3.03400	326
3.03767	333
3.04133	333
3.04500	332
3.04867	333
3.05233	332
3.05600	329
3.05967	323
3.06333	318
3.06700	309
3.07067	301
3.07433	300
3.07800	306
3.08167	311
3.08533	314
3.08900	317
3.09267	320
3.09633	322
3.10000	322
3.10367	323
3.10733	326
3.11100	330
3.11467	333
3.11833	334
3.12200	332
3.12567	332
3.12933	333
3.13300	329
3.13667	324
3.14033	318
3.14400	312
3.14767	309
3.15133	312
3.15500	314
3.15867	314
3.16233	315
3.16600	318
3.16967	322
3.17333	324
3.17700	326
3.18067	327
3.18433	321
3.18800	315
3.19167	311
3.19533	311
3.19900	316
3.20267	321
3.20633	321
3.21000	322
3.21367	323
3.21733	321
3.22100	319
3.22467	320
3.22833	327
3.23200	331
3.23567	330
3.23933	328
3.24300	325
3.24667	323
3.25033	321
3.25400	322
3.25767	323
3.26133	323
3.26500	320
3.26867	315
3.27233	311
3.27600	309
3.27967	313
3.28333	320
3.28700	326
3.29067	329
3.29433	324
3.29800	316
3.30167	307
3.30533	299
3.30900	296
3.31267	300
3.31633	309
3.32000	317
3.32367	320
3.32733	318
3.33100	315
3.33467	316
3.33833	319
3.34200	322
3.34567	321
3.34933	314
3.35300	307
3.35667	306
3.36033	306
3.36400	305
3.36767	303
3.37133	304
3.37500	306
3.37867	303
3.38233	296
3.38600	289
3.38967	286
3.39333	286
3.39700	290
3.40067	297
3.40433	303
3.40800	305
3.41167	310
3.41533	317
3.41900	323
3.42267	327
3.42633	326
3.43000	319
3.43367	311
3.43733	307
3.44100	303
3.44467	300
3.44833	299
3.45200	303
3.45567	305
3.45933	307
3.46300	308
3.46667	311
3.47033	315
3.47400	319
3.47767	320
3.48133	319
3.48500	315
3.48867	308
3.49233	300
3.49600	292
3.49967	286
3.50333	283
3.50700	283
3.51067	289
3.51433	301
3.51800	314
3.52167	320
3.52533	319
3.52900	313
3.53267	306
3.53633	298
3.54000	291
3.54367	285
3.54733	282
3.55100	284
3.55467	292
3.55833	299
3.56200	302
3.56567	304
3.56933	304
3.57300	303
3.57667	299
3.58033	291
3.58400	280
3.58767	272
3.59133	270
3.59500	275
3.59867	281
3.60233	286
3.60600	289
3.60967	292
3.61333	298
3.61700	300
3.62067	296
3.62433	292
3.62800	291
3.63167	296
3.63533	300
3.63900	301
3.64267	301
3.64633	305
3.65000	308
3.65367	308
3.65733	306
3.66100	300
3.66467	291
3.66833	283
3.67200	277
3.67567	277
3.67933	283
3.68300	291
3.68667	298
3.69033	303
3.69400	306
3.69767	306
3.70133	303
3.70500	299
3.70867	298
3.71233	299
3.71600	298
3.71967	294
3.72333	287
3.72700	280
3.73067	279
3.73433	284
3.73800	289
3.74167	292
3.74533	292
3.74900	292
3.75267	293
3.75633	293
3.76000	288
3.76367	280
3.76733	274
3.77100	272
3.77467	273
3.77833	273
3.78200	272
3.78567	274
3.78933	282
3.79300	294
3.79667	301
3.80033	304
3.80400	303
3.80767	299
3.81133	294
3.81500	292
3.81867	293
3.82233	294
3.82600	294
3.82967	289
3.83333	278
3.83700	271
3.84067	269
3.84433	269
3.84800	274
3.85167	280
3.85533	287
3.85900	293
3.86267	298
3.86633	301
3.87000	301
3.87367	297
3.87733	290
3.88100	280
3.88467	269
3.88833	256
3.89200	246
3.89567	241
3.89933	244
3.90300	250
3.90667	255
3.91033	254
3.91400	251
3.91767	250
3.92133	254
3.92500	262
3.92867	273
3.93233	283
3.93600	288
3.93967	289
3.94333	286
3.94700	278
3.95067	267
3.95433	259
3.95800	256
3.96167	256
3.96533	257
3.96900	254
3.97267	246
3.97633	240
3.98000	243
3.98367	248
3.98733	251
3.99100	255
3.99467	263
3.99833	274

[Chromatogram (Ch2)]
Interval(msec)	220
# of Points	1091
Start Time(min)	0.002
End Time(min)	3.998
R.Time (min)	Intensity
0.00167	-1
0.00533	-1
0.00900	-1
0.01267	-1
0.01633	-1
0.02000	-0
0.02367	-0
0.02733	-0
0.03100	-0
0.03467	-0
0.03833	-0
0.04200	0
0.04567	0
0.04933	1
0.05300	1
0.05667	1
0.06033	1
0.06400	1
0.06767	1
0.07133	1
0.07500	1
0.07867	1
0.08233	1
0.08600	1
0.08967	1
0.09333	1
0.09700	1
0.10067	1
0.10433	1
0.10800	2
0.11167	2
0.11533	2
0.11900	2
0.12267	2
0.12633	2
0.13000	2
0.13367	2
0.13733	3
0.14100	3
0.14467	2
0.14833	2
0.15200	2
0.15567	2
0.15933	2
0.16300	2
0.16667	2
0.17033	2
0.17400	2
0.17767	2
0.18133	2
0.18500	2
0.18867	2
0.19233	2
0.19600	2
0.19967	2
0.20333	1
0.20700	1
0.21067	1
0.21433	1
0.21800	0
0.22167	0
0.22533	-0
0.22900	-0
0.23267	-0
0.23633	0
0.24000	0
0.24367	0
0.24733	0
0.25100	0
0.25467	-0
0.25833	-0
0.26200	-1
0.26567	-1
0.26933	-1
0.27300	-1
0.27667	-1
0.28033	-1
0.28400	-1
0.28767	-1
0.29133	-1
0.29500	-0
0.29867	-0
0.30233	0
0.30600	0
0.30967	1
0.31333	1
0.31700	1
0.32067	2
0.32433	1
0.32800	1
0.33167	1
0.33533	1
0.33900	1
0.34267	1
0.34633	1
0.35000	1
0.35367	1
0.35733	1
0.36100	1
0.36467	1
0.36833	1
0.37200	1
0.37567	1
0.37933	1
0.38300	1
0.38667	1
0.39033	1
0.39400	1
0.39767	0
0.40133	0
0.40500	-0
0.40867	-0
0.41233	-0
0.41600	-0
0.41967	-0
0.42333	-0
0.42700	-0
0.43067	-0
0.43433	-0
0.43800	-0
0.44167	0
0.44533	0
0.44900	-0
0.45267	-0
0.45633	-1
0.46000	-1
0.46367	-1
0.46733	-2
0.47100	-2
0.47467	-2
0.47833	-2
0.48200	-3
0.48567	-3
0.48933	-3
0.49300	-4
0.49667	-4
0.50033	-4
0.50400	-4
0.50767	-4
0.51133	-4
0.51500	-4
0.51867	-4
0.52233	-4
0.52600	-4
0.52967	-3
0.53333	-3
0.53700	-3
0.54067	-3
0.54433	-3
0.54800	-3
0.55167	-2
0.55533	-2
0.55900	-2
0.56267	-2
0.56633	-1
0.57000	-1
0.57367	-1
0.57733	-1
0.58100	-1
0.58467	-0
0.58833	-0
0.59200	-0
0.59567	-0
0.59933	0
0.60300	0
0.60667	1
0.61033	1
0.61400	1
0.61767	1
0.62133	1
0.62500	1
0.62867	1
0.63233	1
0.63600	1
0.63967	1
0.64333	1
0.64700	1
0.65067	1
0.65433	1
0.65800	1
0.66167	1
0.66533	0
0.66900	0
0.67267	0
0.67633	-0
0.68000	-0
0.68367	-1
0.68733	-1
0.69100	-1
0.69467	-1
0.69833	-1
0.70200	-1
0.70567	-1
0.70933	-2
0.71300	-2
0.71667	-2
0.72033	-2
0.72400	-2
0.72767	-2
0.73133	-2
0.73500	-2
0.73867	-2
0.74233	-2
0.74600	-2
0.74967	-2
0.75333	-2
0.75700	-2
0.76067	-2
0.76433	-2
0.76800	-1
0.77167	-1
0.77533	-1
0.77900	-1
0.78267	-1
0.78633	-1
0.79000	-1
0.79367	-1
0.79733	-1
0.80100	-1
0.80467	-0
0.80833	-0
0.81200	0
0.81567	0
0.81933	0
0.82300	0
0.82667	0
0.83033	0
0.83400	0
0.83767	0
0.84133	-0
0.84500	-0
0.84867	-1
0.85233	-1
0.85600	-1
0.85967	-1
0.86333	-1
0.86700	-1
0.87067	-1
0.87433	-1
0.87800	-2
0.88167	-2
0.88533	-2
0.88900	-2
0.89267	-2
0.89633	-2
0.90000	-2
0.90367	-2
0.90733	-2
0.91100	-2
0.91467	-2
0.91833	-2
0.92200	-2
0.92567	-2
0.92933	-2
0.93300	-2
0.93667	-2
0.94033	-2
0.94400	-2
0.94767	-2
0.95133	-2
0.95500	-2
0.95867	-2
0.96233	-2
0.96600	-2
0.96967	-2
0.97333	-2
0.97700	-2
0.98067	-3
0.98433	-2
0.98800	-2
0.99167	-2
0.99533	-2
0.99900	-2
1.00267	-2
1.00633	-2
1.01000	-2
1.01367	-1
1.01733	-1
1.02100	-1
1.02467	-2
1.02833	-2
1.03200	-2
1.03567	-2
1.03933	-2
1.04300	-2
1.04667	-2
1.05033	-2
1.05400	-2
1.05767	-2
1.06133	-3
1.06500	-3
1.06867	-3
1.07233	-3
1.07600	-3
1.07967	-3
1.08333	-3
1.08700	-3
1.09067	-3
1.09433	-3
1.09800	-3
1.10167	-3
1.10533	-3
1.10900	-3
1.11267	-3
1.11633	-3
1.12000	-3
1.12367	-3
1.12733	-3
1.13100	-3
1.13467	-3
1.13833	-3
1.14200	-3
1.14567	-3
1.14933	-3
1.15300	-3
1.15667	-3
1.16033	-3
1.16400	-3
1.16767	-2
1.17133	-2
1.17500	-2
1.17867	-2
1.18233	-1
1.18600	-1
1.18967	-1
1.19333	-1
1.19700	-1
1.20067	-1
1.20433	-1
1.20800	-1
1.21167	-1
1.21533	-0
1.21900	-0
1.22267	-0
1.22633	-0
1.23000	0
1.23367	0
1.23733	0
1.24100	0
1.24467	0
1.24833	0
1.25200	-0
1.25567	-0
1.25933	-0
1.26300	-1
1.26667	-1
1.27033	-1
1.27400	-1
1.27767	-1
1.28133	-2
1.28500	-2
1.28867	-2
1.29233	-3
1.29600	-3
1.29967	-3
1.30333	-3
1.30700	-2
1.31067	-2
1.31433	-2
1.31800	-3
1.32167	-3
1.32533	-3
1.32900	-3
1.33267	-3
1.33633	-3
1.34000	-3
1.34367	-3
1.34733	-3
1.35100	-3
1.35467	-3
1.35833	-3
1.36200	-3
1.36567	-3
1.36933	-4
1.37300	-4
1.37667	-4
1.38033	-4
1.38400	-4
1.38767	-4
1.39133	-5
1.39500	-4
1.39867	-4
1.40233	-4
1.40600	-4
1.40967	-4
1.41333	-4
1.41700	-4
1.42067	-4
1.42433	-4
1.42800	-3
1.43167	-3
1.43533	-3
1.43900	-2
1.44267	-2
1.44633	-2
1.45000	-2
1.45367	-2
1.45733	-2
1.46100	-2
1.46467	-2
1.46833	-1
1.47200	-1
1.47567	-1
1.47933	-1
1.48300	-0
1.48667	-0
1.49033	-0
1.49400	-0
1.49767	-1
1.50133	-1
1.50500	-1
1.50867	-1
1.51233	-2
1.51600	-2
1.51967	-2
1.52333	-2
1.52700	-2
1.53067	-2
1.53433	-2
1.53800	-2
1.54167	-2
1.54533	-2
1.54900	-2
1.55267	-2
1.55633	-2
1.56000	-2
1.56367	-2
1.56733	-2
1.57100	-2
1.57467	-2
1.57833	-2
1.58200	-2
1.58567	-2
1.58933	-2
1.59300	-2
1.59667	-3
1.60033	-3
1.60400	-5
1.60767	-6
1.61133	-8
1.61500	-10
1.61867	-13
1.62233	-15
1.62600	-18
1.62967	-21
1.63333	-24
1.63700	-27
1.64067	-30
1.64433	-34
1.64800	-37
1.65167	-40
1.65533	-44
1.65900	-48
1.66267	-51
1.66633	-56
1.67000	-60
1.67367	-65
1.67733	-70
1.68100	-74
1.68467	-79
1.68833	-83
1.69200	-86
1.69567	-89
1.69933	-92
1.70300	-94
1.70667	-95
1.71033	-96
1.71400	-97
1.71767	-98
1.72133	-98
1.72500	-98
1.72867	-98
1.73233	-98
1.73600	-98
1.73967	-98
1.74333	-99
1.74700	-99
1.75067	-100
1.75433	-101
1.75800	-102
1.76167	-103
1.76533	-104
1.76900	-104
1.77267	-104
1.77633	-104
1.78000	-103
1.78367	-103
1.78733	-103
1.79100	-104
1.79467	-104
1.79833	-105
1.80200	-105
1.80567	-106
1.80933	-106
1.81300	-107
1.81667	-107
1.82033	-107
1.82400	-107
1.82767	-107
1.83133	-107
1.83500	-107
1.83867	-106
1.84233	-106
1.84600	-105
1.84967	-105
1.85333	-105
1.85700	-104
1.86067	-104
1.86433	-104
1.86800	-104
1.87167	-104
1.87533	-105
1.87900	-105
1.88267	-105
1.88633	-105
1.89000	-105
1.89367	-104
1.89733	-104
1.90100	-104
1.90467	-103
1.90833	-103
1.91200	-102
1.91567	-102
1.91933	-101
1.92300	-101
1.92667	-102
1.93033	-102
1.93400	-102
1.93767	-103
1.94133	-103
1.94500	-103
1.94867	-103
1.95233	-103
1.95600	-103
1.95967	-103
1.96333	-103
1.96700	-103
1.97067	-102
1.97433	-102
1.97800	-102
1.98167	-102
1.98533	-101
1.98900	-101
1.99267	-100
1.99633	-100
2.00000	-99
2.00367	-98
2.00733	-97
2.01100	-97
2.01467	-97
2.01833	-97
2.02200	-97
2.02567	-97
2.02933	-96
2.03300	-96
2.03667	-96
2.04033	-96
2.04400	-95
2.04767	-95
2.05133	-94
2.05500	-94
2.05867	-94
2.06233	-93
2.06600	-93
2.06967	-93
2.07333	-94
2.07700	-94
2.08067	-94
2.08433	-94
2.08800	-93
2.09167	-93
2.09533	-92
2.09900	-91
2.10267	-91
2.10633	-91
2.11000	-91
2.11367	-91
2.11733	-90
2.12100	-90
2.12467	-90
2.12833	-90
2.13200	-90
2.13567	-90
2.13933	-90
2.14300	-90
2.14667	-89
2.15033	-89
2.15400	-88
2.15767	-88
2.16133	-87
2.16500	-87
2.16867	-86
2.17233	-86
2.17600	-85
2.17967	-85
2.18333	-84
2.18700	-84
2.19067	-84
2.19433	-84
2.19800	-83
2.20167	-83
2.20533	-83
2.20900	-82
2.21267	-82
2.21633	-81
2.22000	-81
2.22367	-80
2.22733	-80
2.23100	-80
2.23467	-79
2.23833	-79
2.24200	-79
2.24567	-79
2.24933	-79
2.25300	-78
2.25667	-78
2.26033	-78
2.26400	-77
2.26767	-76
2.27133	-75
2.27500	-75
2.27867	-74
2.28233	-74
2.28600	-74
2.28967	-74
2.29333	-74
2.29700	-74
2.30067	-74
2.30433	-75
2.30800	-74
2.31167	-74
2.31533	-74
2.31900	-73
2.32267	-72
2.32633	-72
2.33000	-71
2.33367	-70
2.33733	-70
2.34100	-69
2.34467	-68
2.34833	-67
2.35200	-66
2.35567	-66
2.35933	-64
2.36300	-63
2.36667	-61
2.37033	-59
2.37400	-56
2.37767	-53
2.38133	-50
2.38500	-46
2.38867	-42
2.39233	-38
2.39600	-34
2.39967	-29
2.40333	-26
2.40700	-22
2.41067	-19
2.41433	-15
2.41800	-13
2.42167	-10
2.42533	-8
2.42900	-6
2.43267	-4
2.43633	-2
2.44000	-1
2.44367	1
2.44733	3
2.45100	5
2.45467	6
2.45833	7
2.46200	8
2.46567	8
2.46933	9
2.47300	10
2.47667	11
2.48033	12
2.48400	12
2.48767	13
2.49133	14
2.49500	14
2.49867	14
2.50233	15
2.50600	15
2.50967	15
2.51333	14
2.51700	14
2.52067	14
2.52433	14
2.52800	13
2.53167	13
2.53533	13
2.53900	12
2.54267	12
2.54633	12
2.55000	13
2.55367	13
2.55733	13
2.56100	14
2.56467	14
2.56833	14
2.57200	14
2.57567	14
2.57933	14
2.58300	15
2.58667	15
2.59033	15
2.59400	16
2.59767	16
2.60133	17
2.60500	17
2.60867	17
2.61233	18
2.61600	18
2.61967	18
2.62333	18
2.62700	19
2.63067	19
2.63433	19
2.63800	20
2.64167	20
2.64533	21
2.64900	21
2.65267	21
2.65633	22
2.66000	22
2.66367	22
2.66733	22
2.67100	23
2.67467	23
2.67833	23
2.68200	23
2.68567	23
2.68933	23
2.69300	23
2.69667	23
2.70033	24
2.70400	24
2.70767	25
2.71133	25
2.71500	25
2.71867	25
2.72233	25
2.72600	24
2.72967	24
2.73333	24
2.73700	24
2.74067	25
2.74433	25
2.74800	25
2.75167	26
2.75533	26
2.75900	26
2.76267	26
2.76633	26
2.77000	27
2.77367	27
2.77733	28
2.78100	28
2.78467	29
2.78833	29
2.79200	29
2.79567	30
2.79933	30
2.80300	30
2.80667	31
2.81033	31
2.81400	31
2.81767	32
2.82133	32
2.82500	32
2.82867	32
2.83233	32
2.83600	31
2.83967	31
2.84333	30
2.84700	29
2.85067	29
2.85433	29
2.85800	28
2.86167	27
2.86533	25
2.86900	21
2.87267	15
2.87633	5
2.88000	-8
2.88367	-26
2.88733	-49
2.89100	-77
2.89467	-111
2.89833	-149
2.90200	-193
2.90567	-240
2.90933	-292
2.91300	-347
2.91667	-404
2.92033	-464
2.92400	-525
2.92767	-586
2.93133	-648
2.93500	-708
2.93867	-767
2.94233	-822
2.94600	-874
2.94967	-925
2.95333	-979
2.95700	-1034
2.96067	-1080
2.96433	-1108
2.96800	-1113
2.97167	-1091
2.97533	-1048
2.97900	-987
2.98267	-914
2.98633	-835
2.99000	-754
2.99367	-674
2.99733	-597
3.00100	-525
3.00467	-459
3.00833	-399
3.01200	-345
3.01567	-297
3.01933	-254
3.02300	-217
3.02667	-185
3.03033	-156
3.03400	-132
3.03767	-111
3.04133	-93
3.04500	-77
3.04867	-64
3.05233	-52
3.05600	-42
3.05967	-34
3.06333	-27
3.06700	-21
3.07067	-16
3.07433	-11
3.07800	-7
3.08167	-3
3.08533	-0
3.08900	2
3.09267	4
3.09633	6
3.10000	7
3.10367	9
3.10733	10
3.11100	11
3.11467	12
3.11833	13
3.12200	13
3.12567	14
3.12933	15
3.13300	15
3.13667	16
3.14033	16
3.14400	17
3.14767	18
3.15133	18
3.15500	19
3.15867	20
3.16233	20
3.16600	21
3.16967	21
3.17333	21
3.17700	21
3.18067	22
3.18433	22
3.18800	23
3.19167	23
3.19533	23
3.19900	24
3.20267	24
3.20633	24
3.21000	24
3.21367	24
3.21733	24
3.22100	25
3.22467	25
3.22833	25
3.23200	25
3.23567	25
3.23933	25
3.24300	26
3.24667	26
3.25033	26
3.25400	26
3.25767	26
3.26133	26
3.26500	26
3.26867	26
3.27233	26
3.27600	26
3.27967	26
3.28333	26
3.28700	26
3.29067	26
3.29433	26
3.29800	27
3.30167	27
3.30533	27
3.30900	27
3.31267	27
3.31633	27
3.32000	27
3.32367	28
3.32733	28
3.33100	28
3.33467	28
3.33833	28
3.34200	28
3.34567	28
3.34933	28
3.35300	28
3.35667	29
3.36033	29
3.36400	29
3.36767	29
3.37133	29
3.37500	29
3.37867	29
3.38233	29
3.38600	29
3.38967	29
3.39333	29
3.39700	29
3.40067	29
3.40433	29
3.40800	29
3.41167	29
3.41533	29
3.41900	29
3.42267	29
3.42633	29
3.43000	30
3.43367	30
3.43733	30
3.44100	30
3.44467	30
3.44833	30
3.45200	30
3.45567	30
3.45933	31
3.46300	31
3.46667	31
3.47033	31
3.47400	31
3.47767	31
3.48133	31
3.48500	31
3.48867	31
3.49233	31
3.49600	31
3.49967	31
3.50333	31
3.50700	32
3.51067	32
3.51433	32
3.51800	31
3.52167	31
3.52533	31
3.52900	31
3.53267	31
3.53633	31
3.54000	31
3.54367	31
3.54733	31
3.55100	31
3.55467	31
3.55833	31
3.56200	30
3.56567	30
3.56933	30
3.57300	30
3.57667	31
3.58033	31
3.58400	31
3.58767	31
3.59133	31
3.59500	31
3.59867	31
3.60233	31
3.60600	31
3.60967	31
3.61333	31
3.61700	31
3.62067	31
3.62433	30
3.62800	30
3.63167	30
3.63533	31
3.63900	31
3.64267	31
3.64633	31
3.65000	31
3.65367	31
3.65733	31
3.66100	31
3.66467	31
3.66833	31
3.67200	31
3.67567	30
3.67933	30
3.68300	30
3.68667	30
3.69033	30
3.69400	30
3.69767	30
3.70133	30
3.70500	30
3.70867	30
3.71233	30
3.71600	30
3.71967	30
3.72333	30
3.72700	30
3.73067	30
3.73433	30
3.73800	30
3.74167	30
3.74533	30
3.74900	30
3.75267	31
3.75633	31
3.76000	31
3.76367	31
3.76733	31
3.77100	31
3.77467	31
3.77833	31
3.78200	31
3.78567	31
3.78933	31
3.79300	31
3.79667	31
3.80033	32
3.80400	32
3.80767	32
3.81133	32
3.81500	33
3.81867	33
3.82233	32
3.82600	32
3.82967	32
3.83333	32
3.83700	32
3.84067	32
3.84433	31
3.84800	31
3.85167	31
3.85533	31
3.85900	31
3.86267	31
3.86633	30
3.87000	30
3.87367	30
3.87733	30
3.88100	31
3.88467	31
3.88833	31
3.89200	31
3.89567	31
3.89933	31
3.90300	31
3.90667	31
3.91033	31
3.91400	30
3.91767	30
3.92133	30
3.92500	30
3.92867	30
3.93233	29
3.93600	29
3.93967	29
3.94333	29
3.94700	29
3.95067	29
3.95433	29
3.95800	29
3.96167	30
3.96533	30
3.96900	30
3.97267	30
3.97633	30
3.98000	30
3.98367	30
3.98733	30
3.99100	30
3.99467	30
3.99833	30

[Chromatogram (Ch3)]
Interval(msec)	220
# of Points	1091
Start Time(min)	0.002
End Time(min)	3.998
R.Time (min)	Intensity
0.00167	1
0.00533	4
0.00900	3
0.01267	3
0.01633	2
0.02000	3
0.02367	3
0.02733	3
0.03100	2
0.03467	1
0.03833	2
0.04200	2
0.04567	3
0.04933	4
0.05300	5
0.05667	4
0.06033	2
0.06400	-0
0.06767	-3
0.07133	-3
0.07500	-0
0.07867	1
0.08233	1
0.08600	3
0.08967	4
0.09333	4
0.09700	5
0.10067	7
0.10433	7
0.10800	7
0.11167	6
0.11533	6
0.11900	6
0.12267	7
0.12633	6
0.13000	3
0.13367	0
0.13733	-1
0.14100	-0
0.14467	1
0.14833	3
0.15200	4
0.15567	4
0.15933	6
0.16300	7
0.16667	7
0.17033	7
0.17400	5
0.17767	4
0.18133	4
0.18500	4
0.18867	5
0.19233	4
0.19600	3
0.19967	4
0.20333	5
0.20700	6
0.21067	5
0.21433	3
0.21800	2
0.22167	3
0.22533	3
0.22900	4
0.23267	6
0.23633	9
0.24000	10
0.24367	11
0.24733	11
0.25100	11
0.25467	10
0.25833	9
0.26200	7
0.26567	7
0.26933	8
0.27300	7
0.27667	6
0.28033	7
0.28400	9
0.28767	9
0.29133	9
0.29500	10
0.29867	10
0.30233	9
0.30600	8
0.30967	9
0.31333	11
0.31700	12
0.32067	13
0.32433	14
0.32800	12
0.33167	11
0.33533	9
0.33900	9
0.34267	10
0.34633	10
0.35000	9
0.35367	9
0.35733	9
0.36100	9
0.36467	9
0.36833	9
0.37200	7
0.37567	7
0.37933	7
0.38300	7
0.38667	9
0.39033	9
0.39400	8
0.39767	7
0.40133	7
0.40500	5
0.40867	4
0.41233	3
0.41600	6
0.41967	7
0.42333	8
0.42700	7
0.43067	7
0.43433	8
0.43800	7
0.44167	7
0.44533	7
0.44900	6
0.45267	6
0.45633	7
0.46000	6
0.46367	6
0.46733	8
0.47100	9
0.47467	9
0.47833	7
0.48200	4
0.48567	6
0.48933	9
0.49300	10
0.49667	12
0.50033	12
0.50400	13
0.50767	15
0.51133	14
0.51500	12
0.51867	12
0.52233	12
0.52600	12
0.52967	12
0.53333	11
0.53700	11
0.54067	11
0.54433	11
0.54800	9
0.55167	9
0.55533	10
0.55900	12
0.56267	10
0.56633	9
0.57000	9
0.57367	8
0.57733	7
0.58100	8
0.58467	11
0.58833	12
0.59200	11
0.59567	13
0.59933	14
0.60300	13
0.60667	13
0.61033	13
0.61400	14
0.61767	14
0.62133	14
0.62500	13
0.62867	11
0.63233	10
0.63600	9
0.63967	9
0.64333	12
0.64700	13
0.65067	13
0.65433	11
0.65800	9
0.66167	10
0.66533	13
0.66900	15
0.67267	17
0.67633	18
0.68000	18
0.68367	18
0.68733	14
0.69100	13
0.69467	13
0.69833	12
0.70200	14
0.70567	17
0.70933	19
0.71300	20
0.71667	18
0.72033	15
0.72400	15
0.72767	16
0.73133	17
0.73500	18
0.73867	19
0.74233	19
0.74600	19
0.74967	18
0.75333	19
0.75700	19
0.76067	18
0.76433	17
0.76800	17
0.77167	17
0.77533	15
0.77900	14
0.78267	16
0.78633	19
0.79000	18
0.79367	17
0.79733	18
0.80100	18
0.80467	17
0.80833	16
0.81200	16
0.81567	15
0.81933	12
0.82300	11
0.82667	10
0.83033	13
0.83400	16
0.83767	16
0.84133	15
0.84500	15
0.84867	15
0.85233	16
0.85600	19
0.85967	20
0.86333	18
0.86700	17
0.87067	17
0.87433	17
0.87800	17
0.88167	16
0.88533	17
0.88900	18
0.89267	19
0.89633	19
0.90000	19
0.90367	18
0.90733	20
0.91100	22
0.91467	22
0.91833	22
0.92200	22
0.92567	21
0.92933	19
0.93300	17
0.93667	17
0.94033	20
0.94400	20
0.94767	20
0.95133	19
0.95500	18
0.95867	15
0.96233	13
0.96600	13
0.96967	15
0.97333	17
0.97700	18
0.98067	19
0.98433	21
0.98800	21
0.99167	22
0.99533	22
0.99900	21
1.00267	21
1.00633	22
1.01000	21
1.01367	18
1.01733	16
1.02100	15
1.02467	15
1.02833	16
1.03200	17
1.03567	17
1.03933	17
1.04300	19
1.04667	21
1.05033	21
1.05400	24
1.05767	26
1.06133	26
1.06500	25
1.06867	24
1.07233	22
1.07600	20
1.07967	19
1.08333	19
1.08700	19
1.09067	17
1.09433	17
1.09800	16
1.10167	17
1.10533	17
1.10900	16
1.11267	14
1.11633	15
1.12000	17
1.12367	20
1.12733	22
1.13100	21
1.13467	21
1.13833	20
1.14200	21
1.14567	20
1.14933	20
1.15300	18
1.15667	18
1.16033	18
1.16400	18
1.16767	17
1.17133	18
1.17500	20
1.17867	19
1.18233	18
1.18600	17
1.18967	17
1.19333	17
1.19700	18
1.20067	21
1.20433	22
1.20800	24
1.21167	22
1.21533	21
1.21900	23
1.22267	22
1.22633	22
1.23000	21
1.23367	18
1.23733	16
1.24100	16
1.24467	17
1.24833	18
1.25200	19
1.25567	19
1.25933	20
1.26300	19
1.26667	18
1.27033	19
1.27400	20
1.27767	19
1.28133	19
1.28500	20
1.28867	23
1.29233	25
1.29600	26
1.29967	28
1.30333	30
1.30700	30
1.31067	27
1.31433	25
1.31800	24
1.32167	24
1.32533	24
1.32900	22
1.33267	22
1.33633	23
1.34000	22
1.34367	23
1.34733	25
1.35100	27
1.35467	29
1.35833	29
1.36200	30
1.36567	29
1.36933	28
1.37300	25
1.37667	24
1.38033	23
1.38400	23
1.38767	24
1.39133	24
1.39500	24
1.39867	22
1.40233	23
1.40600	22
1.40967	20
1.41333	19
1.41700	19
1.42067	20
1.42433	20
1.42800	22
1.43167	22
1.43533	23
1.43900	24
1.44267	25
1.44633	26
1.45000	25
1.45367	25
1.45733	25
1.46100	25
1.46467	26
1.46833	25
1.47200	24
1.47567	24
1.47933	24
1.48300	26
1.48667	26
1.49033	24
1.49400	24
1.49767	23
1.50133	23
1.50500	23
1.50867	22
1.51233	24
1.51600	25
1.51967	24
1.52333	23
1.52700	25
1.53067	27
1.53433	27
1.53800	26
1.54167	25
1.54533	24
1.54900	23
1.55267	22
1.55633	23
1.56000	24
1.56367	25
1.56733	24
1.57100	25
1.57467	28
1.57833	31
1.58200	32
1.58567	32
1.58933	31
1.59300	29
1.59667	29
1.60033	28
1.60400	28
1.60767	27
1.61133	26
1.61500	24
1.61867	23
1.62233	25
1.62600	28
1.62967	28
1.63333	27
1.63700	29
1.64067	29
1.64433	27
1.64800	27
1.65167	27
1.65533	29
1.65900	31
1.66267	31
1.66633	33
1.67000	33
1.67367	33
1.67733	33
1.68100	33
1.68467	33
1.68833	35
1.69200	36
1.69567	37
1.69933	37
1.70300	39
1.70667	40
1.71033	41
1.71400	42
1.71767	42
1.72133	43
1.72500	44
1.72867	44
1.73233	44
1.73600	43
1.73967	42
1.74333	41
1.74700	40
1.75067	39
1.75433	38
1.75800	39
1.76167	42
1.76533	45
1.76900	46
1.77267	47
1.77633	47
1.78000	48
1.78367	49
1.78733	49
1.79100	47
1.79467	47
1.79833	45
1.80200	44
1.80567	44
1.80933	44
1.81300	42
1.81667	43
1.82033	46
1.82400	49
1.82767	50
1.83133	50
1.83500	49
1.83867	48
1.84233	49
1.84600	50
1.84967	50
1.85333	50
1.85700	51
1.86067	51
1.86433	51
1.86800	54
1.87167	58
1.87533	60
1.87900	62
1.88267	63
1.88633	62
1.89000	59
1.89367	60
1.89733	62
1.90100	61
1.90467	62
1.90833	62
1.91200	65
1.91567	69
1.91933	71
1.92300	71
1.92667	70
1.93033	69
1.93400	70
1.93767	71
1.94133	72
1.94500	73
1.94867	74
1.95233	74
1.95600	74
1.95967	73
1.96333	72
1.96700	73
1.97067	74
1.97433	75
1.97800	76
1.98167	78
1.98533	80
1.98900	84
1.99267	85
1.99633	84
2.00000	84
2.00367	84
2.00733	84
2.01100	84
2.01467	83
2.01833	85
2.02200	85
2.02567	87
2.02933	90
2.03300	90
2.03667	93
2.04033	95
2.04400	96
2.04767	97
2.05133	98
2.05500	99
2.05867	100
2.06233	102
2.06600	102
2.06967	102
2.07333	102
2.07700	102
2.08067	101
2.08433	102
2.08800	104
2.09167	110
2.09533	115
2.09900	117
2.10267	118
2.10633	116
2.11000	115
2.11367	115
2.11733	114
2.12100	114
2.12467	114
2.12833	116
2.13200	115
2.13567	114
2.13933	113
2.14300	112
2.14667	111
2.15033	113
2.15400	114
2.15767	116
2.16133	117
2.16500	116
2.16867	117
2.17233	117
2.17600	115
2.17967	114
2.18333	116
2.18700	119
2.19067	121
2.19433	122
2.19800	121
2.20167	120
2.20533	119
2.20900	119
2.21267	120
2.21633	121
2.22000	122
2.22367	124
2.22733	124
2.23100	127
2.23467	128
2.23833	127
2.24200	128
2.24567	128
2.24933	129
2.25300	129
2.25667	130
2.26033	132
2.26400	134
2.26767	135
2.27133	133
2.27500	132
2.27867	131
2.28233	129
2.28600	129
2.28967	132
2.29333	135
2.29700	137
2.30067	137
2.30433	136
2.30800	136
2.31167	137
2.31533	138
2.31900	138
2.32267	139
2.32633	141
2.33000	141
2.33367	139
2.33733	139
2.34100	140
2.34467	141
2.34833	138
2.35200	135
2.35567	135
2.35933	135
2.36300	136
2.36667	138
2.37033	139
2.37400	138
2.37767	137
2.38133	134
2.38500	131
2.38867	131
2.39233	132
2.39600	134
2.39967	135
2.40333	135
2.40700	139
2.41067	141
2.41433	142
2.41800	145
2.42167	148
2.42533	149
2.42900	147
2.43267	145
2.43633	145
2.44000	151
2.44367	192
2.44733	274
2.45100	352
2.45467	411
2.45833	438
2.46200	433
2.46567	412
2.46933	392
2.47300	378
2.47667	366
2.48033	349
2.48400	324
2.48767	298
2.49133	272
2.49500	248
2.49867	230
2.50233	220
2.50600	215
2.50967	217
2.51333	222
2.51700	227
2.52067	230
2.52433	234
2.52800	234
2.53167	230
2.53533	221
2.53900	210
2.54267	199
2.54633	187
2.55000	175
2.55367	168
2.55733	161
2.56100	155
2.56467	147
2.56833	142
2.57200	139
2.57567	137
2.57933	138
2.58300	141
2.58667	142
2.59033	144
2.59400	147
2.59767	150
2.60133	154
2.60500	159
2.60867	165
2.61233	171
2.61600	174
2.61967	177
2.62333	179
2.62700	181
2.63067	179
2.63433	174
2.63800	169
2.64167	163
2.64533	156
2.64900	147
2.65267	139
2.65633	133
2.66000	128
2.66367	121
2.66733	115
2.67100	111
2.67467	104
2.67833	100
2.68200	96
2.68567	95
2.68933	95
2.69300	95
2.69667	95
2.70033	94
2.70400	93
2.70767	91
2.71133	92
2.71500	96
2.71867	97
2.72233	97
2.72600	97
2.72967	96
2.73333	95
2.73700	94
2.74067	96
2.74433	98
2.74800	101
2.75167	102
2.75533	103
2.75900	105
2.76267	106
2.76633	107
2.77000	108
2.77367	108
2.77733	108
2.78100	109
2.78467	109
2.78833	110
2.79200	114
2.79567	118
2.79933	122
2.80300	124
2.80667	126
2.81033	128
2.81400	132
2.81767	135
2.82133	136
2.82500	140
2.82867	142
2.83233	148
2.83600	161
2.83967	192
2.84333	256
2.84700	372
2.85067	563
2.85433	853
2.85800	1250
2.86167	1747
2.86533	2322
2.86900	2936
2.87267	3543
2.87633	4086
2.88000	4525
2.88367	4830
2.88733	4989
2.89100	4999
2.89467	4880
2.89833	4663
2.90200	4376
2.90567	4041
2.90933	3686
2.91300	3329
2.91667	2979
2.92033	2646
2.92400	2341
2.92767	2064
2.93133	1819
2.93500	1606
2.93867	1425
2.94233	1269
2.94600	1134
2.94967	1014
2.95333	909
2.95700	814
2.96067	730
2.96433	659
2.96800	601
2.97167	556
2.97533	523
2.97900	502
2.98267	485
2.98633	471
2.99000	462
2.99367	456
2.99733	451
3.00100	447
3.00467	446
3.00833	445
3.01200	444
3.01567	442
3.01933	441
3.02300	441
3.02667	441
3.03033	441
3.03400	440
3.03767	441
3.04133	442
3.04500	442
3.04867	441
3.05233	439
3.05600	437
3.05967	437
3.06333	439
3.06700	442
3.07067	442
3.07433	439
3.07800	438
3.08167	437
3.08533	436
3.08900	434
3.09267	436
3.09633	436
3.10000	435
3.10367	434
3.10733	433
3.11100	434
3.11467	435
3.11833	434
3.12200	433
3.12567	431
3.12933	429
3.13300	428
3.13667	429
3.14033	433
3.14400	434
3.14767	436
3.15133	435
3.15500	437
3.15867	439
3.16233	441
3.16600	444
3.16967	447
3.17333	451
3.17700	452
3.18067	453
3.18433	454
3.18800	455
3.19167	455
3.19533	457
3.19900	462
3.20267	465
3.20633	470
3.21000	475
3.21367	480
3.21733	482
3.22100	485
3.22467	486
3.22833	487
3.23200	487
3.23567	487
3.23933	489
3.24300	491
3.24667	491
3.25033	494
3.25400	497
3.25767	497
3.26133	500
3.26500	502
3.26867	504
3.27233	506
3.27600	503
3.27967	501
3.28333	500
3.28700	502
3.29067	505
3.29433	507
3.29800	507
3.30167	506
3.30533	504
3.30900	503
3.31267	501
3.31633	499
3.32000	497
3.32367	494
3.32733	492
3.33100	492
3.33467	490
3.33833	490
3.34200	488
3.34567	485
3.34933	483
3.35300	484
3.35667	482
3.36033	480
3.36400	478
3.36767	478
3.37133	477
3.37500	476
3.37867	475
3.38233	472
3.38600	470
3.38967	468
3.39333	467
3.39700	465
3.40067	463
3.40433	461
3.40800	461
3.41167	462
3.41533	460
3.41900	459
3.42267	459
3.42633	459
3.43000	457
3.43367	454
3.43733	450
3.44100	446
3.44467	445
3.44833	446
3.45200	446
3.45567	446
3.45933	445
3.46300	444
3.46667	442
3.47033	439
3.47400	438
3.47767	439
3.48133	439
3.48500	437
3.48867	434
3.49233	434
3.49600	434
3.49967	433
3.50333	431
3.50700	432
3.51067	431
3.51433	429
3.51800	428
3.52167	428
3.52533	428
3.52900	425
3.53267	424
3.53633	423
3.54000	421
3.54367	420
3.54733	419
3.55100	418
3.55467	417
3.55833	415
3.56200	414
3.56567	413
3.56933	411
3.57300	411
3.57667	410
3.58033	409
3.58400	407
3.58767	406
3.59133	405
3.59500	404
3.59867	401
3.60233	400
3.60600	400
3.60967	399
3.61333	397
3.61700	396
3.62067	396
3.62433	396
3.62800	395
3.63167	393
3.63533	390
3.63900	389
3.64267	389
3.64633	388
3.65000	388
3.65367	386
3.65733	382
3.66100	378
3.66467	377
3.66833	374
3.67200	371
3.67567	368
3.67933	364
3.68300	363
3.68667	366
3.69033	368
3.69400	369
3.69767	367
3.70133	364
3.70500	361
3.70867	358
3.71233	358
3.71600	359
3.71967	359
3.72333	357
3.72700	352
3.73067	350
3.73433	348
3.73800	348
3.74167	349
3.74533	347
3.74900	345
3.75267	343
3.75633	342
3.76000	340
3.76367	337
3.76733	334
3.77100	333
3.77467	331
3.77833	329
3.78200	327
3.78567	325
3.78933	322
3.79300	321
3.79667	321
3.80033	321
3.80400	321
3.80767	320
3.81133	316
3.81500	314
3.81867	313
3.82233	311
3.82600	308
3.82967	306
3.83333	303
3.83700	302
3.84067	299
3.84433	296
3.84800	294
3.85167	292
3.85533	289
3.85900	289
3.86267	289
3.86633	291
3.87000	292
3.87367	292
3.87733	292
3.88100	292
3.88467	292
3.88833	291
3.89200	291
3.89567	290
3.89933	287
3.90300	284
3.90667	283
3.91033	283
3.91400	283
3.91767	282
3.92133	282
3.92500	282
3.92867	283
3.93233	281
3.93600	280
3.93967	278
3.94333	276
3.94700	275
3.95067	274
3.95433	274
3.95800	275
3.96167	275
3.96533	277
3.96900	279
3.97267	277
3.97633	277
3.98000	274
3.98367	271
3.98733	271
3.99100	270
3.99467	270
3.99833	269

[Status Trace (Column Oven Temperature)]
Interval(msec)	1000
# of Points	240
Start Time(min)	0.016
End Time(min)	4.000
Intensity Units	
Intensity Multiplier	1
R.Time (min)	Intensity
0.01632	35.07
0.03298	35.06
0.04965	35.06
0.06632	35.04
0.08298	35.05
0.09965	35.05
0.11632	35.05
0.13298	35.04
0.14965	35.04
0.16632	35.03
0.18298	35.03
0.19965	35.02
0.21632	35.03
0.23298	35.02
0.24965	35.03
0.26632	35.03
0.28298	35.04
0.29965	35.03
0.31632	35.02
0.33298	35.00
0.34965	34.99
0.36632	34.99
0.38298	35.00
0.39965	35.01
0.41632	35.01
0.43298	35.00
0.44965	35.00
0.46632	35.01
0.48298	35.02
0.49965	35.03
0.51632	35.03
0.53298	35.05
0.54965	35.04
0.56632	35.04
0.58298	35.03
0.59965	35.02
0.61632	35.01
0.63298	35.01
0.64965	35.00
0.66632	35.00
0.68298	35.00
0.69965	35.01
0.71632	35.02
0.73298	35.02
0.74965	35.02
0.76632	35.01
0.78298	35.00
0.79965	35.00
0.81632	34.99
0.83298	34.98
0.84965	34.98
0.86632	34.99
0.88298	34.99
0.89965	34.99
0.91632	34.98
0.93298	34.98
0.94965	34.98
0.96632	34.99
0.98298	35.00
0.99965	34.99
1.01632	34.99
1.03298	34.99
1.04965	34.99
1.06632	35.00
1.08298	35.02
1.09965	35.01
1.11632	35.02
1.13298	35.02
1.14965	35.02
1.16632	35.02
1.18298	35.03
1.19965	35.01
1.21632	35.00
1.23298	34.98
1.24965	34.98
1.26632	34.97
1.28298	34.98
1.29965	34.98
1.31632	34.99
1.33298	34.99
1.34965	34.99
1.36632	35.00
1.38298	35.00
1.39965	35.01
1.41632	35.01
1.43298	35.01
1.44965	35.00
1.46632	35.00
1.48298	35.00
1.49965	34.99
1.51632	34.99
1.53298	35.00
1.54965	35.00
1.56632	34.99
1.58298	34.99
1.59965	35.01
1.61632	35.09
1.63298	35.25
1.64965	35.47
1.66632	35.77
1.68298	36.13
1.69965	36.50
1.71632	36.84
1.73298	37.15
1.74965	37.50
1.76632	37.83
1.78298	38.15
1.79965	38.49
1.81632	38.83
1.83298	39.17
1.84965	39.49
1.86632	39.82
1.88298	40.15
1.89965	40.48
1.91632	40.80
1.93298	41.12
1.94965	41.47
1.96632	41.80
1.98298	42.13
1.99965	42.44
2.01632	42.77
2.03298	43.10
2.04965	43.41
2.06632	43.73
2.08298	44.06
2.09965	44.39
2.11632	44.73
2.13298	45.06
2.14965	45.39
2.16632	45.72
2.18298	46.03
2.19965	46.35
2.21632	46.68
2.23298	47.00
2.24965	47.34
2.26632	47.66
2.28298	47.99
2.29965	48.32
2.31632	48.65
2.33298	48.98
2.34965	49.30
2.36632	49.51
2.38298	49.59
2.39965	49.60
2.41632	49.60
2.43298	49.61
2.44965	49.60
2.46632	49.63
2.48298	49.63
2.49965	49.64
2.51632	49.66
2.53298	49.66
2.54965	49.68
2.56632	49.70
2.58298	49.74
2.59965	49.75
2.61632	49.76
2.63298	49.78
2.64965	49.79
2.66632	49.80
2.68298	49.83
2.69965	49.83
2.71632	49.84
2.73298	49.87
2.74965	49.87
2.76632	49.87
2.78298	49.87
2.79965	49.86
2.81632	49.84
2.83298	49.85
2.84965	49.88
2.86632	49.89
2.88298	49.89
2.89965	49.90
2.91632	49.90
2.93298	49.91
2.94965	49.91
2.96632	49.92
2.98298	49.93
2.99965	49.93
3.01632	49.94
3.03298	49.96
3.04965	49.97
3.06632	49.99
3.08298	50.00
3.09965	50.01
3.11632	50.02
3.13298	50.05
3.14965	50.05
3.16632	50.04
3.18298	50.05
3.19965	50.05
3.21632	50.05
3.23298	50.06
3.24965	50.06
3.26632	50.06
3.28298	50.06
3.29965	50.07
3.31632	50.08
3.33298	50.08
3.34965	50.08
3.36632	50.09
3.38298	50.08
3.39965	50.09
3.41632	50.09
3.43298	50.11
3.44965	50.11
3.46632	50.10
3.48298	50.09
3.49965	50.07
3.51632	50.07
3.53298	50.07
3.54965	50.08
3.56632	50.08
3.58298	50.08
3.59965	50.08
3.61632	50.08
3.63298	50.08
3.64965	50.07
3.66632	50.08
3.68298	50.09
3.69965	50.09
3.71632	50.09
3.73298	50.10
3.74965	50.09
3.76632	50.09
3.78298	50.08
3.79965	50.07
3.81632	50.06
3.83298	50.05
3.84965	50.05
3.86632	50.05
3.88298	50.05
3.89965	50.05
3.91632	50.05
3.93298	50.05
3.94965	50.05
3.96632	50.05
3.98298	50.04
3.99965	50.05

[Status Trace (Injection Unit Temperature)]
Interval(msec)	1000
# of Points	240
Start Time(min)	0.016
End Time(min)	4.000
Intensity Units	
Intensity Multiplier	1
R.Time (min)	Intensity
0.01632	99.98
0.03298	99.98
0.04965	99.98
0.06632	99.98
0.08298	99.99
0.09965	99.98
0.11632	99.98
0.13298	99.98
0.14965	99.98
0.16632	99.98
0.18298	99.99
0.19965	99.99
0.21632	99.99
0.23298	99.99
0.24965	99.99
0.26632	99.99
0.28298	99.98
0.29965	99.99
0.31632	99.98
0.33298	99.98
0.34965	99.98
0.36632	99.99
0.38298	99.99
0.39965	99.99
0.41632	99.98
0.43298	99.99
0.44965	99.98
0.46632	99.98
0.48298	99.98
0.49965	99.99
0.51632	99.98
0.53298	99.99
0.54965	99.99
0.56632	99.98
0.58298	99.99
0.59965	99.98
0.61632	99.98
0.63298	99.99
0.64965	99.99
0.66632	99.99
0.68298	99.98
0.69965	99.99
0.71632	99.99
0.73298	99.98
0.74965	99.99
0.76632	99.99
0.78298	99.99
0.79965	99.98
0.81632	99.98
0.83298	99.99
0.84965	99.98
0.86632	99.99
0.88298	99.99
0.89965	99.99
0.91632	99.99
0.93298	99.99
0.94965	99.99
0.96632	99.99
0.98298	99.98
0.99965	99.98
1.01632	99.99
1.03298	99.99
1.04965	99.99
1.06632	99.99
1.08298	99.99
1.09965	99.98
1.11632	99.99
1.13298	99.99
1.14965	99.99
1.16632	99.99
1.18298	99.98
1.19965	99.98
1.21632	99.98
1.23298	99.98
1.24965	99.98
1.26632	99.99
1.28298	99.99
1.29965	99.98
1.31632	99.98
1.33298	99.99
1.34965	99.98
1.36632	99.99
1.38298	99.98
1.39965	99.98
1.41632	99.98
1.43298	99.99
1.44965	99.99
1.46632	99.98
1.48298	99.99
1.49965	99.99
1.51632	99.98
1.53298	99.98
1.54965	99.99
1.56632	99.99
1.58298	99.99
1.59965	99.99
1.61632	99.98
1.63298	99.99
1.64965	99.99
1.66632	99.99
1.68298	99.99
1.69965	99.99
1.71632	99.99
1.73298	99.99
1.74965	99.99
1.76632	99.99
1.78298	99.99
1.79965	99.99
1.81632	99.99
1.83298	99.99
1.84965	99.99
1.86632	99.99
1.88298	99.99
1.89965	99.98
1.91632	99.99
1.93298	99.99
1.94965	99.99
1.96632	99.98
1.98298	99.99
1.99965	99.98
2.01632	99.98
2.03298	99.98
2.04965	99.98
2.06632	99.98
2.08298	99.98
2.09965	99.98
2.11632	99.98
2.13298	99.98
2.14965	99.98
2.16632	99.98
2.18298	99.97
2.19965	99.97
2.21632	99.97
2.23298	99.97
2.24965	99.97
2.26632	99.97
2.28298	99.97
2.29965	99.97
2.31632	99.97
2.33298	99.96
2.34965	99.97
2.36632	99.97
2.38298	99.97
2.39965	99.97
2.41632	99.97
2.43298	99.96
2.44965	99.97
2.46632	99.97
2.48298	99.97
2.49965	99.97
2.51632	99.97
2.53298	99.96
2.54965	99.97
2.56632	99.97
2.58298	99.97
2.59965	99.97
2.61632	99.98
2.63298	99.98
2.64965	99.97
2.66632	99.97
2.68298	99.98
2.69965	99.98
2.71632	99.98
2.73298	99.98
2.74965	99.98
2.76632	99.99
2.78298	99.99
2.79965	99.99
2.81632	99.98
2.83298	99.99
2.84965	99.99
2.86632	99.99
2.88298	100.00
2.89965	100.00
2.91632	100.00
2.93298	100.00
2.94965	100.00
2.96632	100.01
2.98298	100.01
2.99965	100.01
3.01632	100.01
3.03298	100.01
3.04965	100.01
3.06632	100.01
3.08298	100.01
3.09965	100.02
3.11632	100.02
3.13298	100.02
3.14965	100.02
3.16632	100.02
3.18298	100.03
3.19965	100.02
3.21632	100.03
3.23298	100.03
3.24965	100.03
3.26632	100.03
3.28298	100.03
3.29965	100.03
3.31632	100.03
3.33298	100.04
3.34965	100.04
3.36632	100.04
3.38298	100.04
3.39965	100.04
3.41632	100.04
3.43298	100.04
3.44965	100.04
3.46632	100.04
3.48298	100.05
3.49965	100.05
3.51632	100.05
3.53298	100.05
3.54965	100.05
3.56632	100.05
3.58298	100.05
3.59965	100.05
3.61632	100.05
3.63298	100.05
3.64965	100.05
3.66632	100.05
3.68298	100.05
3.69965	100.05
3.71632	100.05
3.73298	100.05
3.74965	100.05
3.76632	100.05
3.78298	100.05
3.79965	100.05
3.81632	100.05
3.83298	100.06
3.84965	100.06
3.86632	100.05
3.88298	100.05
3.89965	100.06
3.91632	100.06
3.93298	100.06
3.94965	100.05
3.96632	100.05
3.98298	100.05
3.99965	100.05

[Status Trace (Carrier Gas Pressure)]
Interval(msec)	1000
# of Points	240
Start Time(min)	0.016
End Time(min)	4.000
Intensity Units	
Intensity Multiplier	1
R.Time (min)	Intensity
0.01632	56.92
0.03298	55.92
0.04965	58.35
0.06632	59.89
0.08298	58.41
0.09965	57.97
0.11632	58.00
0.13298	58.01
0.14965	58.01
0.16632	58.00
0.18298	58.00
0.19965	58.00
0.21632	58.00
0.23298	58.00
0.24965	58.00
0.26632	58.00
0.28298	58.00
0.29965	58.00
0.31632	58.00
0.33298	58.00
0.34965	58.00
0.36632	58.00
0.38298	58.00
0.39965	58.00
0.41632	58.00
0.43298	58.00
0.44965	58.00
0.46632	58.00
0.48298	58.00
0.49965	58.00
0.51632	58.00
0.53298	58.00
0.54965	58.00
0.56632	58.00
0.58298	58.00
0.59965	58.00
0.61632	58.00
0.63298	58.00
0.64965	58.00
0.66632	58.00
0.68298	58.00
0.69965	58.00
0.71632	58.00
0.73298	58.00
0.74965	58.00
0.76632	58.00
0.78298	58.00
0.79965	58.00
0.81632	58.00
0.83298	58.00
0.84965	58.00
0.86632	58.00
0.88298	58.00
0.89965	58.00
0.91632	58.00
0.93298	58.00
0.94965	58.00
0.96632	58.00
0.98298	58.00
0.99965	58.00
1.01632	58.00
1.03298	58.00
1.04965	58.00
1.06632	58.00
1.08298	58.00
1.09965	58.00
1.11632	58.00
1.13298	58.00
1.14965	58.00
1.16632	58.00
1.18298	58.00
1.19965	58.00
1.21632	58.00
1.23298	58.00
1.24965	58.00
1.26632	58.00
1.28298	58.00
1.29965	58.00
1.31632	58.00
1.33298	58.00
1.34965	58.00
1.36632	58.00
1.38298	58.00
1.39965	58.00
1.41632	58.00
1.43298	58.00
1.44965	58.00
1.46632	58.00
1.48298	58.00
1.49965	58.00
1.51632	58.00
1.53298	58.00
1.54965	58.00
1.56632	58.00
1.58298	58.00
1.59965	58.00
1.61632	58.00
1.63298	58.00
1.64965	58.00
1.66632	58.01
1.68298	58.01
1.69965	58.00
1.71632	58.00
1.73298	58.00
1.74965	58.00
1.76632	58.00
1.78298	58.00
1.79965	58.00
1.81632	58.00
1.83298	58.00
1.84965	58.00
1.86632	58.00
1.88298	58.00
1.89965	58.00
1.91632	58.00
1.93298	58.00
1.94965	58.00
1.96632	58.00
1.98298	58.00
1.99965	58.00
2.01632	58.00
2.03298	58.00
2.04965	58.00
2.06632	58.00
2.08298	58.00
2.09965	58.00
2.11632	58.00
2.13298	58.00
2.14965	58.00
2.16632	58.00
2.18298	58.00
2.19965	58.00
2.21632	58.00
2.23298	58.00
2.24965	58.00
2.26632	58.00
2.28298	58.00
2.29965	58.00
2.31632	58.00
2.33298	58.00
2.34965	58.00
2.36632	58.00
2.38298	57.99
2.39965	57.99
2.41632	58.00
2.43298	58.00
2.44965	58.00
2.46632	58.00
2.48298	58.00
2.49965	58.00
2.51632	57.99
2.53298	57.99
2.54965	58.00
2.56632	58.00
2.58298	58.00
2.59965	58.00
2.61632	58.00
2.63298	58.00
2.64965	58.00
2.66632	58.00
2.68298	58.00
2.69965	58.00
2.71632	58.00
2.73298	58.00
2.74965	58.00
2.76632	58.00
2.78298	58.00
2.79965	58.00
2.81632	58.00
2.83298	58.00
2.84965	58.00
2.86632	58.00
2.88298	58.00
2.89965	58.00
2.91632	58.00
2.93298	58.00
2.94965	58.00
2.96632	58.00
2.98298	58.00
2.99965	58.00
3.01632	58.00
3.03298	58.00
3.04965	58.00
3.06632	58.00
3.08298	58.00
3.09965	58.00
3.11632	58.00
3.13298	58.00
3.14965	58.00
3.16632	58.00
3.18298	58.00
3.19965	58.00
3.21632	58.00
3.23298	58.00
3.24965	58.00
3.26632	58.00
3.28298	58.00
3.29965	58.00
3.31632	58.00
3.33298	58.00
3.34965	58.00
3.36632	58.00
3.38298	58.00
3.39965	58.00
3.41632	58.00
3.43298	58.00
3.44965	58.00
3.46632	58.00
3.48298	58.00
3.49965	58.00
3.51632	58.00
3.53298	58.00
3.54965	58.00
3.56632	58.00
3.58298	58.00
3.59965	58.00
3.61632	58.00
3.63298	58.00
3.64965	58.00
3.66632	58.00
3.68298	58.00
3.69965	58.00
3.71632	58.00
3.73298	58.00
3.74965	58.00
3.76632	58.00
3.78298	58.00
3.79965	58.00
3.81632	58.00
3.83298	58.00
3.84965	58.00
3.86632	58.00
3.88298	58.00
3.89965	58.00
3.91632	58.00
3.93298	58.00
3.94965	58.00
3.96632	58.00
3.98298	58.00
3.99965	58.00

[Status Trace (Carrier Gas Flow)]
Interval(msec)	1000
# of Points	240
Start Time(min)	0.016
End Time(min)	4.000
Intensity Units	
Intensity Multiplier	1
R.Time (min)	Intensity
0.01632	33.81
0.03298	34.54
0.04965	34.55
0.06632	34.49
0.08298	34.51
0.09965	34.52
0.11632	34.52
0.13298	34.51
0.14965	34.52
0.16632	34.52
0.18298	34.52
0.19965	34.51
0.21632	34.52
0.23298	34.52
0.24965	34.52
0.26632	34.52
0.28298	34.52
0.29965	34.52
0.31632	34.52
0.33298	34.52
0.34965	34.52
0.36632	34.52
0.38298	34.51
0.39965	34.52
0.41632	34.52
0.43298	34.51
0.44965	34.51
0.46632	34.52
0.48298	34.52
0.49965	34.52
0.51632	34.52
0.53298	34.52
0.54965	34.52
0.56632	34.52
0.58298	34.52
0.59965	34.52
0.61632	34.52
0.63298	34.52
0.64965	34.52
0.66632	34.52
0.68298	34.52
0.69965	34.51
0.71632	34.53
0.73298	34.51
0.74965	34.53
0.76632	34.51
0.78298	34.52
0.79965	34.52
0.81632	34.52
0.83298	34.52
0.84965	34.53
0.86632	34.52
0.88298	34.52
0.89965	34.52
0.91632	34.52
0.93298	34.52
0.94965	34.52
0.96632	34.52
0.98298	34.52
0.99965	34.52
1.01632	34.52
1.03298	34.52
1.04965	34.51
1.06632	34.51
1.08298	34.52
1.09965	34.53
1.11632	34.52
1.13298	34.51
1.14965	34.52
1.16632	34.52
1.18298	34.52
1.19965	34.52
1.21632	34.52
1.23298	34.52
1.24965	34.52
1.26632	34.51
1.28298	34.53
1.29965	34.52
1.31632	34.52
1.33298	34.52
1.34965	34.52
1.36632	34.52
1.38298	34.51
1.39965	34.52
1.41632	34.52
1.43298	34.52
1.44965	34.52
1.46632	34.52
1.48298	34.52
1.49965	34.52
1.51632	34.51
1.53298	34.52
1.54965	34.52
1.56632	34.51
1.58298	34.51
1.59965	34.52
1.61632	34.52
1.63298	34.52
1.64965	34.51
1.66632	34.52
1.68298	34.52
1.69965	34.52
1.71632	34.52
1.73298	34.52
1.74965	34.52
1.76632	34.52
1.78298	34.52
1.79965	34.52
1.81632	34.52
1.83298	34.52
1.84965	34.52
1.86632	34.51
1.88298	34.52
1.89965	34.52
1.91632	34.52
1.93298	34.52
1.94965	34.52
1.96632	34.52
1.98298	34.52
1.99965	34.52
2.01632	34.51
2.03298	34.52
2.04965	34.52
2.06632	34.52
2.08298	34.51
2.09965	34.52
2.11632	34.52
2.13298	34.51
2.14965	34.51
2.16632	34.52
2.18298	34.52
2.19965	34.52
2.21632	34.52
2.23298	34.52
2.24965	34.52
2.26632	34.51
2.28298	34.52
2.29965	34.52
2.31632	34.52
2.33298	34.52
2.34965	34.52
2.36632	34.52
2.38298	34.52
2.39965	34.52
2.41632	34.52
2.43298	34.52
2.44965	34.52
2.46632	34.52
2.48298	34.52
2.49965	34.52
2.51632	34.51
2.53298	34.51
2.54965	34.52
2.56632	34.52
2.58298	34.51
2.59965	34.52
2.61632	34.52
2.63298	34.52
2.64965	34.51
2.66632	34.52
2.68298	34.53
2.69965	34.52
2.71632	34.52
2.73298	34.52
2.74965	34.52
2.76632	34.52
2.78298	34.51
2.79965	34.52
2.81632	34.52
2.83298	34.52
2.84965	34.51
2.86632	34.52
2.88298	34.52
2.89965	34.51
2.91632	34.52
2.93298	34.52
2.94965	34.52
2.96632	34.51
2.98298	34.53
2.99965	34.52
3.01632	34.52
3.03298	34.52
3.04965	34.51
3.06632	34.52
3.08298	34.52
3.09965	34.52
3.11632	34.52
3.13298	34.52
3.14965	34.52
3.16632	34.53
3.18298	34.52
3.19965	34.52
3.21632	34.51
3.23298	34.52
3.24965	34.52
3.26632	34.52
3.28298	34.52
3.29965	34.52
3.31632	34.52
3.33298	34.51
3.34965	34.52
3.36632	34.52
3.38298	34.52
3.39965	34.52
3.41632	34.52
3.43298	34.53
3.44965	34.51
3.46632	34.52
3.48298	34.52
3.49965	34.52
3.51632	34.52
3.53298	34.52
3.54965	34.52
3.56632	34.52
3.58298	34.51
3.59965	34.52
3.61632	34.52
3.63298	34.52
3.64965	34.51
3.66632	34.52
3.68298	34.51
3.69965	34.52
3.71632	34.52
3.73298	34.52
3.74965	34.52
3.76632	34.52
3.78298	34.52
3.79965	34.52
3.81632	34.51
3.83298	34.51
3.84965	34.51
3.86632	34.52
3.88298	34.51
3.89965	34.52
3.91632	34.52
3.93298	34.52
3.94965	34.51
3.96632	34.52
3.98298	34.51
3.99965	34.52

[Status Trace (Column Flow)]
Interval(msec)	1000
# of Points	240
Start Time(min)	0.016
End Time(min)	4.000
Intensity Units	
Intensity Multiplier	1
R.Time (min)	Intensity
0.01632	5.40
0.03298	5.29
0.04965	5.57
0.06632	5.75
0.08298	5.58
0.09965	5.53
0.11632	5.53
0.13298	5.53
0.14965	5.53
0.16632	5.53
0.18298	5.53
0.19965	5.53
0.21632	5.53
0.23298	5.53
0.24965	5.53
0.26632	5.53
0.28298	5.53
0.29965	5.53
0.31632	5.53
0.33298	5.53
0.34965	5.53
0.36632	5.53
0.38298	5.53
0.39965	5.53
0.41632	5.53
0.43298	5.53
0.44965	5.53
0.46632	5.53
0.48298	5.53
0.49965	5.53
0.51632	5.53
0.53298	5.53
0.54965	5.53
0.56632	5.53
0.58298	5.53
0.59965	5.53
0.61632	5.53
0.63298	5.53
0.64965	5.53
0.66632	5.53
0.68298	5.53
0.69965	5.53
0.71632	5.53
0.73298	5.53
0.74965	5.53
0.76632	5.53
0.78298	5.53
0.79965	5.53
0.81632	5.53
0.83298	5.53
0.84965	5.53
0.86632	5.53
0.88298	5.53
0.89965	5.53
0.91632	5.53
0.93298	5.53
0.94965	5.53
0.96632	5.53
0.98298	5.53
0.99965	5.53
1.01632	5.53
1.03298	5.53
1.04965	5.53
1.06632	5.53
1.08298	5.53
1.09965	5.53
1.11632	5.53
1.13298	5.53
1.14965	5.53
1.16632	5.53
1.18298	5.53
1.19965	5.53
1.21632	5.53
1.23298	5.53
1.24965	5.53
1.26632	5.53
1.28298	5.53
1.29965	5.53
1.31632	5.53
1.33298	5.53
1.34965	5.53
1.36632	5.53
1.38298	5.53
1.39965	5.53
1.41632	5.53
1.43298	5.53
1.44965	5.53
1.46632	5.53
1.48298	5.53
1.49965	5.53
1.51632	5.53
1.53298	5.53
1.54965	5.53
1.56632	5.53
1.58298	5.53
1.59965	5.53
1.61632	5.53
1.63298	5.52
1.64965	5.52
1.66632	5.51
1.68298	5.50
1.69965	5.48
1.71632	5.47
1.73298	5.46
1.74965	5.45
1.76632	5.44
1.78298	5.43
1.79965	5.42
1.81632	5.41
1.83298	5.40
1.84965	5.39
1.86632	5.38
1.88298	5.37
1.89965	5.36
1.91632	5.35
1.93298	5.34
1.94965	5.33
1.96632	5.32
1.98298	5.31
1.99965	5.30
2.01632	5.29
2.03298	5.28
2.04965	5.28
2.06632	5.27
2.08298	5.26
2.09965	5.25
2.11632	5.24
2.13298	5.23
2.14965	5.22
2.16632	5.21
2.18298	5.20
2.19965	5.19
2.21632	5.18
2.23298	5.17
2.24965	5.16
2.26632	5.15
2.28298	5.14
2.29965	5.13
2.31632	5.12
2.33298	5.12
2.34965	5.11
2.36632	5.10
2.38298	5.10
2.39965	5.10
2.41632	5.10
2.43298	5.10
2.44965	5.10
2.46632	5.10
2.48298	5.10
2.49965	5.10
2.51632	5.10
2.53298	5.10
2.54965	5.10
2.56632	5.10
2.58298	5.09
2.59965	5.09
2.61632	5.09
2.63298	5.09
2.64965	5.09
2.66632	5.09
2.68298	5.09
2.69965	5.09
2.71632	5.09
2.73298	5.09
2.74965	5.09
2.76632	5.09
2.78298	5.09
2.79965	5.09
2.81632	5.09
2.83298	5.09
2.84965	5.09
2.86632	5.09
2.88298	5.09
2.89965	5.09
2.91632	5.09
2.93298	5.09
2.94965	5.09
2.96632	5.09
2.98298	5.09
2.99965	5.09
3.01632	5.09
3.03298	5.09
3.04965	5.09
3.06632	5.09
3.08298	5.09
3.09965	5.09
3.11632	5.09
3.13298	5.09
3.14965	5.09
3.16632	5.09
3.18298	5.09
3.19965	5.09
3.21632	5.09
3.23298	5.09
3.24965	5.09
3.26632	5.09
3.28298	5.09
3.29965	5.09
3.31632	5.09
3.33298	5.08
3.34965	5.09
3.36632	5.08
3.38298	5.09
3.39965	5.08
3.41632	5.08
3.43298	5.08
3.44965	5.08
3.46632	5.08
3.48298	5.08
3.49965	5.09
3.51632	5.09
3.53298	5.09
3.54965	5.09
3.56632	5.09
3.58298	5.09
3.59965	5.09
3.61632	5.09
3.63298	5.09
3.64965	5.09
3.66632	5.09
3.68298	5.09
3.69965	5.08
3.71632	5.08
3.73298	5.08
3.74965	5.08
3.76632	5.08
3.78298	5.09
3.79965	5.09
3.81632	5.09
3.83298	5.09
3.84965	5.09
3.86632	5.09
3.88298	5.09
3.89965	5.09
3.91632	5.09
3.93298	5.09
3.94965	5.09
3.96632	5.09
3.98298	5.09
3.99965	5.09

[Status Trace (Linear Velocity)]
Interval(msec)	1000
# of Points	240
Start Time(min)	0.016
End Time(min)	4.000
Intensity Units	
Intensity Multiplier	1
R.Time (min)	Intensity
0.01632	38.30
0.03298	37.65
0.04965	39.24
0.06632	40.25
0.08298	39.28
0.09965	38.99
0.11632	39.01
0.13298	39.02
0.14965	39.02
0.16632	39.02
0.18298	39.02
0.19965	39.02
0.21632	39.02
0.23298	39.02
0.24965	39.02
0.26632	39.02
0.28298	39.02
0.29965	39.02
0.31632	39.02
0.33298	39.02
0.34965	39.02
0.36632	39.02
0.38298	39.02
0.39965	39.02
0.41632	39.02
0.43298	39.02
0.44965	39.02
0.46632	39.02
0.48298	39.02
0.49965	39.02
0.51632	39.02
0.53298	39.01
0.54965	39.01
0.56632	39.01
0.58298	39.02
0.59965	39.02
0.61632	39.02
0.63298	39.02
0.64965	39.02
0.66632	39.02
0.68298	39.02
0.69965	39.02
0.71632	39.02
0.73298	39.02
0.74965	39.02
0.76632	39.02
0.78298	39.02
0.79965	39.02
0.81632	39.02
0.83298	39.02
0.84965	39.02
0.86632	39.02
0.88298	39.02
0.89965	39.02
0.91632	39.02
0.93298	39.02
0.94965	39.02
0.96632	39.02
0.98298	39.02
0.99965	39.02
1.01632	39.02
1.03298	39.02
1.04965	39.02
1.06632	39.02
1.08298	39.02
1.09965	39.02
1.11632	39.02
1.13298	39.02
1.14965	39.02
1.16632	39.02
1.18298	39.02
1.19965	39.02
1.21632	39.02
1.23298	39.02
1.24965	39.02
1.26632	39.02
1.28298	39.02
1.29965	39.02
1.31632	39.02
1.33298	39.02
1.34965	39.02
1.36632	39.02
1.38298	39.02
1.39965	39.02
1.41632	39.02
1.43298	39.02
1.44965	39.02
1.46632	39.02
1.48298	39.02
1.49965	39.02
1.51632	39.02
1.53298	39.02
1.54965	39.02
1.56632	39.02
1.58298	39.02
1.59965	39.02
1.61632	39.01
1.63298	39.00
1.64965	38.98
1.66632	38.95
1.68298	38.91
1.69965	38.88
1.71632	38.84
1.73298	38.81
1.74965	38.78
1.76632	38.75
1.78298	38.72
1.79965	38.69
1.81632	38.65
1.83298	38.62
1.84965	38.59
1.86632	38.56
1.88298	38.53
1.89965	38.50
1.91632	38.47
1.93298	38.44
1.94965	38.41
1.96632	38.38
1.98298	38.35
1.99965	38.32
2.01632	38.29
2.03298	38.26
2.04965	38.23
2.06632	38.20
2.08298	38.17
2.09965	38.14
2.11632	38.11
2.13298	38.08
2.14965	38.05
2.16632	38.02
2.18298	37.99
2.19965	37.96
2.21632	37.93
2.23298	37.90
2.24965	37.87
2.26632	37.84
2.28298	37.81
2.29965	37.78
2.31632	37.75
2.33298	37.72
2.34965	37.70
2.36632	37.68
2.38298	37.67
2.39965	37.67
2.41632	37.67
2.43298	37.67
2.44965	37.67
2.46632	37.67
2.48298	37.67
2.49965	37.67
2.51632	37.66
2.53298	37.66
2.54965	37.66
2.56632	37.66
2.58298	37.66
2.59965	37.66
2.61632	37.66
2.63298	37.65
2.64965	37.65
2.66632	37.65
2.68298	37.65
2.69965	37.65
2.71632	37.65
2.73298	37.65
2.74965	37.65
2.76632	37.65
2.78298	37.65
2.79965	37.65
2.81632	37.65
2.83298	37.65
2.84965	37.65
2.86632	37.65
2.88298	37.64
2.89965	37.64
2.91632	37.64
2.93298	37.64
2.94965	37.64
2.96632	37.64
2.98298	37.64
2.99965	37.64
3.01632	37.64
3.03298	37.64
3.04965	37.64
3.06632	37.64
3.08298	37.63
3.09965	37.63
3.11632	37.63
3.13298	37.63
3.14965	37.63
3.16632	37.63
3.18298	37.63
3.19965	37.63
3.21632	37.63
3.23298	37.63
3.24965	37.63
3.26632	37.63
3.28298	37.63
3.29965	37.63
3.31632	37.63
3.33298	37.63
3.34965	37.63
3.36632	37.63
3.38298	37.63
3.39965	37.63
3.41632	37.63
3.43298	37.63
3.44965	37.63
3.46632	37.63
3.48298	37.63
3.49965	37.63
3.51632	37.63
3.53298	37.63
3.54965	37.63
3.56632	37.63
3.58298	37.63
3.59965	37.63
3.61632	37.63
3.63298	37.63
3.64965	37.63
3.66632	37.63
3.68298	37.63
3.69965	37.63
3.71632	37.63
3.73298	37.63
3.74965	37.63
3.76632	37.63
3.78298	37.63
3.79965	37.63
3.81632	37.63
3.83298	37.63
3.84965	37.63
3.86632	37.63
3.88298	37.63
3.89965	37.63
3.91632	37.63
3.93298	37.63
3.94965	37.63
3.96632	37.63
3.98298	37.63
3.99965	37.63

