[Header]
Application Name	LabSolutions
Version	5.110
Data File Name	C:\Users\User\Desktop\Junior\UIC Prairie Sampling\5.18.23\05182023_076.gcd
Output Date	6/5/2023
Output Time	2:17:29 PM

[File Information]
Type	Data File
Generated	5/24/2023 8:53:30 PM
Generated by	System Administrator
Modified	5/24/2023 9:01:01 PM
Modified by	System Administrator

[Sample Information]
Operator Name	System Administrator
Acquired	5/24/2023 8:57:00 PM
Sample Type	0:Unknown
Level	0
Sample Name	076
Sample ID	076
ISTD Amount1	1
ISTD Amount2	1
ISTD Amount3	1
ISTD Amount4	1
ISTD Amount5	1
ISTD Amount6	1
ISTD Amount7	1
ISTD Amount8	1
ISTD Amount9	1
ISTD Amount10	1
ISTD Amount11	1
ISTD Amount12	1
ISTD Amount13	1
ISTD Amount14	1
ISTD Amount15	1
ISTD Amount16	1
ISTD Amount17	1
ISTD Amount18	1
ISTD Amount19	1
ISTD Amount20	1
ISTD Amount21	1
ISTD Amount22	1
ISTD Amount23	1
ISTD Amount24	1
ISTD Amount25	1
ISTD Amount26	1
ISTD Amount27	1
ISTD Amount28	1
ISTD Amount29	1
ISTD Amount30	1
ISTD Amount31	1
ISTD Amount32	1
Sample Amount	1
Dilution Factor	1
Vial#	75
Injection Volume	1
Injection Count	1
Bar Code	

[Original Files]
Data File	C:\Users\User\Desktop\Junior\UIC Prairie Sampling\5.18.23\05182023_076.gcd
Method File	C:\LabSolutions\Data\GHG_4min_2022\ghg3_togas_w_acet_4 min_new_int.gcm
Batch File	C:\LabSolutions\Data\AutoSamplerTesting\05182023.gcb
Report Format File	c:\LabSolutions\System\DEFAULT.lsr

[File Description]


[Configuration]
Instrument Name	C0B7VH3-Instrument1
Instrument #	1
Line #	1
# of Detectors	3
Detector ID	DET#1	DET#2	DET#3
Detector Name	FID	PTCD	ECD
# of Channels	1	1	1

[Peak Table(Ch1)]
# of Peaks	4
Peak#	R.Time	I.Time	F.Time	Area	Height	A/H	Conc.	Mark	ID#	Name	k'	Plate #	Plate Ht.	Tailing	Resolution	Sep.Factor	Area Ratio	Height Ratio	Conc. %	Norm Conc.
1	1.472	1.432	1.527	4014	1964	2.044	0.000	   	1	CO	0.000	9404	15.950	1.237	0.000	0.000	0	0	0.000	0.000
2	1.564	1.527	1.626	4393	2210	1.988	21.417	 V 	2	CH4	0.062	11477	13.070	1.188	1.539	0.000	0	0	5.951	5.951
3	1.989	1.941	2.491	1756166	839633	2.092	338.445	   	3	CO2	0.351	17399	8.621	1.317	7.167	5.640	0	0	94.049	94.049
4	3.118	2.931	3.434	956	61	15.556	0.000	   	5	Acetylene	1.118	25815	5.811	1.346	16.373	3.184	0	0	0.000	0.000

[Peak Table(Ch2)]
# of Peaks	0

[Peak Table(Ch3)]
# of Peaks	4
Peak#	R.Time	I.Time	F.Time	Area	Height	A/H	Conc.	Mark	ID#	Name	k'	Plate #	Plate Ht.	Tailing	Resolution	Sep.Factor	Area Ratio	Height Ratio	Conc. %	Norm Conc.
1	2.502	2.433	2.539	3043	640	4.757	0.000	   			0.000	1283	116.934	0.000	0.000	0.000	0	0	0.000	0.000
2	2.565	2.539	2.667	3953	612	6.464	0.000	 V 			0.025	474	316.125	0.000	0.166	0.000	0	0	0.000	0.000
3	2.719	2.667	2.799	3342	455	7.337	0.000	 V 			0.086	124	1210.031	0.000	0.213	3.471	0	0	0.000	0.000
4	2.891	2.799	3.863	31273	5050	6.193	0.463	 V 	1	N2O	0.155	12022	12.477	0.000	0.318	1.797	0	0	100.000	100.000

[Compound Results(Ch1)]
# of IDs	6
ID#	Name	R.Time	Area	Height	Conc.	Curve	3rd	2nd	1st	Constant	Area Ratio	Height Ratio	Conc. %	Norm Conc.
1	CO	1.472	4014	1964	0.000	Linear	0.000000e+00	0.000000e+00	0.000000e+00	0.000000e+00	0	0	0.000	0.000
2	CH4	1.564	4393	2210	21.417	Linear	0.000000e+00	0.000000e+00	2.051179e+002	0.000000e+00	0	0	5.951	5.951
3	CO2	1.989	1756166	839633	338.445	Linear	0.000000e+00	0.000000e+00	5.188919e+003	0.000000e+00	0	0	94.049	94.049
4	Ethylene	0.000	0	0	0.000	Linear	0.000000e+00	0.000000e+00	0.000000e+00	0.000000e+00	0	0	0.000	0.000
5	Acetylene	3.118	956	61	0.000	Linear	0.000000e+00	0.000000e+00	0.000000e+00	0.000000e+00	0	0	0.000	0.000
6	Ethane	0.000	0	0	0.000	Linear	0.000000e+00	0.000000e+00	0.000000e+00	0.000000e+00	0	0	0.000	0.000

[Compound Results(Ch2)]
# of IDs	5
ID#	Name	R.Time	Area	Height	Conc.	Curve	3rd	2nd	1st	Constant	Area Ratio	Height Ratio	Conc. %	Norm Conc.
1	Hydrogen	0.000	0	0	0.000	Linear	0.000000e+00	0.000000e+00	0.000000e+00	0.000000e+00	0	0	0.000	0.000
2	Oxygen	0.000	0	0	0.000	Linear	0.000000e+00	0.000000e+00	0.000000e+00	0.000000e+00	0	0	0.000	0.000
3	Nitrogen	0.000	0	0	0.000	Linear	0.000000e+00	0.000000e+00	0.000000e+00	0.000000e+00	0	0	0.000	0.000
4	Methane	0.000	0	0	0.000	Linear	0.000000e+00	0.000000e+00	0.000000e+00	0.000000e+00	0	0	0.000	0.000
5	Carbon Monoxide	0.000	0	0	0.000	Linear	0.000000e+00	0.000000e+00	0.000000e+00	0.000000e+00	0	0	0.000	0.000

[Compound Results(Ch3)]
# of IDs	2
ID#	Name	R.Time	Area	Height	Conc.	Curve	3rd	2nd	1st	Constant	Area Ratio	Height Ratio	Conc. %	Norm Conc.
1	N2O	2.891	31273	5050	0.463	Linear	0.000000e+00	0.000000e+00	6.759880e+004	0.000000e+00	0	0	100.000	100.000
2	SF6	0.000	0	0	0.000	Linear	0.000000e+00	0.000000e+00	0.000000e+00	0.000000e+00	0	0	0.000	0.000

[Group Results(Ch1)]
# of Groups	0

[Group Results(Ch2)]
# of Groups	0

[Group Results(Ch3)]
# of Groups	0

[Chromatogram (Ch1)]
Interval(msec)	220
# of Points	1091
Start Time(min)	0.002
End Time(min)	3.998
R.Time (min)	Intensity
0.00167	18
0.00533	14
0.00900	10
0.01267	10
0.01633	11
0.02000	13
0.02367	16
0.02733	18
0.03100	21
0.03467	23
0.03833	26
0.04200	29
0.04567	27
0.04933	23
0.05300	21
0.05667	20
0.06033	19
0.06400	17
0.06767	14
0.07133	14
0.07500	20
0.07867	25
0.08233	26
0.08600	26
0.08967	25
0.09333	22
0.09700	18
0.10067	15
0.10433	12
0.10800	12
0.11167	12
0.11533	14
0.11900	17
0.12267	20
0.12633	24
0.13000	24
0.13367	21
0.13733	18
0.14100	14
0.14467	12
0.14833	13
0.15200	16
0.15567	17
0.15933	21
0.16300	25
0.16667	23
0.17033	21
0.17400	21
0.17767	19
0.18133	18
0.18500	19
0.18867	20
0.19233	25
0.19600	29
0.19967	33
0.20333	35
0.20700	31
0.21067	25
0.21433	20
0.21800	14
0.22167	8
0.22533	5
0.22900	5
0.23267	5
0.23633	5
0.24000	5
0.24367	7
0.24733	11
0.25100	17
0.25467	21
0.25833	19
0.26200	13
0.26567	9
0.26933	7
0.27300	5
0.27667	10
0.28033	17
0.28400	21
0.28767	19
0.29133	15
0.29500	12
0.29867	12
0.30233	11
0.30600	8
0.30967	4
0.31333	-0
0.31700	-5
0.32067	-8
0.32433	-11
0.32800	-11
0.33167	-9
0.33533	-6
0.33900	-1
0.34267	5
0.34633	10
0.35000	17
0.35367	25
0.35733	33
0.36100	37
0.36467	37
0.36833	35
0.37200	34
0.37567	29
0.37933	17
0.38300	2
0.38667	-10
0.39033	-18
0.39400	-20
0.39767	-17
0.40133	-8
0.40500	4
0.40867	10
0.41233	14
0.41600	17
0.41967	15
0.42333	8
0.42700	-2
0.43067	-8
0.43433	-8
0.43800	-2
0.44167	5
0.44533	10
0.44900	13
0.45267	12
0.45633	7
0.46000	3
0.46367	3
0.46733	5
0.47100	10
0.47467	16
0.47833	19
0.48200	17
0.48567	12
0.48933	4
0.49300	-2
0.49667	-2
0.50033	1
0.50400	1
0.50767	-1
0.51133	-2
0.51500	0
0.51867	6
0.52233	15
0.52600	22
0.52967	25
0.53333	25
0.53700	25
0.54067	24
0.54433	20
0.54800	12
0.55167	7
0.55533	2
0.55900	-3
0.56267	-4
0.56633	-2
0.57000	1
0.57367	3
0.57733	5
0.58100	5
0.58467	3
0.58833	0
0.59200	-4
0.59567	-9
0.59933	-12
0.60300	-10
0.60667	-6
0.61033	1
0.61400	7
0.61767	7
0.62133	3
0.62500	-0
0.62867	-5
0.63233	-8
0.63600	-6
0.63967	0
0.64333	6
0.64700	9
0.65067	10
0.65433	13
0.65800	14
0.66167	10
0.66533	2
0.66900	-4
0.67267	-4
0.67633	1
0.68000	7
0.68367	15
0.68733	20
0.69100	23
0.69467	25
0.69833	24
0.70200	21
0.70567	11
0.70933	-2
0.71300	-13
0.71667	-17
0.72033	-15
0.72400	-13
0.72767	-14
0.73133	-18
0.73500	-16
0.73867	-9
0.74233	-5
0.74600	-7
0.74967	-9
0.75333	-9
0.75700	-4
0.76067	-1
0.76433	2
0.76800	4
0.77167	7
0.77533	9
0.77900	7
0.78267	1
0.78633	-6
0.79000	-10
0.79367	-9
0.79733	-6
0.80100	-4
0.80467	-2
0.80833	2
0.81200	5
0.81567	9
0.81933	11
0.82300	13
0.82667	9
0.83033	3
0.83400	-5
0.83767	-15
0.84133	-17
0.84500	-13
0.84867	-11
0.85233	-7
0.85600	-3
0.85967	2
0.86333	13
0.86700	24
0.87067	28
0.87433	25
0.87800	20
0.88167	13
0.88533	2
0.88900	-12
0.89267	-22
0.89633	-25
0.90000	-22
0.90367	-16
0.90733	-10
0.91100	-9
0.91467	-16
0.91833	-22
0.92200	-23
0.92567	-22
0.92933	-21
0.93300	-21
0.93667	-20
0.94033	-18
0.94400	-18
0.94767	-18
0.95133	-16
0.95500	-13
0.95867	-10
0.96233	-9
0.96600	-12
0.96967	-18
0.97333	-24
0.97700	-26
0.98067	-25
0.98433	-22
0.98800	-18
0.99167	-14
0.99533	-13
0.99900	-13
1.00267	-11
1.00633	-10
1.01000	-13
1.01367	-18
1.01733	-23
1.02100	-24
1.02467	-24
1.02833	-22
1.03200	-18
1.03567	-19
1.03933	-22
1.04300	-20
1.04667	-13
1.05033	-3
1.05400	4
1.05767	8
1.06133	9
1.06500	8
1.06867	5
1.07233	0
1.07600	-5
1.07967	-8
1.08333	-12
1.08700	-11
1.09067	-8
1.09433	-10
1.09800	-15
1.10167	-19
1.10533	-17
1.10900	-17
1.11267	-23
1.11633	-33
1.12000	-43
1.12367	-48
1.12733	-51
1.13100	-51
1.13467	-48
1.13833	-46
1.14200	-41
1.14567	-34
1.14933	-27
1.15300	-23
1.15667	-20
1.16033	-18
1.16400	-15
1.16767	-11
1.17133	-9
1.17500	-13
1.17867	-17
1.18233	-17
1.18600	-13
1.18967	-10
1.19333	-11
1.19700	-14
1.20067	-16
1.20433	-16
1.20800	-16
1.21167	-12
1.21533	-5
1.21900	1
1.22267	5
1.22633	6
1.23000	-1
1.23367	-13
1.23733	-22
1.24100	-27
1.24467	-30
1.24833	-30
1.25200	-27
1.25567	-27
1.25933	-30
1.26300	-31
1.26667	-27
1.27033	-18
1.27400	-12
1.27767	-13
1.28133	-19
1.28500	-20
1.28867	-16
1.29233	-14
1.29600	-17
1.29967	-22
1.30333	-28
1.30700	-33
1.31067	-33
1.31433	-29
1.31800	-22
1.32167	-15
1.32533	-12
1.32900	-12
1.33267	-17
1.33633	-23
1.34000	-26
1.34367	-26
1.34733	-22
1.35100	-16
1.35467	-14
1.35833	-18
1.36200	-24
1.36567	-29
1.36933	-32
1.37300	-28
1.37667	-22
1.38033	-21
1.38400	-26
1.38767	-32
1.39133	-35
1.39500	-38
1.39867	-40
1.40233	-41
1.40600	-37
1.40967	-29
1.41333	-23
1.41700	-19
1.42067	-18
1.42433	-20
1.42800	-22
1.43167	-18
1.43533	-7
1.43900	19
1.44267	48
1.44633	111
1.45000	299
1.45367	623
1.45733	1000
1.46100	1350
1.46467	1637
1.46833	1843
1.47200	1939
1.47567	1898
1.47933	1716
1.48300	1435
1.48667	1123
1.49033	833
1.49400	596
1.49767	415
1.50133	280
1.50500	185
1.50867	118
1.51233	69
1.51600	34
1.51967	12
1.52333	1
1.52700	-6
1.53067	-5
1.53433	27
1.53800	152
1.54167	420
1.54533	814
1.54900	1249
1.55267	1638
1.55633	1938
1.56000	2123
1.56367	2169
1.56733	2053
1.57100	1785
1.57467	1429
1.57833	1065
1.58200	749
1.58567	504
1.58933	328
1.59300	210
1.59667	132
1.60033	80
1.60400	45
1.60767	22
1.61133	5
1.61500	-14
1.61867	-31
1.62233	-44
1.62600	-51
1.62967	-54
1.63333	-49
1.63700	-44
1.64067	-42
1.64433	-41
1.64800	-36
1.65167	-33
1.65533	-34
1.65900	-36
1.66267	-36
1.66633	-32
1.67000	-34
1.67367	-43
1.67733	-59
1.68100	-75
1.68467	-89
1.68833	-94
1.69200	-97
1.69567	-99
1.69933	-94
1.70300	-89
1.70667	-84
1.71033	-77
1.71400	-69
1.71767	-64
1.72133	-63
1.72500	-62
1.72867	-61
1.73233	-58
1.73600	-56
1.73967	-55
1.74333	-52
1.74700	-47
1.75067	-43
1.75433	-43
1.75800	-45
1.76167	-48
1.76533	-51
1.76900	-53
1.77267	-57
1.77633	-62
1.78000	-65
1.78367	-64
1.78733	-59
1.79100	-53
1.79467	-50
1.79833	-50
1.80200	-52
1.80567	-52
1.80933	-52
1.81300	-56
1.81667	-63
1.82033	-70
1.82400	-71
1.82767	-64
1.83133	-52
1.83500	-42
1.83867	-42
1.84233	-42
1.84600	-37
1.84967	-32
1.85333	-35
1.85700	-40
1.86067	-43
1.86433	-46
1.86800	-46
1.87167	-43
1.87533	-39
1.87900	-39
1.88267	-40
1.88633	-41
1.89000	-46
1.89367	-54
1.89733	-59
1.90100	-59
1.90467	-60
1.90833	-59
1.91200	-56
1.91567	-54
1.91933	-52
1.92300	-49
1.92667	-45
1.93033	-41
1.93400	-37
1.93767	-31
1.94133	-27
1.94500	-11
1.94867	97
1.95233	739
1.95600	3859
1.95967	15257
1.96333	46804
1.96700	114116
1.97067	226386
1.97433	375423
1.97800	536987
1.98167	682467
1.98533	788383
1.98900	839639
1.99267	830165
1.99633	764748
2.00000	658850
2.00367	534067
2.00733	410880
2.01100	303245
2.01467	217193
2.01833	152672
2.02200	106424
2.02567	74260
2.02933	52305
2.03300	37462
2.03667	27451
2.04033	20666
2.04400	16017
2.04767	12780
2.05133	10481
2.05500	8806
2.05867	7553
2.06233	6593
2.06600	5843
2.06967	5239
2.07333	4743
2.07700	4328
2.08067	3971
2.08433	3661
2.08800	3395
2.09167	3164
2.09533	2961
2.09900	2782
2.10267	2624
2.10633	2482
2.11000	2353
2.11367	2234
2.11733	2124
2.12100	2024
2.12467	1933
2.12833	1851
2.13200	1771
2.13567	1695
2.13933	1624
2.14300	1559
2.14667	1498
2.15033	1442
2.15400	1388
2.15767	1341
2.16133	1303
2.16500	1268
2.16867	1231
2.17233	1191
2.17600	1151
2.17967	1115
2.18333	1082
2.18700	1053
2.19067	1025
2.19433	1000
2.19800	976
2.20167	952
2.20533	932
2.20900	912
2.21267	891
2.21633	864
2.22000	831
2.22367	801
2.22733	779
2.23100	763
2.23467	754
2.23833	747
2.24200	738
2.24567	729
2.24933	718
2.25300	707
2.25667	688
2.26033	666
2.26400	648
2.26767	634
2.27133	624
2.27500	617
2.27867	610
2.28233	601
2.28600	593
2.28967	584
2.29333	570
2.29700	556
2.30067	547
2.30433	539
2.30800	531
2.31167	525
2.31533	522
2.31900	520
2.32267	520
2.32633	520
2.33000	516
2.33367	506
2.33733	500
2.34100	496
2.34467	488
2.34833	478
2.35200	469
2.35567	466
2.35933	470
2.36300	475
2.36667	473
2.37033	464
2.37400	455
2.37767	445
2.38133	436
2.38500	425
2.38867	413
2.39233	403
2.39600	399
2.39967	396
2.40333	394
2.40700	395
2.41067	399
2.41433	404
2.41800	407
2.42167	409
2.42533	411
2.42900	408
2.43267	402
2.43633	395
2.44000	393
2.44367	394
2.44733	392
2.45100	387
2.45467	382
2.45833	378
2.46200	374
2.46567	371
2.46933	369
2.47300	369
2.47667	366
2.48033	364
2.48400	363
2.48767	360
2.49133	360
2.49500	360
2.49867	360
2.50233	359
2.50600	360
2.50967	360
2.51333	356
2.51700	353
2.52067	352
2.52433	353
2.52800	354
2.53167	355
2.53533	359
2.53900	366
2.54267	369
2.54633	366
2.55000	361
2.55367	355
2.55733	350
2.56100	344
2.56467	336
2.56833	329
2.57200	325
2.57567	323
2.57933	326
2.58300	331
2.58667	337
2.59033	343
2.59400	347
2.59767	346
2.60133	342
2.60500	338
2.60867	334
2.61233	332
2.61600	334
2.61967	338
2.62333	342
2.62700	344
2.63067	343
2.63433	341
2.63800	339
2.64167	342
2.64533	347
2.64900	347
2.65267	340
2.65633	336
2.66000	336
2.66367	336
2.66733	334
2.67100	332
2.67467	335
2.67833	341
2.68200	346
2.68567	347
2.68933	346
2.69300	343
2.69667	341
2.70033	337
2.70400	336
2.70767	337
2.71133	337
2.71500	337
2.71867	339
2.72233	343
2.72600	347
2.72967	347
2.73333	343
2.73700	337
2.74067	333
2.74433	336
2.74800	340
2.75167	346
2.75533	352
2.75900	352
2.76267	350
2.76633	349
2.77000	347
2.77367	346
2.77733	345
2.78100	343
2.78467	344
2.78833	345
2.79200	346
2.79567	346
2.79933	343
2.80300	343
2.80667	344
2.81033	346
2.81400	350
2.81767	353
2.82133	357
2.82500	366
2.82867	377
2.83233	384
2.83600	388
2.83967	386
2.84333	379
2.84700	371
2.85067	365
2.85433	359
2.85800	355
2.86167	355
2.86533	355
2.86900	355
2.87267	358
2.87633	363
2.88000	369
2.88367	376
2.88733	381
2.89100	380
2.89467	376
2.89833	375
2.90200	379
2.90567	383
2.90933	382
2.91300	375
2.91667	367
2.92033	363
2.92400	361
2.92767	360
2.93133	364
2.93500	373
2.93867	383
2.94233	391
2.94600	397
2.94967	395
2.95333	388
2.95700	385
2.96067	386
2.96433	388
2.96800	388
2.97167	387
2.97533	384
2.97900	382
2.98267	379
2.98633	381
2.99000	385
2.99367	390
2.99733	396
3.00100	403
3.00467	410
3.00833	414
3.01200	414
3.01567	414
3.01933	413
3.02300	411
3.02667	412
3.03033	414
3.03400	413
3.03767	405
3.04133	394
3.04500	385
3.04867	381
3.05233	380
3.05600	384
3.05967	392
3.06333	400
3.06700	406
3.07067	410
3.07433	409
3.07800	407
3.08167	408
3.08533	408
3.08900	405
3.09267	402
3.09633	401
3.10000	401
3.10367	400
3.10733	401
3.11100	409
3.11467	421
3.11833	427
3.12200	426
3.12567	421
3.12933	414
3.13300	407
3.13667	402
3.14033	398
3.14400	397
3.14767	397
3.15133	397
3.15500	395
3.15867	394
3.16233	392
3.16600	391
3.16967	388
3.17333	383
3.17700	379
3.18067	379
3.18433	381
3.18800	387
3.19167	392
3.19533	393
3.19900	391
3.20267	389
3.20633	387
3.21000	386
3.21367	386
3.21733	389
3.22100	397
3.22467	405
3.22833	409
3.23200	405
3.23567	401
3.23933	401
3.24300	406
3.24667	415
3.25033	422
3.25400	424
3.25767	421
3.26133	414
3.26500	409
3.26867	405
3.27233	407
3.27600	412
3.27967	417
3.28333	417
3.28700	410
3.29067	398
3.29433	387
3.29800	386
3.30167	393
3.30533	405
3.30900	413
3.31267	412
3.31633	407
3.32000	403
3.32367	406
3.32733	410
3.33100	407
3.33467	401
3.33833	393
3.34200	390
3.34567	387
3.34933	382
3.35300	379
3.35667	379
3.36033	386
3.36400	397
3.36767	404
3.37133	401
3.37500	393
3.37867	385
3.38233	382
3.38600	386
3.38967	389
3.39333	389
3.39700	387
3.40067	389
3.40433	396
3.40800	403
3.41167	409
3.41533	411
3.41900	410
3.42267	405
3.42633	393
3.43000	380
3.43367	369
3.43733	363
3.44100	359
3.44467	356
3.44833	358
3.45200	364
3.45567	371
3.45933	375
3.46300	375
3.46667	371
3.47033	367
3.47400	363
3.47767	364
3.48133	367
3.48500	368
3.48867	366
3.49233	364
3.49600	364
3.49967	367
3.50333	377
3.50700	389
3.51067	398
3.51433	404
3.51800	402
3.52167	395
3.52533	389
3.52900	382
3.53267	372
3.53633	366
3.54000	366
3.54367	372
3.54733	373
3.55100	374
3.55467	376
3.55833	376
3.56200	375
3.56567	374
3.56933	377
3.57300	379
3.57667	375
3.58033	370
3.58400	366
3.58767	362
3.59133	363
3.59500	371
3.59867	381
3.60233	386
3.60600	382
3.60967	376
3.61333	369
3.61700	362
3.62067	355
3.62433	350
3.62800	350
3.63167	355
3.63533	361
3.63900	366
3.64267	366
3.64633	362
3.65000	360
3.65367	359
3.65733	356
3.66100	353
3.66467	343
3.66833	333
3.67200	326
3.67567	324
3.67933	326
3.68300	330
3.68667	336
3.69033	344
3.69400	354
3.69767	360
3.70133	363
3.70500	363
3.70867	361
3.71233	360
3.71600	357
3.71967	355
3.72333	351
3.72700	347
3.73067	346
3.73433	344
3.73800	341
3.74167	338
3.74533	336
3.74900	335
3.75267	334
3.75633	332
3.76000	332
3.76367	333
3.76733	336
3.77100	341
3.77467	346
3.77833	351
3.78200	353
3.78567	352
3.78933	345
3.79300	340
3.79667	337
3.80033	337
3.80400	340
3.80767	344
3.81133	349
3.81500	351
3.81867	350
3.82233	350
3.82600	345
3.82967	336
3.83333	327
3.83700	320
3.84067	317
3.84433	320
3.84800	325
3.85167	327
3.85533	329
3.85900	327
3.86267	318
3.86633	310
3.87000	308
3.87367	312
3.87733	317
3.88100	321
3.88467	326
3.88833	329
3.89200	331
3.89567	336
3.89933	343
3.90300	348
3.90667	351
3.91033	350
3.91400	344
3.91767	335
3.92133	329
3.92500	324
3.92867	318
3.93233	314
3.93600	311
3.93967	312
3.94333	317
3.94700	325
3.95067	332
3.95433	337
3.95800	342
3.96167	347
3.96533	350
3.96900	350
3.97267	346
3.97633	342
3.98000	343
3.98367	345
3.98733	346
3.99100	342
3.99467	335
3.99833	324

[Chromatogram (Ch2)]
Interval(msec)	220
# of Points	1091
Start Time(min)	0.002
End Time(min)	3.998
R.Time (min)	Intensity
0.00167	0
0.00533	0
0.00900	1
0.01267	1
0.01633	1
0.02000	2
0.02367	2
0.02733	2
0.03100	3
0.03467	3
0.03833	3
0.04200	3
0.04567	3
0.04933	4
0.05300	4
0.05667	4
0.06033	5
0.06400	5
0.06767	5
0.07133	5
0.07500	4
0.07867	4
0.08233	4
0.08600	4
0.08967	4
0.09333	4
0.09700	4
0.10067	4
0.10433	4
0.10800	4
0.11167	4
0.11533	4
0.11900	4
0.12267	3
0.12633	3
0.13000	3
0.13367	2
0.13733	2
0.14100	2
0.14467	2
0.14833	1
0.15200	1
0.15567	1
0.15933	1
0.16300	0
0.16667	0
0.17033	0
0.17400	-0
0.17767	-1
0.18133	-1
0.18500	-1
0.18867	-1
0.19233	-1
0.19600	-1
0.19967	-1
0.20333	-1
0.20700	-1
0.21067	-1
0.21433	-1
0.21800	-1
0.22167	-0
0.22533	-0
0.22900	0
0.23267	0
0.23633	1
0.24000	1
0.24367	1
0.24733	1
0.25100	0
0.25467	0
0.25833	0
0.26200	0
0.26567	0
0.26933	0
0.27300	1
0.27667	1
0.28033	1
0.28400	1
0.28767	1
0.29133	1
0.29500	1
0.29867	1
0.30233	1
0.30600	1
0.30967	1
0.31333	1
0.31700	1
0.32067	1
0.32433	1
0.32800	1
0.33167	1
0.33533	1
0.33900	1
0.34267	0
0.34633	0
0.35000	0
0.35367	-0
0.35733	-0
0.36100	-0
0.36467	-0
0.36833	-0
0.37200	-0
0.37567	-0
0.37933	-0
0.38300	-0
0.38667	-0
0.39033	-0
0.39400	-0
0.39767	-0
0.40133	-0
0.40500	-0
0.40867	-1
0.41233	-1
0.41600	-1
0.41967	-2
0.42333	-2
0.42700	-2
0.43067	-2
0.43433	-3
0.43800	-3
0.44167	-3
0.44533	-3
0.44900	-3
0.45267	-3
0.45633	-3
0.46000	-3
0.46367	-4
0.46733	-4
0.47100	-4
0.47467	-4
0.47833	-4
0.48200	-4
0.48567	-4
0.48933	-4
0.49300	-4
0.49667	-4
0.50033	-4
0.50400	-4
0.50767	-4
0.51133	-4
0.51500	-4
0.51867	-3
0.52233	-3
0.52600	-3
0.52967	-3
0.53333	-3
0.53700	-3
0.54067	-3
0.54433	-3
0.54800	-2
0.55167	-2
0.55533	-2
0.55900	-2
0.56267	-2
0.56633	-1
0.57000	-1
0.57367	-1
0.57733	-1
0.58100	-1
0.58467	-1
0.58833	-1
0.59200	-1
0.59567	-2
0.59933	-1
0.60300	-1
0.60667	-1
0.61033	-1
0.61400	-1
0.61767	-1
0.62133	-1
0.62500	-1
0.62867	-1
0.63233	-1
0.63600	-1
0.63967	-2
0.64333	-2
0.64700	-2
0.65067	-2
0.65433	-3
0.65800	-3
0.66167	-3
0.66533	-2
0.66900	-2
0.67267	-2
0.67633	-2
0.68000	-1
0.68367	-1
0.68733	-1
0.69100	-1
0.69467	-0
0.69833	-0
0.70200	0
0.70567	0
0.70933	0
0.71300	0
0.71667	0
0.72033	0
0.72400	-0
0.72767	-0
0.73133	-0
0.73500	-1
0.73867	-1
0.74233	-1
0.74600	-1
0.74967	-1
0.75333	-1
0.75700	-1
0.76067	-2
0.76433	-2
0.76800	-2
0.77167	-2
0.77533	-2
0.77900	-3
0.78267	-3
0.78633	-3
0.79000	-3
0.79367	-3
0.79733	-4
0.80100	-4
0.80467	-5
0.80833	-5
0.81200	-5
0.81567	-5
0.81933	-5
0.82300	-5
0.82667	-5
0.83033	-4
0.83400	-4
0.83767	-3
0.84133	-3
0.84500	-2
0.84867	-2
0.85233	-1
0.85600	-1
0.85967	-1
0.86333	-1
0.86700	-1
0.87067	-0
0.87433	-0
0.87800	0
0.88167	0
0.88533	0
0.88900	-0
0.89267	-1
0.89633	-1
0.90000	-1
0.90367	-1
0.90733	-1
0.91100	-2
0.91467	-2
0.91833	-2
0.92200	-2
0.92567	-3
0.92933	-3
0.93300	-3
0.93667	-3
0.94033	-3
0.94400	-3
0.94767	-3
0.95133	-3
0.95500	-3
0.95867	-3
0.96233	-3
0.96600	-3
0.96967	-3
0.97333	-3
0.97700	-2
0.98067	-2
0.98433	-2
0.98800	-2
0.99167	-1
0.99533	-1
0.99900	-1
1.00267	-1
1.00633	-1
1.01000	-1
1.01367	-1
1.01733	-1
1.02100	-1
1.02467	-0
1.02833	-0
1.03200	-0
1.03567	-0
1.03933	-1
1.04300	-1
1.04667	-1
1.05033	-1
1.05400	-1
1.05767	-1
1.06133	-1
1.06500	-2
1.06867	-2
1.07233	-2
1.07600	-2
1.07967	-2
1.08333	-2
1.08700	-2
1.09067	-2
1.09433	-2
1.09800	-2
1.10167	-2
1.10533	-2
1.10900	-2
1.11267	-3
1.11633	-3
1.12000	-3
1.12367	-4
1.12733	-4
1.13100	-4
1.13467	-4
1.13833	-4
1.14200	-4
1.14567	-4
1.14933	-4
1.15300	-4
1.15667	-4
1.16033	-4
1.16400	-3
1.16767	-3
1.17133	-3
1.17500	-3
1.17867	-3
1.18233	-2
1.18600	-2
1.18967	-2
1.19333	-2
1.19700	-2
1.20067	-2
1.20433	-2
1.20800	-2
1.21167	-2
1.21533	-3
1.21900	-3
1.22267	-3
1.22633	-4
1.23000	-4
1.23367	-4
1.23733	-4
1.24100	-4
1.24467	-4
1.24833	-4
1.25200	-4
1.25567	-4
1.25933	-3
1.26300	-3
1.26667	-3
1.27033	-3
1.27400	-3
1.27767	-3
1.28133	-3
1.28500	-3
1.28867	-3
1.29233	-3
1.29600	-3
1.29967	-3
1.30333	-3
1.30700	-3
1.31067	-3
1.31433	-3
1.31800	-3
1.32167	-3
1.32533	-4
1.32900	-4
1.33267	-4
1.33633	-4
1.34000	-5
1.34367	-5
1.34733	-5
1.35100	-5
1.35467	-5
1.35833	-5
1.36200	-5
1.36567	-5
1.36933	-4
1.37300	-4
1.37667	-4
1.38033	-4
1.38400	-3
1.38767	-3
1.39133	-3
1.39500	-3
1.39867	-3
1.40233	-3
1.40600	-4
1.40967	-4
1.41333	-4
1.41700	-4
1.42067	-4
1.42433	-4
1.42800	-5
1.43167	-5
1.43533	-5
1.43900	-5
1.44267	-5
1.44633	-5
1.45000	-5
1.45367	-5
1.45733	-5
1.46100	-6
1.46467	-6
1.46833	-6
1.47200	-5
1.47567	-5
1.47933	-5
1.48300	-5
1.48667	-5
1.49033	-5
1.49400	-5
1.49767	-5
1.50133	-5
1.50500	-5
1.50867	-4
1.51233	-4
1.51600	-4
1.51967	-4
1.52333	-4
1.52700	-4
1.53067	-4
1.53433	-4
1.53800	-4
1.54167	-3
1.54533	-4
1.54900	-4
1.55267	-4
1.55633	-4
1.56000	-4
1.56367	-4
1.56733	-4
1.57100	-3
1.57467	-4
1.57833	-4
1.58200	-4
1.58567	-4
1.58933	-4
1.59300	-4
1.59667	-5
1.60033	-6
1.60400	-7
1.60767	-8
1.61133	-9
1.61500	-11
1.61867	-13
1.62233	-16
1.62600	-18
1.62967	-22
1.63333	-25
1.63700	-29
1.64067	-32
1.64433	-36
1.64800	-39
1.65167	-43
1.65533	-46
1.65900	-49
1.66267	-53
1.66633	-57
1.67000	-61
1.67367	-66
1.67733	-71
1.68100	-75
1.68467	-80
1.68833	-84
1.69200	-87
1.69567	-90
1.69933	-92
1.70300	-94
1.70667	-96
1.71033	-97
1.71400	-98
1.71767	-99
1.72133	-99
1.72500	-100
1.72867	-101
1.73233	-102
1.73600	-102
1.73967	-103
1.74333	-104
1.74700	-104
1.75067	-104
1.75433	-104
1.75800	-103
1.76167	-103
1.76533	-102
1.76900	-102
1.77267	-102
1.77633	-101
1.78000	-102
1.78367	-102
1.78733	-103
1.79100	-104
1.79467	-105
1.79833	-106
1.80200	-106
1.80567	-107
1.80933	-107
1.81300	-107
1.81667	-107
1.82033	-108
1.82400	-108
1.82767	-109
1.83133	-109
1.83500	-110
1.83867	-110
1.84233	-110
1.84600	-110
1.84967	-109
1.85333	-109
1.85700	-108
1.86067	-108
1.86433	-108
1.86800	-108
1.87167	-108
1.87533	-107
1.87900	-107
1.88267	-107
1.88633	-107
1.89000	-107
1.89367	-107
1.89733	-107
1.90100	-107
1.90467	-107
1.90833	-107
1.91200	-106
1.91567	-106
1.91933	-105
1.92300	-105
1.92667	-104
1.93033	-104
1.93400	-103
1.93767	-102
1.94133	-102
1.94500	-101
1.94867	-101
1.95233	-101
1.95600	-102
1.95967	-102
1.96333	-102
1.96700	-102
1.97067	-102
1.97433	-102
1.97800	-102
1.98167	-102
1.98533	-101
1.98900	-101
1.99267	-100
1.99633	-100
2.00000	-99
2.00367	-99
2.00733	-99
2.01100	-98
2.01467	-98
2.01833	-98
2.02200	-98
2.02567	-98
2.02933	-98
2.03300	-98
2.03667	-98
2.04033	-98
2.04400	-98
2.04767	-97
2.05133	-96
2.05500	-95
2.05867	-95
2.06233	-94
2.06600	-94
2.06967	-94
2.07333	-94
2.07700	-94
2.08067	-94
2.08433	-94
2.08800	-94
2.09167	-94
2.09533	-94
2.09900	-93
2.10267	-93
2.10633	-93
2.11000	-93
2.11367	-93
2.11733	-92
2.12100	-92
2.12467	-92
2.12833	-91
2.13200	-90
2.13567	-90
2.13933	-89
2.14300	-89
2.14667	-88
2.15033	-88
2.15400	-87
2.15767	-87
2.16133	-86
2.16500	-86
2.16867	-85
2.17233	-85
2.17600	-85
2.17967	-85
2.18333	-85
2.18700	-85
2.19067	-85
2.19433	-85
2.19800	-84
2.20167	-84
2.20533	-83
2.20900	-83
2.21267	-83
2.21633	-82
2.22000	-82
2.22367	-82
2.22733	-82
2.23100	-82
2.23467	-82
2.23833	-82
2.24200	-81
2.24567	-81
2.24933	-80
2.25300	-80
2.25667	-79
2.26033	-79
2.26400	-78
2.26767	-78
2.27133	-78
2.27500	-78
2.27867	-79
2.28233	-79
2.28600	-80
2.28967	-80
2.29333	-80
2.29700	-80
2.30067	-79
2.30433	-78
2.30800	-78
2.31167	-77
2.31533	-76
2.31900	-75
2.32267	-75
2.32633	-75
2.33000	-76
2.33367	-76
2.33733	-77
2.34100	-76
2.34467	-75
2.34833	-74
2.35200	-72
2.35567	-70
2.35933	-68
2.36300	-66
2.36667	-63
2.37033	-61
2.37400	-58
2.37767	-54
2.38133	-51
2.38500	-47
2.38867	-43
2.39233	-38
2.39600	-34
2.39967	-30
2.40333	-26
2.40700	-22
2.41067	-18
2.41433	-15
2.41800	-13
2.42167	-11
2.42533	-9
2.42900	-7
2.43267	-5
2.43633	-3
2.44000	-2
2.44367	-0
2.44733	1
2.45100	2
2.45467	3
2.45833	4
2.46200	4
2.46567	5
2.46933	6
2.47300	7
2.47667	8
2.48033	9
2.48400	10
2.48767	12
2.49133	13
2.49500	14
2.49867	15
2.50233	15
2.50600	15
2.50967	15
2.51333	14
2.51700	14
2.52067	13
2.52433	13
2.52800	12
2.53167	11
2.53533	11
2.53900	10
2.54267	10
2.54633	10
2.55000	10
2.55367	10
2.55733	11
2.56100	12
2.56467	12
2.56833	12
2.57200	12
2.57567	12
2.57933	12
2.58300	13
2.58667	13
2.59033	13
2.59400	14
2.59767	15
2.60133	16
2.60500	16
2.60867	17
2.61233	17
2.61600	17
2.61967	17
2.62333	17
2.62700	17
2.63067	17
2.63433	17
2.63800	17
2.64167	17
2.64533	18
2.64900	18
2.65267	19
2.65633	20
2.66000	20
2.66367	21
2.66733	22
2.67100	22
2.67467	22
2.67833	23
2.68200	23
2.68567	23
2.68933	23
2.69300	23
2.69667	23
2.70033	24
2.70400	24
2.70767	24
2.71133	25
2.71500	25
2.71867	25
2.72233	25
2.72600	25
2.72967	25
2.73333	25
2.73700	25
2.74067	25
2.74433	25
2.74800	25
2.75167	25
2.75533	25
2.75900	25
2.76267	26
2.76633	26
2.77000	27
2.77367	27
2.77733	27
2.78100	28
2.78467	28
2.78833	29
2.79200	29
2.79567	29
2.79933	29
2.80300	28
2.80667	28
2.81033	28
2.81400	27
2.81767	27
2.82133	26
2.82500	26
2.82867	26
2.83233	25
2.83600	25
2.83967	25
2.84333	26
2.84700	26
2.85067	26
2.85433	26
2.85800	26
2.86167	25
2.86533	23
2.86900	20
2.87267	13
2.87633	4
2.88000	-9
2.88367	-27
2.88733	-50
2.89100	-77
2.89467	-110
2.89833	-148
2.90200	-191
2.90567	-238
2.90933	-289
2.91300	-343
2.91667	-400
2.92033	-459
2.92400	-520
2.92767	-581
2.93133	-642
2.93500	-703
2.93867	-761
2.94233	-817
2.94600	-870
2.94967	-921
2.95333	-975
2.95700	-1030
2.96067	-1078
2.96433	-1108
2.96800	-1115
2.97167	-1095
2.97533	-1053
2.97900	-994
2.98267	-922
2.98633	-844
2.99000	-763
2.99367	-683
2.99733	-606
3.00100	-533
3.00467	-467
3.00833	-406
3.01200	-351
3.01567	-303
3.01933	-259
3.02300	-222
3.02667	-189
3.03033	-160
3.03400	-135
3.03767	-113
3.04133	-95
3.04500	-79
3.04867	-66
3.05233	-54
3.05600	-44
3.05967	-36
3.06333	-29
3.06700	-22
3.07067	-17
3.07433	-12
3.07800	-8
3.08167	-5
3.08533	-2
3.08900	1
3.09267	3
3.09633	5
3.10000	7
3.10367	8
3.10733	10
3.11100	11
3.11467	12
3.11833	13
3.12200	14
3.12567	15
3.12933	15
3.13300	16
3.13667	16
3.14033	17
3.14400	17
3.14767	17
3.15133	18
3.15500	18
3.15867	19
3.16233	19
3.16600	19
3.16967	19
3.17333	19
3.17700	20
3.18067	20
3.18433	20
3.18800	20
3.19167	21
3.19533	21
3.19900	21
3.20267	21
3.20633	21
3.21000	21
3.21367	22
3.21733	22
3.22100	22
3.22467	22
3.22833	22
3.23200	23
3.23567	23
3.23933	23
3.24300	23
3.24667	23
3.25033	23
3.25400	23
3.25767	23
3.26133	23
3.26500	23
3.26867	23
3.27233	23
3.27600	23
3.27967	23
3.28333	23
3.28700	23
3.29067	23
3.29433	24
3.29800	24
3.30167	24
3.30533	24
3.30900	24
3.31267	24
3.31633	25
3.32000	25
3.32367	25
3.32733	25
3.33100	25
3.33467	26
3.33833	26
3.34200	26
3.34567	26
3.34933	26
3.35300	27
3.35667	27
3.36033	27
3.36400	27
3.36767	27
3.37133	27
3.37500	27
3.37867	28
3.38233	28
3.38600	28
3.38967	28
3.39333	28
3.39700	28
3.40067	28
3.40433	28
3.40800	28
3.41167	28
3.41533	28
3.41900	28
3.42267	28
3.42633	28
3.43000	28
3.43367	28
3.43733	28
3.44100	28
3.44467	28
3.44833	28
3.45200	28
3.45567	29
3.45933	29
3.46300	29
3.46667	29
3.47033	29
3.47400	29
3.47767	28
3.48133	28
3.48500	28
3.48867	28
3.49233	28
3.49600	28
3.49967	28
3.50333	28
3.50700	28
3.51067	28
3.51433	28
3.51800	28
3.52167	29
3.52533	29
3.52900	29
3.53267	29
3.53633	29
3.54000	29
3.54367	29
3.54733	29
3.55100	29
3.55467	29
3.55833	29
3.56200	29
3.56567	29
3.56933	29
3.57300	29
3.57667	28
3.58033	28
3.58400	28
3.58767	28
3.59133	28
3.59500	28
3.59867	28
3.60233	28
3.60600	28
3.60967	28
3.61333	28
3.61700	28
3.62067	28
3.62433	28
3.62800	28
3.63167	28
3.63533	28
3.63900	28
3.64267	28
3.64633	29
3.65000	29
3.65367	29
3.65733	30
3.66100	30
3.66467	30
3.66833	30
3.67200	31
3.67567	31
3.67933	32
3.68300	32
3.68667	32
3.69033	32
3.69400	32
3.69767	32
3.70133	32
3.70500	32
3.70867	32
3.71233	32
3.71600	33
3.71967	33
3.72333	32
3.72700	32
3.73067	32
3.73433	32
3.73800	32
3.74167	32
3.74533	32
3.74900	32
3.75267	32
3.75633	31
3.76000	31
3.76367	31
3.76733	31
3.77100	31
3.77467	31
3.77833	31
3.78200	31
3.78567	31
3.78933	30
3.79300	30
3.79667	30
3.80033	30
3.80400	30
3.80767	30
3.81133	29
3.81500	29
3.81867	29
3.82233	29
3.82600	28
3.82967	28
3.83333	28
3.83700	28
3.84067	28
3.84433	28
3.84800	28
3.85167	28
3.85533	28
3.85900	28
3.86267	28
3.86633	28
3.87000	27
3.87367	27
3.87733	27
3.88100	27
3.88467	27
3.88833	27
3.89200	27
3.89567	28
3.89933	28
3.90300	28
3.90667	28
3.91033	29
3.91400	29
3.91767	29
3.92133	29
3.92500	29
3.92867	29
3.93233	28
3.93600	28
3.93967	28
3.94333	28
3.94700	28
3.95067	28
3.95433	28
3.95800	28
3.96167	28
3.96533	28
3.96900	28
3.97267	28
3.97633	28
3.98000	28
3.98367	28
3.98733	28
3.99100	28
3.99467	28
3.99833	28

[Chromatogram (Ch3)]
Interval(msec)	220
# of Points	1091
Start Time(min)	0.002
End Time(min)	3.998
R.Time (min)	Intensity
0.00167	-0
0.00533	1
0.00900	1
0.01267	-0
0.01633	-1
0.02000	-3
0.02367	-6
0.02733	-5
0.03100	-5
0.03467	-3
0.03833	-2
0.04200	0
0.04567	1
0.04933	-0
0.05300	1
0.05667	1
0.06033	0
0.06400	1
0.06767	1
0.07133	-1
0.07500	-2
0.07867	-1
0.08233	-0
0.08600	2
0.08967	2
0.09333	3
0.09700	2
0.10067	0
0.10433	0
0.10800	0
0.11167	1
0.11533	1
0.11900	3
0.12267	3
0.12633	6
0.13000	5
0.13367	3
0.13733	2
0.14100	2
0.14467	5
0.14833	4
0.15200	1
0.15567	0
0.15933	0
0.16300	2
0.16667	2
0.17033	1
0.17400	1
0.17767	-1
0.18133	1
0.18500	3
0.18867	5
0.19233	6
0.19600	8
0.19967	8
0.20333	7
0.20700	7
0.21067	5
0.21433	5
0.21800	5
0.22167	5
0.22533	5
0.22900	4
0.23267	5
0.23633	5
0.24000	4
0.24367	4
0.24733	3
0.25100	1
0.25467	2
0.25833	4
0.26200	4
0.26567	4
0.26933	5
0.27300	5
0.27667	4
0.28033	4
0.28400	5
0.28767	6
0.29133	5
0.29500	3
0.29867	2
0.30233	1
0.30600	1
0.30967	4
0.31333	4
0.31700	4
0.32067	4
0.32433	4
0.32800	3
0.33167	4
0.33533	5
0.33900	5
0.34267	4
0.34633	3
0.35000	3
0.35367	2
0.35733	3
0.36100	2
0.36467	1
0.36833	0
0.37200	1
0.37567	2
0.37933	3
0.38300	5
0.38667	5
0.39033	5
0.39400	4
0.39767	3
0.40133	1
0.40500	0
0.40867	1
0.41233	2
0.41600	3
0.41967	5
0.42333	6
0.42700	6
0.43067	6
0.43433	5
0.43800	4
0.44167	4
0.44533	3
0.44900	1
0.45267	2
0.45633	3
0.46000	5
0.46367	6
0.46733	7
0.47100	7
0.47467	6
0.47833	8
0.48200	8
0.48567	8
0.48933	7
0.49300	5
0.49667	3
0.50033	2
0.50400	3
0.50767	3
0.51133	4
0.51500	4
0.51867	4
0.52233	4
0.52600	6
0.52967	8
0.53333	8
0.53700	8
0.54067	8
0.54433	7
0.54800	6
0.55167	5
0.55533	4
0.55900	4
0.56267	3
0.56633	2
0.57000	2
0.57367	3
0.57733	3
0.58100	2
0.58467	3
0.58833	3
0.59200	4
0.59567	5
0.59933	7
0.60300	8
0.60667	9
0.61033	10
0.61400	11
0.61767	11
0.62133	12
0.62500	13
0.62867	13
0.63233	14
0.63600	14
0.63967	13
0.64333	13
0.64700	13
0.65067	12
0.65433	9
0.65800	9
0.66167	9
0.66533	8
0.66900	8
0.67267	10
0.67633	12
0.68000	11
0.68367	11
0.68733	10
0.69100	10
0.69467	8
0.69833	7
0.70200	7
0.70567	7
0.70933	8
0.71300	8
0.71667	8
0.72033	9
0.72400	8
0.72767	9
0.73133	11
0.73500	10
0.73867	10
0.74233	11
0.74600	11
0.74967	10
0.75333	10
0.75700	9
0.76067	7
0.76433	7
0.76800	8
0.77167	8
0.77533	7
0.77900	9
0.78267	10
0.78633	12
0.79000	13
0.79367	12
0.79733	12
0.80100	12
0.80467	13
0.80833	14
0.81200	14
0.81567	14
0.81933	13
0.82300	10
0.82667	10
0.83033	12
0.83400	13
0.83767	14
0.84133	14
0.84500	15
0.84867	15
0.85233	15
0.85600	16
0.85967	16
0.86333	14
0.86700	14
0.87067	14
0.87433	14
0.87800	12
0.88167	10
0.88533	9
0.88900	12
0.89267	15
0.89633	15
0.90000	17
0.90367	15
0.90733	13
0.91100	14
0.91467	17
0.91833	18
0.92200	17
0.92567	15
0.92933	13
0.93300	14
0.93667	13
0.94033	12
0.94400	12
0.94767	12
0.95133	13
0.95500	14
0.95867	15
0.96233	16
0.96600	14
0.96967	13
0.97333	12
0.97700	13
0.98067	13
0.98433	14
0.98800	16
0.99167	17
0.99533	15
0.99900	15
1.00267	16
1.00633	17
1.01000	16
1.01367	15
1.01733	17
1.02100	19
1.02467	22
1.02833	24
1.03200	24
1.03567	22
1.03933	19
1.04300	18
1.04667	18
1.05033	16
1.05400	17
1.05767	17
1.06133	16
1.06500	16
1.06867	16
1.07233	18
1.07600	21
1.07967	23
1.08333	23
1.08700	23
1.09067	21
1.09433	20
1.09800	20
1.10167	20
1.10533	19
1.10900	17
1.11267	15
1.11633	15
1.12000	17
1.12367	18
1.12733	20
1.13100	19
1.13467	18
1.13833	16
1.14200	17
1.14567	17
1.14933	16
1.15300	16
1.15667	16
1.16033	16
1.16400	17
1.16767	18
1.17133	19
1.17500	20
1.17867	20
1.18233	20
1.18600	19
1.18967	17
1.19333	16
1.19700	17
1.20067	17
1.20433	16
1.20800	16
1.21167	16
1.21533	16
1.21900	16
1.22267	18
1.22633	21
1.23000	23
1.23367	23
1.23733	23
1.24100	23
1.24467	22
1.24833	20
1.25200	19
1.25567	20
1.25933	18
1.26300	19
1.26667	22
1.27033	25
1.27400	27
1.27767	26
1.28133	24
1.28500	19
1.28867	17
1.29233	16
1.29600	17
1.29967	18
1.30333	15
1.30700	15
1.31067	14
1.31433	15
1.31800	17
1.32167	18
1.32533	20
1.32900	22
1.33267	24
1.33633	24
1.34000	23
1.34367	21
1.34733	19
1.35100	18
1.35467	18
1.35833	17
1.36200	18
1.36567	19
1.36933	19
1.37300	21
1.37667	21
1.38033	21
1.38400	20
1.38767	17
1.39133	17
1.39500	17
1.39867	19
1.40233	22
1.40600	24
1.40967	23
1.41333	22
1.41700	22
1.42067	25
1.42433	28
1.42800	29
1.43167	29
1.43533	29
1.43900	28
1.44267	26
1.44633	25
1.45000	24
1.45367	25
1.45733	24
1.46100	23
1.46467	24
1.46833	26
1.47200	25
1.47567	23
1.47933	23
1.48300	22
1.48667	22
1.49033	23
1.49400	22
1.49767	21
1.50133	22
1.50500	21
1.50867	22
1.51233	22
1.51600	20
1.51967	20
1.52333	18
1.52700	18
1.53067	18
1.53433	21
1.53800	23
1.54167	24
1.54533	23
1.54900	24
1.55267	25
1.55633	25
1.56000	25
1.56367	25
1.56733	24
1.57100	23
1.57467	23
1.57833	25
1.58200	25
1.58567	25
1.58933	23
1.59300	21
1.59667	21
1.60033	20
1.60400	20
1.60767	22
1.61133	21
1.61500	20
1.61867	21
1.62233	22
1.62600	23
1.62967	26
1.63333	31
1.63700	33
1.64067	32
1.64433	31
1.64800	28
1.65167	27
1.65533	26
1.65900	28
1.66267	29
1.66633	30
1.67000	30
1.67367	29
1.67733	29
1.68100	29
1.68467	27
1.68833	25
1.69200	24
1.69567	24
1.69933	24
1.70300	25
1.70667	26
1.71033	28
1.71400	27
1.71767	26
1.72133	27
1.72500	29
1.72867	33
1.73233	34
1.73600	35
1.73967	36
1.74333	37
1.74700	38
1.75067	37
1.75433	38
1.75800	36
1.76167	36
1.76533	37
1.76900	36
1.77267	37
1.77633	38
1.78000	39
1.78367	40
1.78733	40
1.79100	39
1.79467	41
1.79833	42
1.80200	43
1.80567	43
1.80933	42
1.81300	42
1.81667	41
1.82033	42
1.82400	42
1.82767	43
1.83133	44
1.83500	46
1.83867	47
1.84233	47
1.84600	46
1.84967	45
1.85333	46
1.85700	46
1.86067	45
1.86433	46
1.86800	48
1.87167	49
1.87533	51
1.87900	52
1.88267	53
1.88633	56
1.89000	57
1.89367	58
1.89733	62
1.90100	65
1.90467	65
1.90833	62
1.91200	60
1.91567	61
1.91933	62
1.92300	61
1.92667	62
1.93033	63
1.93400	64
1.93767	67
1.94133	70
1.94500	72
1.94867	74
1.95233	75
1.95600	73
1.95967	72
1.96333	73
1.96700	74
1.97067	74
1.97433	73
1.97800	74
1.98167	75
1.98533	75
1.98900	75
1.99267	74
1.99633	77
2.00000	80
2.00367	81
2.00733	81
2.01100	82
2.01467	82
2.01833	80
2.02200	81
2.02567	82
2.02933	82
2.03300	82
2.03667	84
2.04033	85
2.04400	86
2.04767	88
2.05133	91
2.05500	92
2.05867	94
2.06233	95
2.06600	97
2.06967	99
2.07333	100
2.07700	100
2.08067	101
2.08433	103
2.08800	103
2.09167	102
2.09533	102
2.09900	102
2.10267	103
2.10633	104
2.11000	107
2.11367	110
2.11733	111
2.12100	110
2.12467	109
2.12833	110
2.13200	112
2.13567	113
2.13933	114
2.14300	113
2.14667	111
2.15033	109
2.15400	109
2.15767	110
2.16133	111
2.16500	113
2.16867	113
2.17233	113
2.17600	115
2.17967	116
2.18333	116
2.18700	116
2.19067	118
2.19433	119
2.19800	119
2.20167	118
2.20533	117
2.20900	116
2.21267	115
2.21633	117
2.22000	119
2.22367	122
2.22733	126
2.23100	126
2.23467	128
2.23833	129
2.24200	130
2.24567	130
2.24933	128
2.25300	127
2.25667	127
2.26033	125
2.26400	126
2.26767	127
2.27133	128
2.27500	131
2.27867	134
2.28233	136
2.28600	136
2.28967	136
2.29333	136
2.29700	136
2.30067	135
2.30433	134
2.30800	134
2.31167	136
2.31533	138
2.31900	138
2.32267	137
2.32633	137
2.33000	138
2.33367	139
2.33733	140
2.34100	140
2.34467	140
2.34833	139
2.35200	137
2.35567	139
2.35933	140
2.36300	138
2.36667	137
2.37033	137
2.37400	139
2.37767	141
2.38133	139
2.38500	139
2.38867	136
2.39233	135
2.39600	135
2.39967	137
2.40333	140
2.40700	144
2.41067	146
2.41433	145
2.41800	144
2.42167	144
2.42533	143
2.42900	142
2.43267	141
2.43633	144
2.44000	151
2.44367	198
2.44733	302
2.45100	419
2.45467	513
2.45833	579
2.46200	629
2.46567	668
2.46933	689
2.47300	696
2.47667	700
2.48033	710
2.48400	725
2.48767	744
2.49133	761
2.49500	776
2.49867	786
2.50233	788
2.50600	782
2.50967	769
2.51333	755
2.51700	744
2.52067	736
2.52433	729
2.52800	722
2.53167	719
2.53533	718
2.53900	718
2.54267	721
2.54633	727
2.55000	733
2.55367	742
2.55733	753
2.56100	762
2.56467	766
2.56833	767
2.57200	765
2.57567	761
2.57933	752
2.58300	738
2.58667	723
2.59033	709
2.59400	696
2.59767	683
2.60133	672
2.60500	662
2.60867	652
2.61233	642
2.61600	637
2.61967	633
2.62333	626
2.62700	618
2.63067	612
2.63433	608
2.63800	602
2.64167	597
2.64533	594
2.64900	591
2.65267	587
2.65633	584
2.66000	581
2.66367	579
2.66733	579
2.67100	578
2.67467	581
2.67833	586
2.68200	589
2.68567	592
2.68933	596
2.69300	599
2.69667	604
2.70033	607
2.70400	610
2.70767	614
2.71133	619
2.71500	624
2.71867	626
2.72233	626
2.72600	624
2.72967	622
2.73333	617
2.73700	612
2.74067	607
2.74433	603
2.74800	600
2.75167	595
2.75533	590
2.75900	587
2.76267	585
2.76633	581
2.77000	577
2.77367	573
2.77733	570
2.78100	566
2.78467	564
2.78833	563
2.79200	563
2.79567	562
2.79933	563
2.80300	564
2.80667	564
2.81033	565
2.81400	567
2.81767	569
2.82133	569
2.82500	571
2.82867	577
2.83233	587
2.83600	603
2.83967	632
2.84333	684
2.84700	783
2.85067	953
2.85433	1215
2.85800	1581
2.86167	2045
2.86533	2587
2.86900	3170
2.87267	3754
2.87633	4288
2.88000	4727
2.88367	5039
2.88733	5209
2.89100	5238
2.89467	5141
2.89833	4942
2.90200	4671
2.90567	4353
2.90933	4014
2.91300	3672
2.91667	3338
2.92033	3021
2.92400	2728
2.92767	2459
2.93133	2216
2.93500	2000
2.93867	1809
2.94233	1640
2.94600	1494
2.94967	1362
2.95333	1250
2.95700	1154
2.96067	1070
2.96433	997
2.96800	934
2.97167	879
2.97533	829
2.97900	786
2.98267	751
2.98633	722
2.99000	695
2.99367	673
2.99733	655
3.00100	640
3.00467	624
3.00833	611
3.01200	599
3.01567	591
3.01933	584
3.02300	578
3.02667	575
3.03033	570
3.03400	565
3.03767	562
3.04133	560
3.04500	560
3.04867	560
3.05233	558
3.05600	556
3.05967	553
3.06333	551
3.06700	549
3.07067	547
3.07433	547
3.07800	548
3.08167	547
3.08533	545
3.08900	545
3.09267	544
3.09633	541
3.10000	538
3.10367	535
3.10733	533
3.11100	533
3.11467	535
3.11833	535
3.12200	533
3.12567	534
3.12933	537
3.13300	539
3.13667	539
3.14033	536
3.14400	533
3.14767	530
3.15133	529
3.15500	529
3.15867	530
3.16233	531
3.16600	532
3.16967	532
3.17333	529
3.17700	527
3.18067	526
3.18433	524
3.18800	524
3.19167	521
3.19533	519
3.19900	518
3.20267	518
3.20633	518
3.21000	520
3.21367	522
3.21733	520
3.22100	517
3.22467	516
3.22833	516
3.23200	517
3.23567	517
3.23933	514
3.24300	510
3.24667	508
3.25033	507
3.25400	506
3.25767	505
3.26133	505
3.26500	501
3.26867	500
3.27233	499
3.27600	498
3.27967	496
3.28333	496
3.28700	497
3.29067	498
3.29433	496
3.29800	493
3.30167	491
3.30533	490
3.30900	488
3.31267	486
3.31633	482
3.32000	480
3.32367	479
3.32733	479
3.33100	476
3.33467	471
3.33833	470
3.34200	470
3.34567	471
3.34933	470
3.35300	469
3.35667	467
3.36033	465
3.36400	462
3.36767	462
3.37133	462
3.37500	462
3.37867	458
3.38233	455
3.38600	451
3.38967	449
3.39333	447
3.39700	446
3.40067	444
3.40433	442
3.40800	439
3.41167	434
3.41533	429
3.41900	426
3.42267	424
3.42633	423
3.43000	424
3.43367	423
3.43733	421
3.44100	420
3.44467	420
3.44833	420
3.45200	418
3.45567	415
3.45933	413
3.46300	411
3.46667	409
3.47033	407
3.47400	405
3.47767	402
3.48133	403
3.48500	402
3.48867	402
3.49233	401
3.49600	398
3.49967	395
3.50333	393
3.50700	391
3.51067	390
3.51433	389
3.51800	388
3.52167	388
3.52533	386
3.52900	383
3.53267	382
3.53633	381
3.54000	380
3.54367	379
3.54733	381
3.55100	378
3.55467	374
3.55833	372
3.56200	369
3.56567	365
3.56933	362
3.57300	363
3.57667	364
3.58033	364
3.58400	365
3.58767	365
3.59133	364
3.59500	362
3.59867	362
3.60233	362
3.60600	362
3.60967	361
3.61333	362
3.61700	362
3.62067	360
3.62433	359
3.62800	360
3.63167	357
3.63533	355
3.63900	352
3.64267	351
3.64633	351
3.65000	352
3.65367	351
3.65733	348
3.66100	347
3.66467	346
3.66833	343
3.67200	340
3.67567	339
3.67933	340
3.68300	340
3.68667	339
3.69033	338
3.69400	336
3.69767	332
3.70133	328
3.70500	328
3.70867	328
3.71233	328
3.71600	329
3.71967	328
3.72333	327
3.72700	325
3.73067	323
3.73433	321
3.73800	320
3.74167	319
3.74533	318
3.74900	317
3.75267	317
3.75633	317
3.76000	319
3.76367	321
3.76733	319
3.77100	316
3.77467	315
3.77833	313
3.78200	311
3.78567	309
3.78933	305
3.79300	303
3.79667	302
3.80033	304
3.80400	306
3.80767	306
3.81133	306
3.81500	306
3.81867	304
3.82233	303
3.82600	301
3.82967	300
3.83333	300
3.83700	299
3.84067	298
3.84433	297
3.84800	297
3.85167	295
3.85533	292
3.85900	290
3.86267	288
3.86633	287
3.87000	287
3.87367	286
3.87733	287
3.88100	286
3.88467	285
3.88833	284
3.89200	282
3.89567	283
3.89933	281
3.90300	280
3.90667	280
3.91033	279
3.91400	279
3.91767	279
3.92133	279
3.92500	277
3.92867	273
3.93233	271
3.93600	271
3.93967	270
3.94333	267
3.94700	262
3.95067	260
3.95433	259
3.95800	258
3.96167	256
3.96533	256
3.96900	257
3.97267	256
3.97633	255
3.98000	255
3.98367	254
3.98733	252
3.99100	249
3.99467	246
3.99833	244

[Status Trace (Column Oven Temperature)]
Interval(msec)	1000
# of Points	240
Start Time(min)	0.016
End Time(min)	4.000
Intensity Units	
Intensity Multiplier	1
R.Time (min)	Intensity
0.01632	35.07
0.03298	35.05
0.04965	35.03
0.06632	35.01
0.08298	35.00
0.09965	34.99
0.11632	34.99
0.13298	35.00
0.14965	35.01
0.16632	35.02
0.18298	35.02
0.19965	35.02
0.21632	35.02
0.23298	35.01
0.24965	35.01
0.26632	35.00
0.28298	35.00
0.29965	34.99
0.31632	34.98
0.33298	34.98
0.34965	34.98
0.36632	34.98
0.38298	34.98
0.39965	34.98
0.41632	34.98
0.43298	34.99
0.44965	34.99
0.46632	34.99
0.48298	35.01
0.49965	35.01
0.51632	35.01
0.53298	35.02
0.54965	35.01
0.56632	35.02
0.58298	35.03
0.59965	35.02
0.61632	35.01
0.63298	35.01
0.64965	35.02
0.66632	35.02
0.68298	35.00
0.69965	34.99
0.71632	34.99
0.73298	34.99
0.74965	34.99
0.76632	34.99
0.78298	35.00
0.79965	35.02
0.81632	35.02
0.83298	35.02
0.84965	35.01
0.86632	35.00
0.88298	34.99
0.89965	34.99
0.91632	35.00
0.93298	35.00
0.94965	35.01
0.96632	35.01
0.98298	35.01
0.99965	34.99
1.01632	34.99
1.03298	34.99
1.04965	34.99
1.06632	34.98
1.08298	34.98
1.09965	34.98
1.11632	35.00
1.13298	35.00
1.14965	35.00
1.16632	34.99
1.18298	34.99
1.19965	34.98
1.21632	34.98
1.23298	34.98
1.24965	35.00
1.26632	34.99
1.28298	34.98
1.29965	34.99
1.31632	34.99
1.33298	34.99
1.34965	34.99
1.36632	34.99
1.38298	34.99
1.39965	34.99
1.41632	35.00
1.43298	35.01
1.44965	35.02
1.46632	35.02
1.48298	35.02
1.49965	35.01
1.51632	35.01
1.53298	35.00
1.54965	34.99
1.56632	34.99
1.58298	35.00
1.59965	35.02
1.61632	35.10
1.63298	35.26
1.64965	35.48
1.66632	35.76
1.68298	36.13
1.69965	36.49
1.71632	36.83
1.73298	37.18
1.74965	37.51
1.76632	37.82
1.78298	38.14
1.79965	38.47
1.81632	38.81
1.83298	39.16
1.84965	39.49
1.86632	39.82
1.88298	40.15
1.89965	40.49
1.91632	40.82
1.93298	41.13
1.94965	41.46
1.96632	41.79
1.98298	42.12
1.99965	42.44
2.01632	42.77
2.03298	43.11
2.04965	43.43
2.06632	43.74
2.08298	44.07
2.09965	44.39
2.11632	44.72
2.13298	45.03
2.14965	45.36
2.16632	45.68
2.18298	46.01
2.19965	46.33
2.21632	46.65
2.23298	46.99
2.24965	47.30
2.26632	47.63
2.28298	47.98
2.29965	48.31
2.31632	48.63
2.33298	49.02
2.34965	49.30
2.36632	49.52
2.38298	49.63
2.39965	49.63
2.41632	49.63
2.43298	49.63
2.44965	49.64
2.46632	49.68
2.48298	49.67
2.49965	49.68
2.51632	49.69
2.53298	49.71
2.54965	49.72
2.56632	49.74
2.58298	49.78
2.59965	49.79
2.61632	49.80
2.63298	49.83
2.64965	49.83
2.66632	49.83
2.68298	49.84
2.69965	49.85
2.71632	49.85
2.73298	49.85
2.74965	49.86
2.76632	49.86
2.78298	49.84
2.79965	49.86
2.81632	49.88
2.83298	49.88
2.84965	49.89
2.86632	49.89
2.88298	49.88
2.89965	49.88
2.91632	49.87
2.93298	49.88
2.94965	49.89
2.96632	49.90
2.98298	49.92
2.99965	49.93
3.01632	49.94
3.03298	49.95
3.04965	49.96
3.06632	49.97
3.08298	49.98
3.09965	49.98
3.11632	49.99
3.13298	50.00
3.14965	50.01
3.16632	50.02
3.18298	50.03
3.19965	50.04
3.21632	50.04
3.23298	50.05
3.24965	50.06
3.26632	50.08
3.28298	50.08
3.29965	50.09
3.31632	50.10
3.33298	50.10
3.34965	50.09
3.36632	50.09
3.38298	50.09
3.39965	50.07
3.41632	50.08
3.43298	50.08
3.44965	50.08
3.46632	50.09
3.48298	50.09
3.49965	50.09
3.51632	50.09
3.53298	50.08
3.54965	50.09
3.56632	50.09
3.58298	50.09
3.59965	50.10
3.61632	50.11
3.63298	50.12
3.64965	50.11
3.66632	50.09
3.68298	50.06
3.69965	50.04
3.71632	50.04
3.73298	50.03
3.74965	50.02
3.76632	50.01
3.78298	50.01
3.79965	50.02
3.81632	50.03
3.83298	50.04
3.84965	50.05
3.86632	50.06
3.88298	50.06
3.89965	50.05
3.91632	50.05
3.93298	50.06
3.94965	50.06
3.96632	50.07
3.98298	50.07
3.99965	50.07

[Status Trace (Injection Unit Temperature)]
Interval(msec)	1000
# of Points	240
Start Time(min)	0.016
End Time(min)	4.000
Intensity Units	
Intensity Multiplier	1
R.Time (min)	Intensity
0.01632	99.98
0.03298	99.98
0.04965	99.98
0.06632	99.98
0.08298	99.98
0.09965	99.98
0.11632	99.98
0.13298	99.98
0.14965	99.98
0.16632	99.98
0.18298	99.98
0.19965	99.98
0.21632	99.98
0.23298	99.98
0.24965	99.98
0.26632	99.98
0.28298	99.98
0.29965	99.99
0.31632	99.98
0.33298	99.98
0.34965	99.99
0.36632	99.99
0.38298	99.99
0.39965	99.98
0.41632	99.98
0.43298	99.99
0.44965	99.98
0.46632	99.99
0.48298	99.98
0.49965	99.98
0.51632	99.99
0.53298	99.99
0.54965	99.98
0.56632	99.99
0.58298	99.99
0.59965	99.98
0.61632	99.99
0.63298	99.98
0.64965	99.99
0.66632	99.99
0.68298	99.99
0.69965	99.99
0.71632	99.99
0.73298	99.98
0.74965	99.99
0.76632	99.99
0.78298	99.99
0.79965	99.99
0.81632	99.98
0.83298	99.99
0.84965	99.99
0.86632	99.98
0.88298	99.99
0.89965	99.99
0.91632	99.99
0.93298	99.99
0.94965	99.98
0.96632	99.99
0.98298	99.99
0.99965	99.99
1.01632	99.99
1.03298	99.99
1.04965	99.99
1.06632	99.99
1.08298	99.99
1.09965	99.99
1.11632	99.99
1.13298	99.99
1.14965	99.99
1.16632	99.99
1.18298	99.99
1.19965	99.99
1.21632	99.99
1.23298	99.99
1.24965	99.99
1.26632	99.99
1.28298	99.99
1.29965	99.99
1.31632	99.99
1.33298	99.99
1.34965	99.99
1.36632	99.99
1.38298	99.99
1.39965	99.99
1.41632	99.99
1.43298	99.99
1.44965	99.99
1.46632	99.99
1.48298	99.99
1.49965	99.99
1.51632	99.99
1.53298	99.99
1.54965	99.99
1.56632	99.99
1.58298	99.99
1.59965	99.99
1.61632	99.98
1.63298	99.99
1.64965	99.99
1.66632	99.99
1.68298	99.99
1.69965	99.99
1.71632	99.99
1.73298	99.99
1.74965	99.99
1.76632	99.99
1.78298	99.99
1.79965	99.99
1.81632	99.99
1.83298	99.99
1.84965	99.99
1.86632	99.99
1.88298	99.98
1.89965	99.99
1.91632	99.98
1.93298	99.98
1.94965	99.99
1.96632	99.98
1.98298	99.98
1.99965	99.98
2.01632	99.98
2.03298	99.98
2.04965	99.98
2.06632	99.97
2.08298	99.98
2.09965	99.98
2.11632	99.97
2.13298	99.98
2.14965	99.97
2.16632	99.97
2.18298	99.97
2.19965	99.97
2.21632	99.97
2.23298	99.97
2.24965	99.97
2.26632	99.97
2.28298	99.97
2.29965	99.97
2.31632	99.97
2.33298	99.97
2.34965	99.97
2.36632	99.97
2.38298	99.97
2.39965	99.97
2.41632	99.97
2.43298	99.97
2.44965	99.97
2.46632	99.97
2.48298	99.97
2.49965	99.98
2.51632	99.97
2.53298	99.98
2.54965	99.98
2.56632	99.98
2.58298	99.98
2.59965	99.98
2.61632	99.98
2.63298	99.98
2.64965	99.98
2.66632	99.98
2.68298	99.99
2.69965	99.99
2.71632	99.99
2.73298	99.99
2.74965	99.99
2.76632	99.99
2.78298	99.99
2.79965	99.99
2.81632	100.00
2.83298	99.99
2.84965	100.00
2.86632	100.00
2.88298	100.00
2.89965	100.00
2.91632	100.00
2.93298	100.00
2.94965	100.00
2.96632	100.01
2.98298	100.01
2.99965	100.01
3.01632	100.01
3.03298	100.01
3.04965	100.01
3.06632	100.01
3.08298	100.01
3.09965	100.01
3.11632	100.01
3.13298	100.02
3.14965	100.02
3.16632	100.02
3.18298	100.02
3.19965	100.02
3.21632	100.02
3.23298	100.02
3.24965	100.02
3.26632	100.02
3.28298	100.02
3.29965	100.03
3.31632	100.02
3.33298	100.03
3.34965	100.03
3.36632	100.03
3.38298	100.03
3.39965	100.04
3.41632	100.03
3.43298	100.04
3.44965	100.03
3.46632	100.04
3.48298	100.04
3.49965	100.04
3.51632	100.04
3.53298	100.04
3.54965	100.04
3.56632	100.04
3.58298	100.04
3.59965	100.04
3.61632	100.04
3.63298	100.04
3.64965	100.04
3.66632	100.04
3.68298	100.04
3.69965	100.05
3.71632	100.04
3.73298	100.04
3.74965	100.05
3.76632	100.05
3.78298	100.05
3.79965	100.05
3.81632	100.05
3.83298	100.05
3.84965	100.05
3.86632	100.05
3.88298	100.05
3.89965	100.05
3.91632	100.05
3.93298	100.05
3.94965	100.05
3.96632	100.05
3.98298	100.05
3.99965	100.05

[Status Trace (Carrier Gas Pressure)]
Interval(msec)	1000
# of Points	240
Start Time(min)	0.016
End Time(min)	4.000
Intensity Units	
Intensity Multiplier	1
R.Time (min)	Intensity
0.01632	56.84
0.03298	55.96
0.04965	58.25
0.06632	59.89
0.08298	58.39
0.09965	57.98
0.11632	58.00
0.13298	58.01
0.14965	58.01
0.16632	58.01
0.18298	58.00
0.19965	58.00
0.21632	58.00
0.23298	58.00
0.24965	58.00
0.26632	58.00
0.28298	58.00
0.29965	58.00
0.31632	58.00
0.33298	58.00
0.34965	58.00
0.36632	58.00
0.38298	58.00
0.39965	58.00
0.41632	58.00
0.43298	58.00
0.44965	58.00
0.46632	58.00
0.48298	58.00
0.49965	58.00
0.51632	58.00
0.53298	58.00
0.54965	58.00
0.56632	58.00
0.58298	58.00
0.59965	58.00
0.61632	58.00
0.63298	58.00
0.64965	58.00
0.66632	58.00
0.68298	58.00
0.69965	58.00
0.71632	58.00
0.73298	58.00
0.74965	58.00
0.76632	58.00
0.78298	58.00
0.79965	58.00
0.81632	58.00
0.83298	58.00
0.84965	58.00
0.86632	58.00
0.88298	58.00
0.89965	58.00
0.91632	58.00
0.93298	58.00
0.94965	58.00
0.96632	58.00
0.98298	58.00
0.99965	58.00
1.01632	58.00
1.03298	58.00
1.04965	58.00
1.06632	58.00
1.08298	58.00
1.09965	58.00
1.11632	58.00
1.13298	58.00
1.14965	58.00
1.16632	58.00
1.18298	58.00
1.19965	58.00
1.21632	58.00
1.23298	58.00
1.24965	58.00
1.26632	58.00
1.28298	58.00
1.29965	58.00
1.31632	58.00
1.33298	58.00
1.34965	58.00
1.36632	58.00
1.38298	58.00
1.39965	58.00
1.41632	58.00
1.43298	58.00
1.44965	58.00
1.46632	58.00
1.48298	58.00
1.49965	58.00
1.51632	58.00
1.53298	58.00
1.54965	58.00
1.56632	58.00
1.58298	58.00
1.59965	58.00
1.61632	58.00
1.63298	58.00
1.64965	58.00
1.66632	58.00
1.68298	58.01
1.69965	58.00
1.71632	58.00
1.73298	58.00
1.74965	58.00
1.76632	58.00
1.78298	58.00
1.79965	58.00
1.81632	58.00
1.83298	58.00
1.84965	58.00
1.86632	58.00
1.88298	58.00
1.89965	58.00
1.91632	58.00
1.93298	58.00
1.94965	58.00
1.96632	58.00
1.98298	58.00
1.99965	58.00
2.01632	58.00
2.03298	58.00
2.04965	58.00
2.06632	58.00
2.08298	58.00
2.09965	58.00
2.11632	58.00
2.13298	58.00
2.14965	58.00
2.16632	58.00
2.18298	58.00
2.19965	58.00
2.21632	58.00
2.23298	58.00
2.24965	58.00
2.26632	58.00
2.28298	58.00
2.29965	58.00
2.31632	58.00
2.33298	58.00
2.34965	58.00
2.36632	58.00
2.38298	57.99
2.39965	58.00
2.41632	58.00
2.43298	58.00
2.44965	58.00
2.46632	58.00
2.48298	58.00
2.49965	58.00
2.51632	57.99
2.53298	57.99
2.54965	58.00
2.56632	58.00
2.58298	58.00
2.59965	58.00
2.61632	58.00
2.63298	58.00
2.64965	58.00
2.66632	58.00
2.68298	58.00
2.69965	58.00
2.71632	58.00
2.73298	58.00
2.74965	58.00
2.76632	58.00
2.78298	58.00
2.79965	58.00
2.81632	58.00
2.83298	58.00
2.84965	58.00
2.86632	58.00
2.88298	58.00
2.89965	58.00
2.91632	58.00
2.93298	58.00
2.94965	58.00
2.96632	58.00
2.98298	58.00
2.99965	58.00
3.01632	58.00
3.03298	58.00
3.04965	58.00
3.06632	58.00
3.08298	58.00
3.09965	58.00
3.11632	58.00
3.13298	58.00
3.14965	58.00
3.16632	58.00
3.18298	58.00
3.19965	58.00
3.21632	58.00
3.23298	58.00
3.24965	58.00
3.26632	58.00
3.28298	58.00
3.29965	58.00
3.31632	58.00
3.33298	58.00
3.34965	58.00
3.36632	58.00
3.38298	58.00
3.39965	58.00
3.41632	58.00
3.43298	58.00
3.44965	58.00
3.46632	58.00
3.48298	58.00
3.49965	58.00
3.51632	58.00
3.53298	58.00
3.54965	58.00
3.56632	58.00
3.58298	58.00
3.59965	58.00
3.61632	58.00
3.63298	58.00
3.64965	58.00
3.66632	58.00
3.68298	58.00
3.69965	58.00
3.71632	58.00
3.73298	58.00
3.74965	58.00
3.76632	58.00
3.78298	58.00
3.79965	58.00
3.81632	58.00
3.83298	58.00
3.84965	58.00
3.86632	58.00
3.88298	58.00
3.89965	58.00
3.91632	58.00
3.93298	58.00
3.94965	58.00
3.96632	58.00
3.98298	58.00
3.99965	58.00

[Status Trace (Carrier Gas Flow)]
Interval(msec)	1000
# of Points	240
Start Time(min)	0.016
End Time(min)	4.000
Intensity Units	
Intensity Multiplier	1
R.Time (min)	Intensity
0.01632	33.83
0.03298	34.54
0.04965	34.55
0.06632	34.50
0.08298	34.51
0.09965	34.52
0.11632	34.52
0.13298	34.52
0.14965	34.52
0.16632	34.52
0.18298	34.52
0.19965	34.52
0.21632	34.52
0.23298	34.52
0.24965	34.52
0.26632	34.52
0.28298	34.52
0.29965	34.52
0.31632	34.52
0.33298	34.52
0.34965	34.52
0.36632	34.52
0.38298	34.52
0.39965	34.52
0.41632	34.52
0.43298	34.52
0.44965	34.52
0.46632	34.52
0.48298	34.52
0.49965	34.52
0.51632	34.52
0.53298	34.52
0.54965	34.52
0.56632	34.52
0.58298	34.52
0.59965	34.52
0.61632	34.52
0.63298	34.52
0.64965	34.52
0.66632	34.52
0.68298	34.52
0.69965	34.51
0.71632	34.52
0.73298	34.52
0.74965	34.52
0.76632	34.51
0.78298	34.53
0.79965	34.52
0.81632	34.52
0.83298	34.52
0.84965	34.52
0.86632	34.51
0.88298	34.51
0.89965	34.52
0.91632	34.52
0.93298	34.52
0.94965	34.52
0.96632	34.52
0.98298	34.52
0.99965	34.52
1.01632	34.52
1.03298	34.52
1.04965	34.52
1.06632	34.52
1.08298	34.52
1.09965	34.51
1.11632	34.52
1.13298	34.52
1.14965	34.52
1.16632	34.52
1.18298	34.52
1.19965	34.52
1.21632	34.52
1.23298	34.52
1.24965	34.52
1.26632	34.52
1.28298	34.52
1.29965	34.52
1.31632	34.52
1.33298	34.52
1.34965	34.51
1.36632	34.52
1.38298	34.52
1.39965	34.52
1.41632	34.52
1.43298	34.52
1.44965	34.52
1.46632	34.52
1.48298	34.52
1.49965	34.52
1.51632	34.52
1.53298	34.52
1.54965	34.52
1.56632	34.52
1.58298	34.51
1.59965	34.51
1.61632	34.52
1.63298	34.52
1.64965	34.52
1.66632	34.52
1.68298	34.52
1.69965	34.52
1.71632	34.52
1.73298	34.52
1.74965	34.52
1.76632	34.52
1.78298	34.52
1.79965	34.52
1.81632	34.52
1.83298	34.52
1.84965	34.52
1.86632	34.52
1.88298	34.52
1.89965	34.52
1.91632	34.52
1.93298	34.51
1.94965	34.52
1.96632	34.52
1.98298	34.51
1.99965	34.52
2.01632	34.52
2.03298	34.52
2.04965	34.52
2.06632	34.52
2.08298	34.52
2.09965	34.52
2.11632	34.52
2.13298	34.52
2.14965	34.52
2.16632	34.51
2.18298	34.52
2.19965	34.52
2.21632	34.52
2.23298	34.52
2.24965	34.52
2.26632	34.52
2.28298	34.51
2.29965	34.52
2.31632	34.52
2.33298	34.52
2.34965	34.52
2.36632	34.52
2.38298	34.52
2.39965	34.51
2.41632	34.52
2.43298	34.52
2.44965	34.52
2.46632	34.52
2.48298	34.52
2.49965	34.52
2.51632	34.51
2.53298	34.52
2.54965	34.52
2.56632	34.52
2.58298	34.52
2.59965	34.52
2.61632	34.52
2.63298	34.52
2.64965	34.52
2.66632	34.52
2.68298	34.51
2.69965	34.52
2.71632	34.51
2.73298	34.52
2.74965	34.52
2.76632	34.52
2.78298	34.53
2.79965	34.52
2.81632	34.52
2.83298	34.52
2.84965	34.52
2.86632	34.51
2.88298	34.52
2.89965	34.52
2.91632	34.52
2.93298	34.52
2.94965	34.52
2.96632	34.52
2.98298	34.51
2.99965	34.52
3.01632	34.52
3.03298	34.52
3.04965	34.52
3.06632	34.52
3.08298	34.53
3.09965	34.52
3.11632	34.52
3.13298	34.52
3.14965	34.52
3.16632	34.52
3.18298	34.52
3.19965	34.52
3.21632	34.52
3.23298	34.52
3.24965	34.52
3.26632	34.52
3.28298	34.52
3.29965	34.52
3.31632	34.52
3.33298	34.52
3.34965	34.51
3.36632	34.52
3.38298	34.52
3.39965	34.52
3.41632	34.52
3.43298	34.53
3.44965	34.52
3.46632	34.52
3.48298	34.51
3.49965	34.52
3.51632	34.52
3.53298	34.51
3.54965	34.52
3.56632	34.52
3.58298	34.52
3.59965	34.52
3.61632	34.53
3.63298	34.52
3.64965	34.52
3.66632	34.52
3.68298	34.52
3.69965	34.52
3.71632	34.52
3.73298	34.52
3.74965	34.52
3.76632	34.52
3.78298	34.52
3.79965	34.52
3.81632	34.52
3.83298	34.52
3.84965	34.52
3.86632	34.52
3.88298	34.52
3.89965	34.52
3.91632	34.52
3.93298	34.52
3.94965	34.52
3.96632	34.51
3.98298	34.52
3.99965	34.52

[Status Trace (Column Flow)]
Interval(msec)	1000
# of Points	240
Start Time(min)	0.016
End Time(min)	4.000
Intensity Units	
Intensity Multiplier	1
R.Time (min)	Intensity
0.01632	5.39
0.03298	5.29
0.04965	5.56
0.06632	5.75
0.08298	5.58
0.09965	5.53
0.11632	5.53
0.13298	5.53
0.14965	5.53
0.16632	5.53
0.18298	5.53
0.19965	5.53
0.21632	5.53
0.23298	5.53
0.24965	5.53
0.26632	5.53
0.28298	5.53
0.29965	5.53
0.31632	5.53
0.33298	5.53
0.34965	5.53
0.36632	5.53
0.38298	5.53
0.39965	5.53
0.41632	5.53
0.43298	5.53
0.44965	5.53
0.46632	5.53
0.48298	5.53
0.49965	5.53
0.51632	5.53
0.53298	5.53
0.54965	5.53
0.56632	5.53
0.58298	5.53
0.59965	5.53
0.61632	5.53
0.63298	5.53
0.64965	5.53
0.66632	5.53
0.68298	5.53
0.69965	5.53
0.71632	5.53
0.73298	5.53
0.74965	5.53
0.76632	5.53
0.78298	5.53
0.79965	5.53
0.81632	5.53
0.83298	5.53
0.84965	5.53
0.86632	5.53
0.88298	5.53
0.89965	5.53
0.91632	5.53
0.93298	5.53
0.94965	5.53
0.96632	5.53
0.98298	5.53
0.99965	5.53
1.01632	5.53
1.03298	5.53
1.04965	5.53
1.06632	5.53
1.08298	5.53
1.09965	5.53
1.11632	5.53
1.13298	5.53
1.14965	5.53
1.16632	5.53
1.18298	5.53
1.19965	5.53
1.21632	5.53
1.23298	5.53
1.24965	5.53
1.26632	5.53
1.28298	5.53
1.29965	5.53
1.31632	5.53
1.33298	5.53
1.34965	5.53
1.36632	5.53
1.38298	5.53
1.39965	5.53
1.41632	5.53
1.43298	5.53
1.44965	5.53
1.46632	5.53
1.48298	5.53
1.49965	5.53
1.51632	5.53
1.53298	5.53
1.54965	5.53
1.56632	5.53
1.58298	5.53
1.59965	5.53
1.61632	5.53
1.63298	5.52
1.64965	5.52
1.66632	5.51
1.68298	5.50
1.69965	5.48
1.71632	5.47
1.73298	5.46
1.74965	5.45
1.76632	5.44
1.78298	5.43
1.79965	5.42
1.81632	5.41
1.83298	5.40
1.84965	5.39
1.86632	5.38
1.88298	5.37
1.89965	5.36
1.91632	5.35
1.93298	5.34
1.94965	5.33
1.96632	5.32
1.98298	5.31
1.99965	5.30
2.01632	5.29
2.03298	5.28
2.04965	5.27
2.06632	5.27
2.08298	5.26
2.09965	5.25
2.11632	5.24
2.13298	5.23
2.14965	5.22
2.16632	5.21
2.18298	5.20
2.19965	5.19
2.21632	5.18
2.23298	5.17
2.24965	5.16
2.26632	5.15
2.28298	5.14
2.29965	5.13
2.31632	5.13
2.33298	5.11
2.34965	5.11
2.36632	5.10
2.38298	5.10
2.39965	5.10
2.41632	5.10
2.43298	5.10
2.44965	5.10
2.46632	5.10
2.48298	5.10
2.49965	5.10
2.51632	5.09
2.53298	5.09
2.54965	5.09
2.56632	5.09
2.58298	5.09
2.59965	5.09
2.61632	5.09
2.63298	5.09
2.64965	5.09
2.66632	5.09
2.68298	5.09
2.69965	5.09
2.71632	5.09
2.73298	5.09
2.74965	5.09
2.76632	5.09
2.78298	5.09
2.79965	5.09
2.81632	5.09
2.83298	5.09
2.84965	5.09
2.86632	5.09
2.88298	5.09
2.89965	5.09
2.91632	5.09
2.93298	5.09
2.94965	5.09
2.96632	5.09
2.98298	5.09
2.99965	5.09
3.01632	5.09
3.03298	5.09
3.04965	5.09
3.06632	5.09
3.08298	5.09
3.09965	5.09
3.11632	5.09
3.13298	5.09
3.14965	5.09
3.16632	5.09
3.18298	5.09
3.19965	5.09
3.21632	5.09
3.23298	5.09
3.24965	5.09
3.26632	5.08
3.28298	5.08
3.29965	5.08
3.31632	5.08
3.33298	5.08
3.34965	5.08
3.36632	5.08
3.38298	5.08
3.39965	5.08
3.41632	5.08
3.43298	5.08
3.44965	5.08
3.46632	5.08
3.48298	5.08
3.49965	5.08
3.51632	5.08
3.53298	5.08
3.54965	5.08
3.56632	5.08
3.58298	5.08
3.59965	5.08
3.61632	5.08
3.63298	5.08
3.64965	5.08
3.66632	5.08
3.68298	5.09
3.69965	5.09
3.71632	5.09
3.73298	5.09
3.74965	5.09
3.76632	5.09
3.78298	5.09
3.79965	5.09
3.81632	5.09
3.83298	5.09
3.84965	5.09
3.86632	5.09
3.88298	5.09
3.89965	5.09
3.91632	5.09
3.93298	5.09
3.94965	5.09
3.96632	5.09
3.98298	5.08
3.99965	5.08

[Status Trace (Linear Velocity)]
Interval(msec)	1000
# of Points	240
Start Time(min)	0.016
End Time(min)	4.000
Intensity Units	
Intensity Multiplier	1
R.Time (min)	Intensity
0.01632	38.25
0.03298	37.68
0.04965	39.18
0.06632	40.26
0.08298	39.28
0.09965	39.01
0.11632	39.02
0.13298	39.02
0.14965	39.02
0.16632	39.02
0.18298	39.02
0.19965	39.02
0.21632	39.02
0.23298	39.02
0.24965	39.02
0.26632	39.02
0.28298	39.02
0.29965	39.02
0.31632	39.02
0.33298	39.02
0.34965	39.02
0.36632	39.02
0.38298	39.02
0.39965	39.02
0.41632	39.02
0.43298	39.02
0.44965	39.02
0.46632	39.02
0.48298	39.02
0.49965	39.02
0.51632	39.02
0.53298	39.02
0.54965	39.02
0.56632	39.02
0.58298	39.02
0.59965	39.02
0.61632	39.02
0.63298	39.02
0.64965	39.02
0.66632	39.02
0.68298	39.02
0.69965	39.02
0.71632	39.02
0.73298	39.02
0.74965	39.02
0.76632	39.02
0.78298	39.02
0.79965	39.02
0.81632	39.02
0.83298	39.02
0.84965	39.02
0.86632	39.02
0.88298	39.02
0.89965	39.02
0.91632	39.02
0.93298	39.02
0.94965	39.02
0.96632	39.02
0.98298	39.02
0.99965	39.02
1.01632	39.02
1.03298	39.02
1.04965	39.02
1.06632	39.02
1.08298	39.02
1.09965	39.02
1.11632	39.02
1.13298	39.02
1.14965	39.02
1.16632	39.02
1.18298	39.02
1.19965	39.02
1.21632	39.02
1.23298	39.02
1.24965	39.02
1.26632	39.02
1.28298	39.02
1.29965	39.02
1.31632	39.02
1.33298	39.02
1.34965	39.02
1.36632	39.02
1.38298	39.02
1.39965	39.02
1.41632	39.02
1.43298	39.02
1.44965	39.02
1.46632	39.02
1.48298	39.02
1.49965	39.02
1.51632	39.02
1.53298	39.02
1.54965	39.02
1.56632	39.02
1.58298	39.02
1.59965	39.02
1.61632	39.01
1.63298	39.00
1.64965	38.98
1.66632	38.95
1.68298	38.91
1.69965	38.88
1.71632	38.84
1.73298	38.81
1.74965	38.78
1.76632	38.75
1.78298	38.72
1.79965	38.69
1.81632	38.66
1.83298	38.62
1.84965	38.59
1.86632	38.56
1.88298	38.53
1.89965	38.50
1.91632	38.47
1.93298	38.44
1.94965	38.41
1.96632	38.38
1.98298	38.35
1.99965	38.32
2.01632	38.29
2.03298	38.26
2.04965	38.23
2.06632	38.20
2.08298	38.17
2.09965	38.14
2.11632	38.11
2.13298	38.08
2.14965	38.05
2.16632	38.02
2.18298	37.99
2.19965	37.96
2.21632	37.93
2.23298	37.90
2.24965	37.87
2.26632	37.85
2.28298	37.82
2.29965	37.78
2.31632	37.76
2.33298	37.72
2.34965	37.69
2.36632	37.68
2.38298	37.66
2.39965	37.66
2.41632	37.67
2.43298	37.67
2.44965	37.67
2.46632	37.66
2.48298	37.66
2.49965	37.66
2.51632	37.65
2.53298	37.65
2.54965	37.66
2.56632	37.66
2.58298	37.65
2.59965	37.65
2.61632	37.65
2.63298	37.65
2.64965	37.65
2.66632	37.65
2.68298	37.65
2.69965	37.65
2.71632	37.65
2.73298	37.65
2.74965	37.65
2.76632	37.65
2.78298	37.65
2.79965	37.65
2.81632	37.65
2.83298	37.64
2.84965	37.64
2.86632	37.64
2.88298	37.64
2.89965	37.65
2.91632	37.65
2.93298	37.65
2.94965	37.64
2.96632	37.64
2.98298	37.64
2.99965	37.64
3.01632	37.64
3.03298	37.64
3.04965	37.64
3.06632	37.64
3.08298	37.64
3.09965	37.64
3.11632	37.64
3.13298	37.63
3.14965	37.63
3.16632	37.63
3.18298	37.63
3.19965	37.63
3.21632	37.63
3.23298	37.63
3.24965	37.63
3.26632	37.63
3.28298	37.63
3.29965	37.63
3.31632	37.63
3.33298	37.63
3.34965	37.63
3.36632	37.63
3.38298	37.63
3.39965	37.63
3.41632	37.63
3.43298	37.63
3.44965	37.63
3.46632	37.63
3.48298	37.63
3.49965	37.63
3.51632	37.63
3.53298	37.63
3.54965	37.63
3.56632	37.63
3.58298	37.63
3.59965	37.63
3.61632	37.63
3.63298	37.62
3.64965	37.62
3.66632	37.63
3.68298	37.63
3.69965	37.63
3.71632	37.63
3.73298	37.63
3.74965	37.63
3.76632	37.63
3.78298	37.63
3.79965	37.63
3.81632	37.63
3.83298	37.63
3.84965	37.63
3.86632	37.63
3.88298	37.63
3.89965	37.63
3.91632	37.63
3.93298	37.63
3.94965	37.63
3.96632	37.63
3.98298	37.63
3.99965	37.63

