[Header]
Application Name	LabSolutions
Version	5.110
Data File Name	C:\Users\User\Desktop\Junior\UIC Prairie Sampling\5.18.23\05182023_009.gcd
Output Date	6/5/2023
Output Time	2:17:24 PM

[File Information]
Type	Data File
Generated	5/24/2023 12:37:36 PM
Generated by	System Administrator
Modified	5/24/2023 12:44:42 PM
Modified by	System Administrator

[Sample Information]
Operator Name	System Administrator
Acquired	5/24/2023 12:40:41 PM
Sample Type	0:Unknown
Level	0
Sample Name	009
Sample ID	009
ISTD Amount1	1
ISTD Amount2	1
ISTD Amount3	1
ISTD Amount4	1
ISTD Amount5	1
ISTD Amount6	1
ISTD Amount7	1
ISTD Amount8	1
ISTD Amount9	1
ISTD Amount10	1
ISTD Amount11	1
ISTD Amount12	1
ISTD Amount13	1
ISTD Amount14	1
ISTD Amount15	1
ISTD Amount16	1
ISTD Amount17	1
ISTD Amount18	1
ISTD Amount19	1
ISTD Amount20	1
ISTD Amount21	1
ISTD Amount22	1
ISTD Amount23	1
ISTD Amount24	1
ISTD Amount25	1
ISTD Amount26	1
ISTD Amount27	1
ISTD Amount28	1
ISTD Amount29	1
ISTD Amount30	1
ISTD Amount31	1
ISTD Amount32	1
Sample Amount	1
Dilution Factor	1
Vial#	8
Injection Volume	1
Injection Count	1
Bar Code	

[Original Files]
Data File	C:\Users\User\Desktop\Junior\UIC Prairie Sampling\5.18.23\05182023_009.gcd
Method File	C:\LabSolutions\Data\GHG_4min_2022\ghg3_togas_w_acet_4 min_new_int.gcm
Batch File	C:\LabSolutions\Data\AutoSamplerTesting\05182023.gcb
Report Format File	c:\LabSolutions\System\DEFAULT.lsr

[File Description]


[Configuration]
Instrument Name	C0B7VH3-Instrument1
Instrument #	1
Line #	1
# of Detectors	3
Detector ID	DET#1	DET#2	DET#3
Detector Name	FID	PTCD	ECD
# of Channels	1	1	1

[Peak Table(Ch1)]
# of Peaks	4
Peak#	R.Time	I.Time	F.Time	Area	Height	A/H	Conc.	Mark	ID#	Name	k'	Plate #	Plate Ht.	Tailing	Resolution	Sep.Factor	Area Ratio	Height Ratio	Conc. %	Norm Conc.
1	1.472	1.428	1.527	4035	1932	2.088	0.000	   	1	CO	0.000	9404	15.950	1.228	0.000	0.000	0	0	0.000	0.000
2	1.564	1.527	1.633	5264	2611	2.016	25.663	 V 	2	CH4	0.062	11296	13.279	1.206	1.533	0.000	0	0	11.102	11.102
3	1.993	1.945	2.396	1066243	507825	2.100	205.485	   	3	CO2	0.354	17472	8.585	1.178	7.201	5.680	0	0	88.898	88.898
4	3.100	2.583	3.617	3581	99	36.078	0.000	   	5	Acetylene	1.106	754	198.823	1.005	4.328	3.127	0	0	0.000	0.000

[Peak Table(Ch2)]
# of Peaks	0

[Peak Table(Ch3)]
# of Peaks	4
Peak#	R.Time	I.Time	F.Time	Area	Height	A/H	Conc.	Mark	ID#	Name	k'	Plate #	Plate Ht.	Tailing	Resolution	Sep.Factor	Area Ratio	Height Ratio	Conc. %	Norm Conc.
1	2.458	2.440	2.502	734	287	2.556	0.000	   			0.000	15422	9.727	0.000	0.000	0.000	0	0	0.000	0.000
2	2.517	2.502	2.565	374	148	2.519	0.000	 V 			0.024	4302	34.868	0.000	0.504	0.000	0	0	0.000	0.000
3	2.616	2.565	2.678	434	121	3.591	0.000	 V 			0.064	9376	15.999	0.000	0.757	2.688	0	0	0.000	0.000
4	2.891	2.704	3.874	35444	5079	6.979	0.524	   	1	N2O	0.176	11731	12.786	3.026	2.560	2.744	0	0	100.000	100.000

[Compound Results(Ch1)]
# of IDs	6
ID#	Name	R.Time	Area	Height	Conc.	Curve	3rd	2nd	1st	Constant	Area Ratio	Height Ratio	Conc. %	Norm Conc.
1	CO	1.472	4035	1932	0.000	Linear	0.000000e+00	0.000000e+00	0.000000e+00	0.000000e+00	0	0	0.000	0.000
2	CH4	1.564	5264	2611	25.663	Linear	0.000000e+00	0.000000e+00	2.051179e+002	0.000000e+00	0	0	11.102	11.102
3	CO2	1.993	1066243	507825	205.485	Linear	0.000000e+00	0.000000e+00	5.188919e+003	0.000000e+00	0	0	88.898	88.898
4	Ethylene	0.000	0	0	0.000	Linear	0.000000e+00	0.000000e+00	0.000000e+00	0.000000e+00	0	0	0.000	0.000
5	Acetylene	3.100	3581	99	0.000	Linear	0.000000e+00	0.000000e+00	0.000000e+00	0.000000e+00	0	0	0.000	0.000
6	Ethane	0.000	0	0	0.000	Linear	0.000000e+00	0.000000e+00	0.000000e+00	0.000000e+00	0	0	0.000	0.000

[Compound Results(Ch2)]
# of IDs	5
ID#	Name	R.Time	Area	Height	Conc.	Curve	3rd	2nd	1st	Constant	Area Ratio	Height Ratio	Conc. %	Norm Conc.
1	Hydrogen	0.000	0	0	0.000	Linear	0.000000e+00	0.000000e+00	0.000000e+00	0.000000e+00	0	0	0.000	0.000
2	Oxygen	0.000	0	0	0.000	Linear	0.000000e+00	0.000000e+00	0.000000e+00	0.000000e+00	0	0	0.000	0.000
3	Nitrogen	0.000	0	0	0.000	Linear	0.000000e+00	0.000000e+00	0.000000e+00	0.000000e+00	0	0	0.000	0.000
4	Methane	0.000	0	0	0.000	Linear	0.000000e+00	0.000000e+00	0.000000e+00	0.000000e+00	0	0	0.000	0.000
5	Carbon Monoxide	0.000	0	0	0.000	Linear	0.000000e+00	0.000000e+00	0.000000e+00	0.000000e+00	0	0	0.000	0.000

[Compound Results(Ch3)]
# of IDs	2
ID#	Name	R.Time	Area	Height	Conc.	Curve	3rd	2nd	1st	Constant	Area Ratio	Height Ratio	Conc. %	Norm Conc.
1	N2O	2.891	35444	5079	0.524	Linear	0.000000e+00	0.000000e+00	6.759880e+004	0.000000e+00	0	0	100.000	100.000
2	SF6	0.000	0	0	0.000	Linear	0.000000e+00	0.000000e+00	0.000000e+00	0.000000e+00	0	0	0.000	0.000

[Group Results(Ch1)]
# of Groups	0

[Group Results(Ch2)]
# of Groups	0

[Group Results(Ch3)]
# of Groups	0

[Chromatogram (Ch1)]
Interval(msec)	220
# of Points	1091
Start Time(min)	0.002
End Time(min)	3.998
R.Time (min)	Intensity
0.00167	9
0.00533	4
0.00900	1
0.01267	-3
0.01633	-7
0.02000	-11
0.02367	-15
0.02733	-15
0.03100	-17
0.03467	-19
0.03833	-18
0.04200	-16
0.04567	-11
0.04933	-4
0.05300	3
0.05667	6
0.06033	12
0.06400	17
0.06767	18
0.07133	15
0.07500	10
0.07867	4
0.08233	-1
0.08600	-0
0.08967	4
0.09333	4
0.09700	-2
0.10067	-11
0.10433	-15
0.10800	-13
0.11167	-9
0.11533	-8
0.11900	-7
0.12267	-6
0.12633	-4
0.13000	-3
0.13367	-5
0.13733	-10
0.14100	-15
0.14467	-19
0.14833	-21
0.15200	-22
0.15567	-21
0.15933	-18
0.16300	-13
0.16667	-4
0.17033	6
0.17400	11
0.17767	10
0.18133	5
0.18500	1
0.18867	-2
0.19233	-5
0.19600	-9
0.19967	-9
0.20333	-9
0.20700	-8
0.21067	-5
0.21433	-3
0.21800	-2
0.22167	0
0.22533	3
0.22900	2
0.23267	1
0.23633	-4
0.24000	-10
0.24367	-17
0.24733	-21
0.25100	-22
0.25467	-22
0.25833	-18
0.26200	-12
0.26567	-5
0.26933	0
0.27300	-2
0.27667	-7
0.28033	-8
0.28400	-5
0.28767	-3
0.29133	-3
0.29500	-5
0.29867	-7
0.30233	-9
0.30600	-10
0.30967	-11
0.31333	-13
0.31700	-16
0.32067	-17
0.32433	-13
0.32800	-8
0.33167	-7
0.33533	-8
0.33900	-10
0.34267	-10
0.34633	-7
0.35000	-5
0.35367	-7
0.35733	-9
0.36100	-9
0.36467	-8
0.36833	-5
0.37200	-5
0.37567	-8
0.37933	-11
0.38300	-12
0.38667	-12
0.39033	-13
0.39400	-13
0.39767	-11
0.40133	-12
0.40500	-16
0.40867	-17
0.41233	-17
0.41600	-17
0.41967	-12
0.42333	-5
0.42700	-0
0.43067	1
0.43433	-3
0.43800	-10
0.44167	-13
0.44533	-16
0.44900	-20
0.45267	-23
0.45633	-24
0.46000	-24
0.46367	-24
0.46733	-21
0.47100	-19
0.47467	-15
0.47833	-14
0.48200	-14
0.48567	-11
0.48933	-9
0.49300	-6
0.49667	-5
0.50033	-4
0.50400	-2
0.50767	-0
0.51133	-2
0.51500	-5
0.51867	-7
0.52233	-6
0.52600	-5
0.52967	-8
0.53333	-10
0.53700	-9
0.54067	-8
0.54433	-9
0.54800	-10
0.55167	-14
0.55533	-17
0.55900	-15
0.56267	-11
0.56633	-3
0.57000	2
0.57367	2
0.57733	2
0.58100	-2
0.58467	-9
0.58833	-16
0.59200	-19
0.59567	-16
0.59933	-13
0.60300	-13
0.60667	-12
0.61033	-12
0.61400	-14
0.61767	-15
0.62133	-21
0.62500	-23
0.62867	-22
0.63233	-20
0.63600	-18
0.63967	-18
0.64333	-19
0.64700	-19
0.65067	-20
0.65433	-22
0.65800	-28
0.66167	-34
0.66533	-33
0.66900	-26
0.67267	-18
0.67633	-14
0.68000	-13
0.68367	-14
0.68733	-13
0.69100	-13
0.69467	-12
0.69833	-10
0.70200	-9
0.70567	-4
0.70933	4
0.71300	7
0.71667	2
0.72033	-4
0.72400	-12
0.72767	-23
0.73133	-33
0.73500	-38
0.73867	-37
0.74233	-31
0.74600	-24
0.74967	-19
0.75333	-16
0.75700	-14
0.76067	-18
0.76433	-25
0.76800	-24
0.77167	-18
0.77533	-12
0.77900	-10
0.78267	-11
0.78633	-13
0.79000	-11
0.79367	-10
0.79733	-14
0.80100	-22
0.80467	-31
0.80833	-38
0.81200	-45
0.81567	-50
0.81933	-52
0.82300	-51
0.82667	-46
0.83033	-37
0.83400	-26
0.83767	-21
0.84133	-17
0.84500	-16
0.84867	-18
0.85233	-21
0.85600	-23
0.85967	-26
0.86333	-32
0.86700	-38
0.87067	-38
0.87433	-35
0.87800	-29
0.88167	-23
0.88533	-17
0.88900	-14
0.89267	-15
0.89633	-17
0.90000	-23
0.90367	-29
0.90733	-30
0.91100	-26
0.91467	-22
0.91833	-21
0.92200	-20
0.92567	-23
0.92933	-30
0.93300	-38
0.93667	-42
0.94033	-40
0.94400	-36
0.94767	-30
0.95133	-24
0.95500	-18
0.95867	-15
0.96233	-17
0.96600	-19
0.96967	-23
0.97333	-25
0.97700	-25
0.98067	-28
0.98433	-35
0.98800	-41
0.99167	-45
0.99533	-45
0.99900	-41
1.00267	-34
1.00633	-27
1.01000	-20
1.01367	-16
1.01733	-16
1.02100	-15
1.02467	-14
1.02833	-13
1.03200	-15
1.03567	-20
1.03933	-25
1.04300	-28
1.04667	-33
1.05033	-40
1.05400	-44
1.05767	-43
1.06133	-39
1.06500	-33
1.06867	-30
1.07233	-28
1.07600	-26
1.07967	-29
1.08333	-31
1.08700	-32
1.09067	-32
1.09433	-28
1.09800	-26
1.10167	-27
1.10533	-27
1.10900	-24
1.11267	-21
1.11633	-21
1.12000	-27
1.12367	-34
1.12733	-38
1.13100	-42
1.13467	-42
1.13833	-37
1.14200	-26
1.14567	-20
1.14933	-26
1.15300	-35
1.15667	-41
1.16033	-47
1.16400	-46
1.16767	-37
1.17133	-30
1.17500	-30
1.17867	-32
1.18233	-32
1.18600	-30
1.18967	-31
1.19333	-38
1.19700	-48
1.20067	-52
1.20433	-53
1.20800	-49
1.21167	-44
1.21533	-41
1.21900	-42
1.22267	-42
1.22633	-39
1.23000	-34
1.23367	-30
1.23733	-28
1.24100	-28
1.24467	-29
1.24833	-29
1.25200	-27
1.25567	-25
1.25933	-29
1.26300	-39
1.26667	-48
1.27033	-54
1.27400	-59
1.27767	-63
1.28133	-65
1.28500	-62
1.28867	-56
1.29233	-45
1.29600	-36
1.29967	-30
1.30333	-29
1.30700	-30
1.31067	-33
1.31433	-33
1.31800	-31
1.32167	-28
1.32533	-26
1.32900	-30
1.33267	-36
1.33633	-43
1.34000	-48
1.34367	-51
1.34733	-51
1.35100	-52
1.35467	-52
1.35833	-51
1.36200	-52
1.36567	-52
1.36933	-56
1.37300	-58
1.37667	-57
1.38033	-57
1.38400	-55
1.38767	-50
1.39133	-44
1.39500	-39
1.39867	-38
1.40233	-40
1.40600	-42
1.40967	-46
1.41333	-51
1.41700	-54
1.42067	-55
1.42433	-54
1.42800	-52
1.43167	-47
1.43533	-33
1.43900	-4
1.44267	28
1.44633	93
1.45000	280
1.45367	600
1.45733	970
1.46100	1312
1.46467	1586
1.46833	1780
1.47200	1871
1.47567	1833
1.47933	1661
1.48300	1397
1.48667	1098
1.49033	814
1.49400	573
1.49767	387
1.50133	252
1.50500	157
1.50867	87
1.51233	38
1.51600	4
1.51967	-16
1.52333	-26
1.52700	-32
1.53067	-32
1.53433	4
1.53800	144
1.54167	450
1.54533	904
1.54900	1410
1.55267	1871
1.55633	2232
1.56000	2462
1.56367	2529
1.56733	2405
1.57100	2103
1.57467	1694
1.57833	1268
1.58200	893
1.58567	597
1.58933	381
1.59300	232
1.59667	133
1.60033	70
1.60400	33
1.60767	9
1.61133	-8
1.61500	-22
1.61867	-32
1.62233	-46
1.62600	-64
1.62967	-83
1.63333	-96
1.63700	-98
1.64067	-98
1.64433	-100
1.64800	-102
1.65167	-104
1.65533	-103
1.65900	-100
1.66267	-96
1.66633	-93
1.67000	-94
1.67367	-95
1.67733	-93
1.68100	-91
1.68467	-90
1.68833	-84
1.69200	-76
1.69567	-76
1.69933	-81
1.70300	-85
1.70667	-90
1.71033	-94
1.71400	-97
1.71767	-92
1.72133	-83
1.72500	-75
1.72867	-67
1.73233	-67
1.73600	-74
1.73967	-79
1.74333	-79
1.74700	-76
1.75067	-72
1.75433	-68
1.75800	-65
1.76167	-63
1.76533	-62
1.76900	-61
1.77267	-61
1.77633	-61
1.78000	-62
1.78367	-64
1.78733	-68
1.79100	-70
1.79467	-71
1.79833	-71
1.80200	-71
1.80567	-70
1.80933	-69
1.81300	-70
1.81667	-73
1.82033	-76
1.82400	-81
1.82767	-84
1.83133	-85
1.83500	-87
1.83867	-89
1.84233	-90
1.84600	-91
1.84967	-90
1.85333	-89
1.85700	-89
1.86067	-90
1.86433	-90
1.86800	-85
1.87167	-77
1.87533	-71
1.87900	-68
1.88267	-65
1.88633	-62
1.89000	-62
1.89367	-64
1.89733	-65
1.90100	-66
1.90467	-69
1.90833	-70
1.91200	-69
1.91567	-66
1.91933	-65
1.92300	-66
1.92667	-68
1.93033	-71
1.93400	-75
1.93767	-78
1.94133	-79
1.94500	-70
1.94867	-12
1.95233	333
1.95600	2005
1.95967	8171
1.96333	25424
1.96700	62770
1.97067	126163
1.97433	212434
1.97800	308879
1.98167	398992
1.98533	468196
1.98900	506213
1.99267	507788
1.99633	474030
2.00000	413049
2.00367	337830
2.00733	261644
2.01100	194011
2.01467	139377
2.01833	98130
2.02200	68431
2.02567	47723
2.02933	33566
2.03300	23988
2.03667	17528
2.04033	13150
2.04400	10151
2.04767	8064
2.05133	6584
2.05500	5512
2.05867	4714
2.06233	4103
2.06600	3623
2.06967	3240
2.07333	2925
2.07700	2661
2.08067	2441
2.08433	2256
2.08800	2100
2.09167	1961
2.09533	1833
2.09900	1714
2.10267	1602
2.10633	1506
2.11000	1422
2.11367	1347
2.11733	1281
2.12100	1220
2.12467	1162
2.12833	1104
2.13200	1047
2.13567	996
2.13933	949
2.14300	905
2.14667	866
2.15033	835
2.15400	811
2.15767	787
2.16133	762
2.16500	739
2.16867	718
2.17233	699
2.17600	680
2.17967	661
2.18333	646
2.18700	638
2.19067	628
2.19433	609
2.19800	582
2.20167	553
2.20533	525
2.20900	500
2.21267	482
2.21633	469
2.22000	459
2.22367	448
2.22733	437
2.23100	427
2.23467	419
2.23833	412
2.24200	410
2.24567	416
2.24933	420
2.25300	413
2.25667	400
2.26033	389
2.26400	379
2.26767	372
2.27133	370
2.27500	366
2.27867	360
2.28233	352
2.28600	343
2.28967	335
2.29333	328
2.29700	327
2.30067	326
2.30433	324
2.30800	319
2.31167	312
2.31533	307
2.31900	302
2.32267	294
2.32633	286
2.33000	277
2.33367	271
2.33733	272
2.34100	279
2.34467	286
2.34833	288
2.35200	287
2.35567	284
2.35933	278
2.36300	272
2.36667	266
2.37033	264
2.37400	262
2.37767	261
2.38133	259
2.38500	259
2.38867	257
2.39233	252
2.39600	247
2.39967	243
2.40333	240
2.40700	240
2.41067	244
2.41433	253
2.41800	257
2.42167	258
2.42533	258
2.42900	257
2.43267	254
2.43633	247
2.44000	239
2.44367	230
2.44733	222
2.45100	220
2.45467	224
2.45833	230
2.46200	237
2.46567	242
2.46933	245
2.47300	246
2.47667	247
2.48033	246
2.48400	243
2.48767	241
2.49133	239
2.49500	236
2.49867	235
2.50233	236
2.50600	241
2.50967	253
2.51333	266
2.51700	272
2.52067	266
2.52433	254
2.52800	242
2.53167	233
2.53533	226
2.53900	224
2.54267	225
2.54633	227
2.55000	230
2.55367	229
2.55733	225
2.56100	220
2.56467	215
2.56833	214
2.57200	215
2.57567	220
2.57933	226
2.58300	228
2.58667	230
2.59033	235
2.59400	240
2.59767	247
2.60133	249
2.60500	251
2.60867	254
2.61233	259
2.61600	263
2.61967	263
2.62333	258
2.62700	251
2.63067	247
2.63433	247
2.63800	248
2.64167	252
2.64533	257
2.64900	263
2.65267	267
2.65633	270
2.66000	276
2.66367	280
2.66733	277
2.67100	274
2.67467	269
2.67833	263
2.68200	257
2.68567	258
2.68933	265
2.69300	271
2.69667	274
2.70033	274
2.70400	275
2.70767	280
2.71133	287
2.71500	288
2.71867	286
2.72233	283
2.72600	283
2.72967	286
2.73333	286
2.73700	284
2.74067	282
2.74433	281
2.74800	281
2.75167	284
2.75533	285
2.75900	285
2.76267	287
2.76633	287
2.77000	286
2.77367	284
2.77733	284
2.78100	287
2.78467	293
2.78833	299
2.79200	304
2.79567	303
2.79933	298
2.80300	295
2.80667	293
2.81033	290
2.81400	286
2.81767	279
2.82133	278
2.82500	285
2.82867	298
2.83233	312
2.83600	324
2.83967	328
2.84333	326
2.84700	322
2.85067	318
2.85433	315
2.85800	310
2.86167	306
2.86533	303
2.86900	301
2.87267	302
2.87633	303
2.88000	302
2.88367	303
2.88733	305
2.89100	309
2.89467	315
2.89833	320
2.90200	320
2.90567	316
2.90933	314
2.91300	313
2.91667	314
2.92033	317
2.92400	320
2.92767	322
2.93133	323
2.93500	324
2.93867	325
2.94233	328
2.94600	333
2.94967	337
2.95333	336
2.95700	334
2.96067	333
2.96433	334
2.96800	335
2.97167	337
2.97533	340
2.97900	343
2.98267	343
2.98633	342
2.99000	345
2.99367	347
2.99733	349
3.00100	351
3.00467	350
3.00833	347
3.01200	343
3.01567	341
3.01933	336
3.02300	331
3.02667	331
3.03033	336
3.03400	342
3.03767	346
3.04133	345
3.04500	343
3.04867	347
3.05233	348
3.05600	346
3.05967	345
3.06333	346
3.06700	341
3.07067	337
3.07433	338
3.07800	338
3.08167	341
3.08533	345
3.08900	348
3.09267	352
3.09633	357
3.10000	358
3.10367	355
3.10733	348
3.11100	341
3.11467	339
3.11833	339
3.12200	340
3.12567	343
3.12933	346
3.13300	350
3.13667	349
3.14033	345
3.14400	343
3.14767	342
3.15133	342
3.15500	344
3.15867	347
3.16233	353
3.16600	357
3.16967	356
3.17333	351
3.17700	343
3.18067	338
3.18433	337
3.18800	334
3.19167	331
3.19533	327
3.19900	324
3.20267	322
3.20633	326
3.21000	337
3.21367	341
3.21733	342
3.22100	339
3.22467	335
3.22833	330
3.23200	329
3.23567	330
3.23933	330
3.24300	328
3.24667	329
3.25033	331
3.25400	331
3.25767	330
3.26133	332
3.26500	334
3.26867	336
3.27233	337
3.27600	334
3.27967	328
3.28333	328
3.28700	330
3.29067	333
3.29433	337
3.29800	340
3.30167	343
3.30533	346
3.30900	348
3.31267	349
3.31633	347
3.32000	345
3.32367	345
3.32733	345
3.33100	346
3.33467	347
3.33833	345
3.34200	343
3.34567	339
3.34933	335
3.35300	333
3.35667	331
3.36033	332
3.36400	335
3.36767	339
3.37133	346
3.37500	348
3.37867	345
3.38233	340
3.38600	333
3.38967	331
3.39333	333
3.39700	336
3.40067	338
3.40433	337
3.40800	331
3.41167	320
3.41533	311
3.41900	306
3.42267	308
3.42633	312
3.43000	314
3.43367	315
3.43733	320
3.44100	330
3.44467	337
3.44833	335
3.45200	326
3.45567	319
3.45933	317
3.46300	314
3.46667	313
3.47033	315
3.47400	315
3.47767	313
3.48133	313
3.48500	313
3.48867	311
3.49233	307
3.49600	305
3.49967	303
3.50333	304
3.50700	307
3.51067	311
3.51433	317
3.51800	322
3.52167	326
3.52533	330
3.52900	333
3.53267	333
3.53633	330
3.54000	324
3.54367	319
3.54733	315
3.55100	314
3.55467	315
3.55833	314
3.56200	313
3.56567	310
3.56933	307
3.57300	308
3.57667	310
3.58033	314
3.58400	317
3.58767	317
3.59133	318
3.59500	321
3.59867	323
3.60233	322
3.60600	317
3.60967	309
3.61333	299
3.61700	289
3.62067	281
3.62433	277
3.62800	277
3.63167	279
3.63533	279
3.63900	280
3.64267	284
3.64633	287
3.65000	294
3.65367	300
3.65733	304
3.66100	309
3.66467	314
3.66833	315
3.67200	310
3.67567	304
3.67933	298
3.68300	294
3.68667	293
3.69033	291
3.69400	288
3.69767	289
3.70133	296
3.70500	302
3.70867	299
3.71233	290
3.71600	281
3.71967	279
3.72333	279
3.72700	280
3.73067	282
3.73433	285
3.73800	287
3.74167	284
3.74533	280
3.74900	275
3.75267	274
3.75633	275
3.76000	276
3.76367	278
3.76733	281
3.77100	284
3.77467	287
3.77833	288
3.78200	291
3.78567	296
3.78933	300
3.79300	300
3.79667	298
3.80033	288
3.80400	276
3.80767	264
3.81133	258
3.81500	255
3.81867	252
3.82233	250
3.82600	249
3.82967	247
3.83333	248
3.83700	254
3.84067	259
3.84433	260
3.84800	258
3.85167	254
3.85533	247
3.85900	245
3.86267	247
3.86633	250
3.87000	253
3.87367	255
3.87733	260
3.88100	266
3.88467	270
3.88833	273
3.89200	275
3.89567	276
3.89933	279
3.90300	284
3.90667	286
3.91033	285
3.91400	284
3.91767	280
3.92133	276
3.92500	273
3.92867	273
3.93233	274
3.93600	274
3.93967	273
3.94333	270
3.94700	266
3.95067	260
3.95433	255
3.95800	254
3.96167	257
3.96533	260
3.96900	257
3.97267	252
3.97633	248
3.98000	244
3.98367	243
3.98733	244
3.99100	244
3.99467	243
3.99833	244

[Chromatogram (Ch2)]
Interval(msec)	220
# of Points	1091
Start Time(min)	0.002
End Time(min)	3.998
R.Time (min)	Intensity
0.00167	0
0.00533	0
0.00900	0
0.01267	0
0.01633	0
0.02000	-0
0.02367	-0
0.02733	-1
0.03100	-1
0.03467	-1
0.03833	-2
0.04200	-2
0.04567	-3
0.04933	-3
0.05300	-3
0.05667	-3
0.06033	-3
0.06400	-3
0.06767	-3
0.07133	-3
0.07500	-3
0.07867	-2
0.08233	-2
0.08600	-2
0.08967	-2
0.09333	-1
0.09700	-1
0.10067	-1
0.10433	-1
0.10800	-1
0.11167	-0
0.11533	-0
0.11900	-0
0.12267	0
0.12633	0
0.13000	0
0.13367	0
0.13733	-0
0.14100	-0
0.14467	-0
0.14833	-0
0.15200	-0
0.15567	-1
0.15933	-1
0.16300	-2
0.16667	-2
0.17033	-2
0.17400	-2
0.17767	-2
0.18133	-2
0.18500	-2
0.18867	-2
0.19233	-2
0.19600	-2
0.19967	-2
0.20333	-2
0.20700	-2
0.21067	-2
0.21433	-1
0.21800	-1
0.22167	-1
0.22533	-1
0.22900	-1
0.23267	-1
0.23633	-1
0.24000	-1
0.24367	-1
0.24733	-2
0.25100	-2
0.25467	-3
0.25833	-3
0.26200	-3
0.26567	-4
0.26933	-4
0.27300	-4
0.27667	-4
0.28033	-4
0.28400	-4
0.28767	-4
0.29133	-4
0.29500	-4
0.29867	-4
0.30233	-4
0.30600	-4
0.30967	-4
0.31333	-5
0.31700	-5
0.32067	-5
0.32433	-5
0.32800	-5
0.33167	-4
0.33533	-4
0.33900	-4
0.34267	-4
0.34633	-4
0.35000	-4
0.35367	-4
0.35733	-4
0.36100	-4
0.36467	-5
0.36833	-5
0.37200	-5
0.37567	-5
0.37933	-5
0.38300	-5
0.38667	-6
0.39033	-6
0.39400	-6
0.39767	-5
0.40133	-5
0.40500	-5
0.40867	-5
0.41233	-5
0.41600	-5
0.41967	-5
0.42333	-4
0.42700	-4
0.43067	-4
0.43433	-4
0.43800	-3
0.44167	-3
0.44533	-2
0.44900	-2
0.45267	-1
0.45633	-1
0.46000	-0
0.46367	-0
0.46733	-0
0.47100	-1
0.47467	-1
0.47833	-1
0.48200	-1
0.48567	-0
0.48933	-0
0.49300	0
0.49667	0
0.50033	0
0.50400	0
0.50767	1
0.51133	0
0.51500	0
0.51867	0
0.52233	1
0.52600	1
0.52967	1
0.53333	1
0.53700	1
0.54067	1
0.54433	0
0.54800	0
0.55167	-0
0.55533	-0
0.55900	-0
0.56267	-1
0.56633	-1
0.57000	-1
0.57367	-2
0.57733	-2
0.58100	-2
0.58467	-2
0.58833	-2
0.59200	-2
0.59567	-2
0.59933	-2
0.60300	-2
0.60667	-2
0.61033	-2
0.61400	-3
0.61767	-3
0.62133	-3
0.62500	-3
0.62867	-3
0.63233	-3
0.63600	-3
0.63967	-3
0.64333	-3
0.64700	-4
0.65067	-4
0.65433	-4
0.65800	-5
0.66167	-5
0.66533	-5
0.66900	-5
0.67267	-5
0.67633	-5
0.68000	-5
0.68367	-5
0.68733	-5
0.69100	-5
0.69467	-5
0.69833	-4
0.70200	-4
0.70567	-3
0.70933	-3
0.71300	-2
0.71667	-2
0.72033	-1
0.72400	-1
0.72767	-1
0.73133	-1
0.73500	-0
0.73867	-0
0.74233	-1
0.74600	-1
0.74967	-1
0.75333	-1
0.75700	-1
0.76067	-2
0.76433	-2
0.76800	-2
0.77167	-2
0.77533	-2
0.77900	-3
0.78267	-3
0.78633	-3
0.79000	-3
0.79367	-3
0.79733	-3
0.80100	-3
0.80467	-3
0.80833	-3
0.81200	-3
0.81567	-3
0.81933	-3
0.82300	-3
0.82667	-3
0.83033	-3
0.83400	-3
0.83767	-3
0.84133	-4
0.84500	-4
0.84867	-4
0.85233	-4
0.85600	-4
0.85967	-4
0.86333	-5
0.86700	-5
0.87067	-5
0.87433	-5
0.87800	-5
0.88167	-5
0.88533	-6
0.88900	-6
0.89267	-5
0.89633	-5
0.90000	-5
0.90367	-5
0.90733	-5
0.91100	-4
0.91467	-4
0.91833	-4
0.92200	-4
0.92567	-3
0.92933	-3
0.93300	-3
0.93667	-3
0.94033	-4
0.94400	-4
0.94767	-4
0.95133	-4
0.95500	-4
0.95867	-5
0.96233	-5
0.96600	-5
0.96967	-5
0.97333	-5
0.97700	-5
0.98067	-5
0.98433	-5
0.98800	-5
0.99167	-5
0.99533	-5
0.99900	-5
1.00267	-5
1.00633	-5
1.01000	-5
1.01367	-4
1.01733	-4
1.02100	-4
1.02467	-4
1.02833	-4
1.03200	-3
1.03567	-3
1.03933	-3
1.04300	-3
1.04667	-3
1.05033	-2
1.05400	-2
1.05767	-2
1.06133	-2
1.06500	-3
1.06867	-3
1.07233	-3
1.07600	-3
1.07967	-3
1.08333	-3
1.08700	-3
1.09067	-3
1.09433	-3
1.09800	-2
1.10167	-2
1.10533	-2
1.10900	-2
1.11267	-3
1.11633	-3
1.12000	-3
1.12367	-4
1.12733	-4
1.13100	-4
1.13467	-4
1.13833	-4
1.14200	-5
1.14567	-5
1.14933	-5
1.15300	-5
1.15667	-5
1.16033	-5
1.16400	-5
1.16767	-5
1.17133	-5
1.17500	-5
1.17867	-5
1.18233	-4
1.18600	-4
1.18967	-4
1.19333	-3
1.19700	-3
1.20067	-3
1.20433	-3
1.20800	-3
1.21167	-3
1.21533	-3
1.21900	-3
1.22267	-3
1.22633	-4
1.23000	-4
1.23367	-4
1.23733	-4
1.24100	-4
1.24467	-4
1.24833	-4
1.25200	-4
1.25567	-4
1.25933	-4
1.26300	-4
1.26667	-4
1.27033	-4
1.27400	-4
1.27767	-3
1.28133	-3
1.28500	-3
1.28867	-3
1.29233	-3
1.29600	-3
1.29967	-3
1.30333	-3
1.30700	-3
1.31067	-3
1.31433	-3
1.31800	-3
1.32167	-3
1.32533	-3
1.32900	-3
1.33267	-4
1.33633	-4
1.34000	-4
1.34367	-4
1.34733	-4
1.35100	-4
1.35467	-4
1.35833	-4
1.36200	-4
1.36567	-4
1.36933	-3
1.37300	-3
1.37667	-3
1.38033	-4
1.38400	-4
1.38767	-4
1.39133	-4
1.39500	-4
1.39867	-4
1.40233	-4
1.40600	-4
1.40967	-4
1.41333	-4
1.41700	-4
1.42067	-4
1.42433	-4
1.42800	-5
1.43167	-5
1.43533	-5
1.43900	-5
1.44267	-5
1.44633	-5
1.45000	-5
1.45367	-5
1.45733	-5
1.46100	-5
1.46467	-5
1.46833	-5
1.47200	-4
1.47567	-4
1.47933	-4
1.48300	-4
1.48667	-5
1.49033	-5
1.49400	-5
1.49767	-5
1.50133	-5
1.50500	-5
1.50867	-5
1.51233	-5
1.51600	-5
1.51967	-5
1.52333	-5
1.52700	-5
1.53067	-5
1.53433	-5
1.53800	-5
1.54167	-5
1.54533	-5
1.54900	-5
1.55267	-5
1.55633	-5
1.56000	-5
1.56367	-5
1.56733	-5
1.57100	-5
1.57467	-5
1.57833	-5
1.58200	-5
1.58567	-6
1.58933	-6
1.59300	-6
1.59667	-7
1.60033	-8
1.60400	-9
1.60767	-10
1.61133	-12
1.61500	-14
1.61867	-16
1.62233	-18
1.62600	-21
1.62967	-24
1.63333	-27
1.63700	-30
1.64067	-33
1.64433	-36
1.64800	-40
1.65167	-43
1.65533	-46
1.65900	-50
1.66267	-54
1.66633	-57
1.67000	-61
1.67367	-66
1.67733	-70
1.68100	-75
1.68467	-80
1.68833	-84
1.69200	-88
1.69567	-92
1.69933	-95
1.70300	-97
1.70667	-99
1.71033	-100
1.71400	-101
1.71767	-102
1.72133	-102
1.72500	-103
1.72867	-103
1.73233	-104
1.73600	-104
1.73967	-105
1.74333	-106
1.74700	-106
1.75067	-107
1.75433	-108
1.75800	-108
1.76167	-108
1.76533	-108
1.76900	-107
1.77267	-107
1.77633	-106
1.78000	-105
1.78367	-104
1.78733	-103
1.79100	-103
1.79467	-103
1.79833	-103
1.80200	-104
1.80567	-104
1.80933	-105
1.81300	-105
1.81667	-105
1.82033	-106
1.82400	-106
1.82767	-106
1.83133	-106
1.83500	-107
1.83867	-107
1.84233	-107
1.84600	-107
1.84967	-107
1.85333	-107
1.85700	-107
1.86067	-107
1.86433	-107
1.86800	-107
1.87167	-107
1.87533	-108
1.87900	-108
1.88267	-108
1.88633	-108
1.89000	-108
1.89367	-107
1.89733	-107
1.90100	-107
1.90467	-107
1.90833	-107
1.91200	-107
1.91567	-108
1.91933	-108
1.92300	-108
1.92667	-108
1.93033	-108
1.93400	-108
1.93767	-107
1.94133	-107
1.94500	-107
1.94867	-107
1.95233	-106
1.95600	-106
1.95967	-106
1.96333	-106
1.96700	-105
1.97067	-104
1.97433	-104
1.97800	-103
1.98167	-103
1.98533	-103
1.98900	-102
1.99267	-102
1.99633	-102
2.00000	-102
2.00367	-102
2.00733	-101
2.01100	-101
2.01467	-101
2.01833	-100
2.02200	-100
2.02567	-100
2.02933	-99
2.03300	-99
2.03667	-98
2.04033	-98
2.04400	-98
2.04767	-97
2.05133	-97
2.05500	-96
2.05867	-96
2.06233	-96
2.06600	-95
2.06967	-95
2.07333	-95
2.07700	-94
2.08067	-94
2.08433	-94
2.08800	-93
2.09167	-93
2.09533	-92
2.09900	-92
2.10267	-91
2.10633	-91
2.11000	-91
2.11367	-90
2.11733	-90
2.12100	-90
2.12467	-90
2.12833	-89
2.13200	-89
2.13567	-90
2.13933	-90
2.14300	-90
2.14667	-90
2.15033	-89
2.15400	-89
2.15767	-88
2.16133	-88
2.16500	-88
2.16867	-88
2.17233	-87
2.17600	-87
2.17967	-87
2.18333	-86
2.18700	-86
2.19067	-86
2.19433	-86
2.19800	-85
2.20167	-84
2.20533	-84
2.20900	-84
2.21267	-84
2.21633	-85
2.22000	-86
2.22367	-87
2.22733	-88
2.23100	-88
2.23467	-88
2.23833	-87
2.24200	-87
2.24567	-86
2.24933	-86
2.25300	-85
2.25667	-84
2.26033	-83
2.26400	-82
2.26767	-81
2.27133	-80
2.27500	-80
2.27867	-80
2.28233	-79
2.28600	-79
2.28967	-78
2.29333	-78
2.29700	-77
2.30067	-77
2.30433	-76
2.30800	-75
2.31167	-75
2.31533	-75
2.31900	-75
2.32267	-75
2.32633	-76
2.33000	-77
2.33367	-77
2.33733	-76
2.34100	-76
2.34467	-75
2.34833	-74
2.35200	-73
2.35567	-72
2.35933	-71
2.36300	-70
2.36667	-68
2.37033	-67
2.37400	-65
2.37767	-62
2.38133	-59
2.38500	-55
2.38867	-52
2.39233	-48
2.39600	-44
2.39967	-39
2.40333	-35
2.40700	-30
2.41067	-26
2.41433	-22
2.41800	-18
2.42167	-15
2.42533	-12
2.42900	-9
2.43267	-7
2.43633	-5
2.44000	-3
2.44367	-2
2.44733	-0
2.45100	1
2.45467	2
2.45833	3
2.46200	4
2.46567	5
2.46933	6
2.47300	7
2.47667	8
2.48033	10
2.48400	11
2.48767	12
2.49133	12
2.49500	12
2.49867	13
2.50233	13
2.50600	13
2.50967	12
2.51333	11
2.51700	10
2.52067	9
2.52433	8
2.52800	8
2.53167	7
2.53533	7
2.53900	7
2.54267	8
2.54633	9
2.55000	9
2.55367	10
2.55733	10
2.56100	11
2.56467	11
2.56833	11
2.57200	12
2.57567	12
2.57933	12
2.58300	12
2.58667	13
2.59033	14
2.59400	14
2.59767	14
2.60133	14
2.60500	14
2.60867	14
2.61233	13
2.61600	13
2.61967	13
2.62333	13
2.62700	14
2.63067	14
2.63433	15
2.63800	16
2.64167	17
2.64533	18
2.64900	18
2.65267	18
2.65633	19
2.66000	19
2.66367	19
2.66733	19
2.67100	20
2.67467	20
2.67833	21
2.68200	21
2.68567	22
2.68933	22
2.69300	23
2.69667	24
2.70033	25
2.70400	25
2.70767	25
2.71133	24
2.71500	24
2.71867	24
2.72233	23
2.72600	23
2.72967	23
2.73333	23
2.73700	23
2.74067	24
2.74433	24
2.74800	24
2.75167	25
2.75533	25
2.75900	25
2.76267	25
2.76633	25
2.77000	25
2.77367	25
2.77733	25
2.78100	25
2.78467	25
2.78833	25
2.79200	25
2.79567	25
2.79933	25
2.80300	26
2.80667	26
2.81033	26
2.81400	26
2.81767	26
2.82133	26
2.82500	27
2.82867	27
2.83233	27
2.83600	27
2.83967	27
2.84333	27
2.84700	27
2.85067	27
2.85433	26
2.85800	26
2.86167	25
2.86533	23
2.86900	19
2.87267	13
2.87633	4
2.88000	-10
2.88367	-28
2.88733	-51
2.89100	-79
2.89467	-112
2.89833	-151
2.90200	-194
2.90567	-242
2.90933	-293
2.91300	-349
2.91667	-407
2.92033	-467
2.92400	-528
2.92767	-591
2.93133	-653
2.93500	-714
2.93867	-773
2.94233	-829
2.94600	-883
2.94967	-935
2.95333	-990
2.95700	-1045
2.96067	-1091
2.96433	-1119
2.96800	-1122
2.97167	-1100
2.97533	-1055
2.97900	-993
2.98267	-920
2.98633	-840
2.99000	-758
2.99367	-678
2.99733	-601
3.00100	-529
3.00467	-463
3.00833	-402
3.01200	-348
3.01567	-300
3.01933	-257
3.02300	-220
3.02667	-188
3.03033	-160
3.03400	-136
3.03767	-115
3.04133	-96
3.04500	-81
3.04867	-67
3.05233	-56
3.05600	-46
3.05967	-37
3.06333	-30
3.06700	-24
3.07067	-18
3.07433	-14
3.07800	-10
3.08167	-7
3.08533	-4
3.08900	-1
3.09267	1
3.09633	3
3.10000	4
3.10367	5
3.10733	7
3.11100	8
3.11467	9
3.11833	10
3.12200	10
3.12567	11
3.12933	12
3.13300	12
3.13667	13
3.14033	13
3.14400	14
3.14767	14
3.15133	14
3.15500	15
3.15867	15
3.16233	16
3.16600	16
3.16967	16
3.17333	17
3.17700	17
3.18067	18
3.18433	18
3.18800	18
3.19167	18
3.19533	18
3.19900	19
3.20267	19
3.20633	19
3.21000	19
3.21367	20
3.21733	20
3.22100	20
3.22467	20
3.22833	21
3.23200	21
3.23567	21
3.23933	21
3.24300	21
3.24667	21
3.25033	22
3.25400	22
3.25767	22
3.26133	22
3.26500	22
3.26867	22
3.27233	22
3.27600	22
3.27967	22
3.28333	22
3.28700	22
3.29067	22
3.29433	22
3.29800	22
3.30167	22
3.30533	22
3.30900	22
3.31267	22
3.31633	22
3.32000	21
3.32367	21
3.32733	21
3.33100	22
3.33467	22
3.33833	22
3.34200	22
3.34567	23
3.34933	23
3.35300	24
3.35667	24
3.36033	25
3.36400	25
3.36767	26
3.37133	26
3.37500	26
3.37867	26
3.38233	26
3.38600	26
3.38967	26
3.39333	26
3.39700	26
3.40067	26
3.40433	26
3.40800	26
3.41167	26
3.41533	27
3.41900	27
3.42267	27
3.42633	27
3.43000	27
3.43367	27
3.43733	27
3.44100	27
3.44467	27
3.44833	27
3.45200	27
3.45567	27
3.45933	27
3.46300	27
3.46667	28
3.47033	28
3.47400	28
3.47767	28
3.48133	28
3.48500	28
3.48867	27
3.49233	27
3.49600	27
3.49967	27
3.50333	27
3.50700	26
3.51067	26
3.51433	26
3.51800	26
3.52167	26
3.52533	26
3.52900	26
3.53267	26
3.53633	26
3.54000	26
3.54367	26
3.54733	26
3.55100	26
3.55467	26
3.55833	26
3.56200	26
3.56567	26
3.56933	26
3.57300	26
3.57667	26
3.58033	26
3.58400	26
3.58767	26
3.59133	26
3.59500	26
3.59867	26
3.60233	26
3.60600	26
3.60967	26
3.61333	26
3.61700	26
3.62067	26
3.62433	26
3.62800	26
3.63167	26
3.63533	26
3.63900	26
3.64267	26
3.64633	26
3.65000	26
3.65367	26
3.65733	26
3.66100	26
3.66467	26
3.66833	26
3.67200	26
3.67567	26
3.67933	26
3.68300	26
3.68667	25
3.69033	25
3.69400	25
3.69767	25
3.70133	24
3.70500	24
3.70867	24
3.71233	24
3.71600	24
3.71967	24
3.72333	24
3.72700	24
3.73067	24
3.73433	24
3.73800	24
3.74167	24
3.74533	24
3.74900	24
3.75267	24
3.75633	24
3.76000	24
3.76367	24
3.76733	24
3.77100	24
3.77467	23
3.77833	23
3.78200	23
3.78567	23
3.78933	23
3.79300	23
3.79667	23
3.80033	23
3.80400	23
3.80767	23
3.81133	23
3.81500	23
3.81867	24
3.82233	24
3.82600	24
3.82967	24
3.83333	24
3.83700	25
3.84067	25
3.84433	25
3.84800	25
3.85167	25
3.85533	25
3.85900	25
3.86267	26
3.86633	26
3.87000	26
3.87367	26
3.87733	26
3.88100	26
3.88467	26
3.88833	26
3.89200	26
3.89567	26
3.89933	25
3.90300	25
3.90667	25
3.91033	25
3.91400	25
3.91767	25
3.92133	25
3.92500	24
3.92867	24
3.93233	24
3.93600	24
3.93967	24
3.94333	25
3.94700	25
3.95067	25
3.95433	25
3.95800	26
3.96167	26
3.96533	26
3.96900	27
3.97267	27
3.97633	27
3.98000	27
3.98367	26
3.98733	26
3.99100	26
3.99467	26
3.99833	26

[Chromatogram (Ch3)]
Interval(msec)	220
# of Points	1091
Start Time(min)	0.002
End Time(min)	3.998
R.Time (min)	Intensity
0.00167	1
0.00533	0
0.00900	-0
0.01267	-0
0.01633	-0
0.02000	-1
0.02367	-0
0.02733	-0
0.03100	-1
0.03467	-1
0.03833	-2
0.04200	-3
0.04567	-2
0.04933	-2
0.05300	-1
0.05667	-1
0.06033	1
0.06400	2
0.06767	1
0.07133	1
0.07500	3
0.07867	4
0.08233	5
0.08600	4
0.08967	6
0.09333	7
0.09700	7
0.10067	9
0.10433	9
0.10800	8
0.11167	7
0.11533	4
0.11900	2
0.12267	2
0.12633	3
0.13000	6
0.13367	8
0.13733	8
0.14100	8
0.14467	7
0.14833	4
0.15200	3
0.15567	6
0.15933	8
0.16300	9
0.16667	11
0.17033	12
0.17400	11
0.17767	10
0.18133	10
0.18500	11
0.18867	9
0.19233	6
0.19600	5
0.19967	4
0.20333	3
0.20700	3
0.21067	4
0.21433	6
0.21800	7
0.22167	8
0.22533	10
0.22900	9
0.23267	7
0.23633	5
0.24000	3
0.24367	2
0.24733	2
0.25100	2
0.25467	1
0.25833	-2
0.26200	-2
0.26567	0
0.26933	2
0.27300	4
0.27667	6
0.28033	9
0.28400	9
0.28767	10
0.29133	10
0.29500	11
0.29867	11
0.30233	12
0.30600	12
0.30967	13
0.31333	12
0.31700	12
0.32067	11
0.32433	11
0.32800	11
0.33167	11
0.33533	9
0.33900	9
0.34267	10
0.34633	10
0.35000	10
0.35367	10
0.35733	10
0.36100	9
0.36467	8
0.36833	8
0.37200	9
0.37567	10
0.37933	12
0.38300	14
0.38667	15
0.39033	14
0.39400	13
0.39767	12
0.40133	12
0.40500	12
0.40867	14
0.41233	14
0.41600	13
0.41967	11
0.42333	11
0.42700	9
0.43067	8
0.43433	7
0.43800	8
0.44167	12
0.44533	14
0.44900	15
0.45267	16
0.45633	14
0.46000	12
0.46367	12
0.46733	13
0.47100	13
0.47467	13
0.47833	15
0.48200	18
0.48567	19
0.48933	19
0.49300	17
0.49667	16
0.50033	15
0.50400	14
0.50767	14
0.51133	13
0.51500	12
0.51867	12
0.52233	12
0.52600	13
0.52967	15
0.53333	16
0.53700	15
0.54067	15
0.54433	15
0.54800	16
0.55167	16
0.55533	15
0.55900	15
0.56267	16
0.56633	16
0.57000	15
0.57367	13
0.57733	13
0.58100	15
0.58467	16
0.58833	16
0.59200	16
0.59567	16
0.59933	15
0.60300	16
0.60667	16
0.61033	15
0.61400	13
0.61767	12
0.62133	11
0.62500	12
0.62867	14
0.63233	15
0.63600	18
0.63967	19
0.64333	20
0.64700	21
0.65067	22
0.65433	22
0.65800	22
0.66167	21
0.66533	18
0.66900	17
0.67267	17
0.67633	19
0.68000	19
0.68367	19
0.68733	22
0.69100	24
0.69467	25
0.69833	24
0.70200	23
0.70567	23
0.70933	23
0.71300	22
0.71667	24
0.72033	22
0.72400	19
0.72767	15
0.73133	16
0.73500	18
0.73867	20
0.74233	23
0.74600	25
0.74967	27
0.75333	28
0.75700	28
0.76067	27
0.76433	26
0.76800	25
0.77167	23
0.77533	20
0.77900	20
0.78267	20
0.78633	21
0.79000	21
0.79367	20
0.79733	18
0.80100	17
0.80467	18
0.80833	18
0.81200	17
0.81567	18
0.81933	20
0.82300	22
0.82667	22
0.83033	21
0.83400	20
0.83767	18
0.84133	17
0.84500	18
0.84867	18
0.85233	17
0.85600	19
0.85967	22
0.86333	23
0.86700	23
0.87067	22
0.87433	21
0.87800	20
0.88167	19
0.88533	18
0.88900	19
0.89267	20
0.89633	20
0.90000	21
0.90367	20
0.90733	19
0.91100	21
0.91467	23
0.91833	24
0.92200	22
0.92567	22
0.92933	22
0.93300	22
0.93667	21
0.94033	20
0.94400	20
0.94767	22
0.95133	23
0.95500	25
0.95867	26
0.96233	24
0.96600	22
0.96967	21
0.97333	20
0.97700	20
0.98067	20
0.98433	19
0.98800	20
0.99167	22
0.99533	25
0.99900	25
1.00267	24
1.00633	21
1.01000	19
1.01367	18
1.01733	18
1.02100	19
1.02467	24
1.02833	26
1.03200	26
1.03567	24
1.03933	25
1.04300	26
1.04667	25
1.05033	24
1.05400	22
1.05767	22
1.06133	21
1.06500	21
1.06867	24
1.07233	27
1.07600	30
1.07967	30
1.08333	28
1.08700	26
1.09067	23
1.09433	20
1.09800	20
1.10167	21
1.10533	24
1.10900	26
1.11267	28
1.11633	30
1.12000	31
1.12367	31
1.12733	30
1.13100	29
1.13467	28
1.13833	27
1.14200	27
1.14567	27
1.14933	27
1.15300	27
1.15667	27
1.16033	26
1.16400	26
1.16767	25
1.17133	23
1.17500	22
1.17867	22
1.18233	23
1.18600	25
1.18967	26
1.19333	26
1.19700	26
1.20067	28
1.20433	29
1.20800	29
1.21167	29
1.21533	27
1.21900	25
1.22267	22
1.22633	20
1.23000	19
1.23367	22
1.23733	24
1.24100	25
1.24467	26
1.24833	27
1.25200	27
1.25567	28
1.25933	28
1.26300	28
1.26667	28
1.27033	27
1.27400	27
1.27767	27
1.28133	29
1.28500	28
1.28867	25
1.29233	22
1.29600	21
1.29967	19
1.30333	20
1.30700	21
1.31067	23
1.31433	25
1.31800	24
1.32167	24
1.32533	25
1.32900	25
1.33267	25
1.33633	24
1.34000	23
1.34367	23
1.34733	23
1.35100	24
1.35467	23
1.35833	23
1.36200	23
1.36567	22
1.36933	20
1.37300	17
1.37667	18
1.38033	17
1.38400	19
1.38767	22
1.39133	22
1.39500	25
1.39867	26
1.40233	26
1.40600	27
1.40967	27
1.41333	27
1.41700	26
1.42067	25
1.42433	24
1.42800	23
1.43167	21
1.43533	20
1.43900	21
1.44267	21
1.44633	21
1.45000	21
1.45367	21
1.45733	21
1.46100	20
1.46467	19
1.46833	20
1.47200	22
1.47567	22
1.47933	22
1.48300	22
1.48667	21
1.49033	20
1.49400	19
1.49767	19
1.50133	21
1.50500	23
1.50867	22
1.51233	21
1.51600	19
1.51967	18
1.52333	16
1.52700	15
1.53067	16
1.53433	17
1.53800	19
1.54167	21
1.54533	21
1.54900	21
1.55267	21
1.55633	22
1.56000	22
1.56367	21
1.56733	19
1.57100	18
1.57467	18
1.57833	18
1.58200	18
1.58567	17
1.58933	16
1.59300	17
1.59667	19
1.60033	21
1.60400	22
1.60767	23
1.61133	24
1.61500	24
1.61867	24
1.62233	25
1.62600	24
1.62967	23
1.63333	25
1.63700	25
1.64067	24
1.64433	24
1.64800	26
1.65167	24
1.65533	21
1.65900	24
1.66267	26
1.66633	27
1.67000	28
1.67367	29
1.67733	29
1.68100	29
1.68467	29
1.68833	30
1.69200	29
1.69567	28
1.69933	28
1.70300	28
1.70667	28
1.71033	28
1.71400	29
1.71767	28
1.72133	27
1.72500	27
1.72867	29
1.73233	31
1.73600	30
1.73967	30
1.74333	30
1.74700	30
1.75067	32
1.75433	34
1.75800	35
1.76167	34
1.76533	34
1.76900	34
1.77267	33
1.77633	32
1.78000	32
1.78367	33
1.78733	35
1.79100	35
1.79467	36
1.79833	36
1.80200	34
1.80567	33
1.80933	34
1.81300	35
1.81667	38
1.82033	38
1.82400	39
1.82767	38
1.83133	39
1.83500	41
1.83867	42
1.84233	43
1.84600	44
1.84967	45
1.85333	43
1.85700	42
1.86067	43
1.86433	44
1.86800	43
1.87167	42
1.87533	41
1.87900	43
1.88267	44
1.88633	46
1.89000	48
1.89367	48
1.89733	48
1.90100	50
1.90467	50
1.90833	52
1.91200	50
1.91567	50
1.91933	50
1.92300	52
1.92667	55
1.93033	57
1.93400	58
1.93767	57
1.94133	56
1.94500	57
1.94867	58
1.95233	58
1.95600	59
1.95967	61
1.96333	62
1.96700	63
1.97067	63
1.97433	64
1.97800	66
1.98167	67
1.98533	65
1.98900	65
1.99267	67
1.99633	68
2.00000	69
2.00367	69
2.00733	69
2.01100	69
2.01467	69
2.01833	69
2.02200	69
2.02567	71
2.02933	73
2.03300	74
2.03667	77
2.04033	78
2.04400	77
2.04767	77
2.05133	77
2.05500	75
2.05867	74
2.06233	76
2.06600	77
2.06967	80
2.07333	82
2.07700	84
2.08067	85
2.08433	86
2.08800	87
2.09167	88
2.09533	89
2.09900	88
2.10267	88
2.10633	89
2.11000	90
2.11367	90
2.11733	89
2.12100	88
2.12467	88
2.12833	90
2.13200	91
2.13567	90
2.13933	88
2.14300	85
2.14667	84
2.15033	85
2.15400	88
2.15767	91
2.16133	94
2.16500	98
2.16867	102
2.17233	104
2.17600	104
2.17967	104
2.18333	104
2.18700	102
2.19067	100
2.19433	99
2.19800	100
2.20167	98
2.20533	99
2.20900	98
2.21267	101
2.21633	104
2.22000	107
2.22367	107
2.22733	107
2.23100	108
2.23467	111
2.23833	112
2.24200	113
2.24567	112
2.24933	111
2.25300	110
2.25667	112
2.26033	113
2.26400	114
2.26767	117
2.27133	118
2.27500	117
2.27867	116
2.28233	118
2.28600	121
2.28967	123
2.29333	125
2.29700	124
2.30067	126
2.30433	128
2.30800	130
2.31167	130
2.31533	130
2.31900	131
2.32267	131
2.32633	131
2.33000	130
2.33367	129
2.33733	129
2.34100	130
2.34467	129
2.34833	129
2.35200	131
2.35567	132
2.35933	131
2.36300	130
2.36667	131
2.37033	132
2.37400	132
2.37767	133
2.38133	133
2.38500	132
2.38867	128
2.39233	126
2.39600	127
2.39967	129
2.40333	132
2.40700	136
2.41067	137
2.41433	136
2.41800	136
2.42167	137
2.42533	139
2.42900	140
2.43267	140
2.43633	138
2.44000	141
2.44367	178
2.44733	258
2.45100	339
2.45467	401
2.45833	427
2.46200	426
2.46567	418
2.46933	413
2.47300	404
2.47667	386
2.48033	362
2.48400	335
2.48767	310
2.49133	290
2.49500	275
2.49867	267
2.50233	266
2.50600	270
2.50967	276
2.51333	281
2.51700	284
2.52067	282
2.52433	275
2.52800	263
2.53167	248
2.53533	230
2.53900	217
2.54267	205
2.54633	195
2.55000	189
2.55367	185
2.55733	182
2.56100	180
2.56467	180
2.56833	182
2.57200	185
2.57567	188
2.57933	192
2.58300	194
2.58667	199
2.59033	206
2.59400	212
2.59767	221
2.60133	229
2.60500	237
2.60867	243
2.61233	248
2.61600	250
2.61967	248
2.62333	242
2.62700	232
2.63067	220
2.63433	208
2.63800	196
2.64167	186
2.64533	174
2.64900	162
2.65267	152
2.65633	144
2.66000	137
2.66367	133
2.66733	132
2.67100	130
2.67467	128
2.67833	125
2.68200	123
2.68567	122
2.68933	122
2.69300	122
2.69667	123
2.70033	124
2.70400	127
2.70767	131
2.71133	135
2.71500	137
2.71867	139
2.72233	141
2.72600	142
2.72967	143
2.73333	142
2.73700	144
2.74067	147
2.74433	150
2.74800	151
2.75167	154
2.75533	159
2.75900	172
2.76267	191
2.76633	211
2.77000	231
2.77367	257
2.77733	290
2.78100	328
2.78467	367
2.78833	410
2.79200	450
2.79567	487
2.79933	519
2.80300	550
2.80667	577
2.81033	601
2.81400	620
2.81767	633
2.82133	644
2.82500	653
2.82867	657
2.83233	663
2.83600	674
2.83967	696
2.84333	743
2.84700	836
2.85067	995
2.85433	1241
2.85800	1587
2.86167	2034
2.86533	2564
2.86900	3142
2.87267	3724
2.87633	4262
2.88000	4707
2.88367	5027
2.88733	5209
2.89100	5250
2.89467	5163
2.89833	4974
2.90200	4709
2.90567	4397
2.90933	4061
2.91300	3722
2.91667	3389
2.92033	3074
2.92400	2780
2.92767	2513
2.93133	2272
2.93500	2056
2.93867	1866
2.94233	1699
2.94600	1553
2.94967	1426
2.95333	1315
2.95700	1216
2.96067	1130
2.96433	1058
2.96800	996
2.97167	940
2.97533	893
2.97900	854
2.98267	820
2.98633	791
2.99000	768
2.99367	747
2.99733	728
3.00100	710
3.00467	696
3.00833	686
3.01200	677
3.01567	670
3.01933	666
3.02300	662
3.02667	660
3.03033	657
3.03400	652
3.03767	650
3.04133	651
3.04500	651
3.04867	650
3.05233	651
3.05600	653
3.05967	652
3.06333	650
3.06700	650
3.07067	652
3.07433	654
3.07800	657
3.08167	661
3.08533	663
3.08900	665
3.09267	667
3.09633	668
3.10000	668
3.10367	667
3.10733	667
3.11100	666
3.11467	667
3.11833	666
3.12200	665
3.12567	666
3.12933	668
3.13300	667
3.13667	666
3.14033	664
3.14400	664
3.14767	663
3.15133	663
3.15500	663
3.15867	665
3.16233	665
3.16600	666
3.16967	666
3.17333	666
3.17700	664
3.18067	663
3.18433	661
3.18800	660
3.19167	658
3.19533	657
3.19900	655
3.20267	653
3.20633	652
3.21000	654
3.21367	655
3.21733	655
3.22100	655
3.22467	655
3.22833	653
3.23200	650
3.23567	646
3.23933	646
3.24300	648
3.24667	648
3.25033	646
3.25400	645
3.25767	643
3.26133	642
3.26500	642
3.26867	642
3.27233	641
3.27600	638
3.27967	636
3.28333	634
3.28700	632
3.29067	628
3.29433	625
3.29800	621
3.30167	620
3.30533	620
3.30900	621
3.31267	621
3.31633	620
3.32000	618
3.32367	616
3.32733	611
3.33100	608
3.33467	606
3.33833	603
3.34200	599
3.34567	597
3.34933	594
3.35300	592
3.35667	590
3.36033	589
3.36400	585
3.36767	581
3.37133	578
3.37500	575
3.37867	573
3.38233	570
3.38600	566
3.38967	563
3.39333	559
3.39700	555
3.40067	552
3.40433	550
3.40800	547
3.41167	548
3.41533	547
3.41900	546
3.42267	544
3.42633	542
3.43000	537
3.43367	535
3.43733	534
3.44100	532
3.44467	529
3.44833	527
3.45200	525
3.45567	522
3.45933	521
3.46300	519
3.46667	518
3.47033	514
3.47400	509
3.47767	504
3.48133	503
3.48500	502
3.48867	501
3.49233	500
3.49600	498
3.49967	498
3.50333	496
3.50700	494
3.51067	492
3.51433	489
3.51800	486
3.52167	483
3.52533	483
3.52900	482
3.53267	482
3.53633	481
3.54000	477
3.54367	474
3.54733	473
3.55100	473
3.55467	473
3.55833	472
3.56200	471
3.56567	469
3.56933	467
3.57300	465
3.57667	463
3.58033	460
3.58400	458
3.58767	458
3.59133	458
3.59500	456
3.59867	455
3.60233	455
3.60600	454
3.60967	453
3.61333	452
3.61700	451
3.62067	452
3.62433	451
3.62800	449
3.63167	447
3.63533	445
3.63900	443
3.64267	442
3.64633	442
3.65000	442
3.65367	442
3.65733	442
3.66100	443
3.66467	443
3.66833	442
3.67200	438
3.67567	436
3.67933	435
3.68300	434
3.68667	435
3.69033	434
3.69400	433
3.69767	432
3.70133	432
3.70500	432
3.70867	431
3.71233	429
3.71600	428
3.71967	425
3.72333	425
3.72700	425
3.73067	423
3.73433	420
3.73800	420
3.74167	420
3.74533	422
3.74900	423
3.75267	423
3.75633	422
3.76000	424
3.76367	426
3.76733	426
3.77100	426
3.77467	426
3.77833	425
3.78200	422
3.78567	418
3.78933	416
3.79300	415
3.79667	413
3.80033	413
3.80400	414
3.80767	413
3.81133	412
3.81500	410
3.81867	408
3.82233	407
3.82600	406
3.82967	405
3.83333	405
3.83700	406
3.84067	407
3.84433	408
3.84800	408
3.85167	406
3.85533	405
3.85900	405
3.86267	404
3.86633	404
3.87000	403
3.87367	401
3.87733	398
3.88100	394
3.88467	394
3.88833	395
3.89200	397
3.89567	398
3.89933	398
3.90300	397
3.90667	395
3.91033	394
3.91400	393
3.91767	394
3.92133	395
3.92500	395
3.92867	392
3.93233	389
3.93600	388
3.93967	386
3.94333	385
3.94700	383
3.95067	383
3.95433	381
3.95800	380
3.96167	381
3.96533	383
3.96900	383
3.97267	382
3.97633	380
3.98000	377
3.98367	376
3.98733	377
3.99100	379
3.99467	380
3.99833	378

[Status Trace (Column Oven Temperature)]
Interval(msec)	1000
# of Points	240
Start Time(min)	0.013
End Time(min)	3.997
Intensity Units	
Intensity Multiplier	1
R.Time (min)	Intensity
0.01345	35.03
0.03012	35.03
0.04678	35.03
0.06345	35.04
0.08012	35.03
0.09678	35.03
0.11345	35.02
0.13012	35.02
0.14678	35.01
0.16345	35.02
0.18012	35.01
0.19678	35.01
0.21345	35.00
0.23012	35.01
0.24678	35.01
0.26345	35.01
0.28012	35.02
0.29678	35.02
0.31345	35.02
0.33012	35.03
0.34678	35.04
0.36345	35.04
0.38012	35.05
0.39678	35.05
0.41345	35.05
0.43012	35.05
0.44678	35.04
0.46345	35.02
0.48012	35.01
0.49678	35.00
0.51345	34.98
0.53012	34.97
0.54678	34.97
0.56345	34.96
0.58012	34.96
0.59678	34.96
0.61345	34.97
0.63012	34.98
0.64678	34.99
0.66345	35.00
0.68012	35.00
0.69678	34.99
0.71345	34.99
0.73012	34.98
0.74678	34.97
0.76345	34.97
0.78012	34.97
0.79678	34.97
0.81345	34.97
0.83012	34.97
0.84678	34.97
0.86345	34.98
0.88012	35.00
0.89678	35.00
0.91345	35.00
0.93012	35.00
0.94678	35.01
0.96345	35.01
0.98012	35.01
0.99678	35.01
1.01345	35.01
1.03012	35.00
1.04678	35.00
1.06345	35.00
1.08012	35.00
1.09678	35.00
1.11345	34.99
1.13012	35.00
1.14678	35.00
1.16345	34.99
1.18012	35.00
1.19678	35.00
1.21345	35.00
1.23012	35.00
1.24678	35.00
1.26345	35.00
1.28012	35.00
1.29678	34.99
1.31345	34.99
1.33012	34.99
1.34678	34.99
1.36345	34.98
1.38012	34.98
1.39678	34.97
1.41345	34.98
1.43012	34.99
1.44678	34.98
1.46345	34.99
1.48012	34.98
1.49678	34.98
1.51345	34.97
1.53012	34.97
1.54678	34.97
1.56345	34.98
1.58012	34.98
1.59678	35.01
1.61345	35.09
1.63012	35.23
1.64678	35.43
1.66345	35.70
1.68012	36.05
1.69678	36.43
1.71345	36.77
1.73012	37.11
1.74678	37.45
1.76345	37.78
1.78012	38.07
1.79678	38.40
1.81345	38.74
1.83012	39.07
1.84678	39.39
1.86345	39.73
1.88012	40.07
1.89678	40.39
1.91345	40.73
1.93012	41.06
1.94678	41.38
1.96345	41.71
1.98012	42.02
1.99678	42.35
2.01345	42.68
2.03012	42.99
2.04678	43.32
2.06345	43.64
2.08012	43.97
2.09678	44.30
2.11345	44.61
2.13012	44.93
2.14678	45.27
2.16345	45.60
2.18012	45.92
2.19678	46.23
2.21345	46.59
2.23012	46.95
2.24678	47.29
2.26345	47.59
2.28012	47.94
2.29678	48.24
2.31345	48.57
2.33012	48.93
2.34678	49.23
2.36345	49.50
2.38012	49.66
2.39678	49.73
2.41345	49.72
2.43012	49.72
2.44678	49.72
2.46345	49.73
2.48012	49.73
2.49678	49.75
2.51345	49.76
2.53012	49.77
2.54678	49.76
2.56345	49.79
2.58012	49.80
2.59678	49.80
2.61345	49.84
2.63012	49.84
2.64678	49.85
2.66345	49.86
2.68012	49.85
2.69678	49.83
2.71345	49.84
2.73012	49.86
2.74678	49.85
2.76345	49.86
2.78012	49.87
2.79678	49.87
2.81345	49.86
2.83012	49.85
2.84678	49.85
2.86345	49.86
2.88012	49.86
2.89678	49.87
2.91345	49.89
2.93012	49.90
2.94678	49.91
2.96345	49.93
2.98012	49.95
2.99678	49.97
3.01345	49.98
3.03012	49.99
3.04678	50.00
3.06345	50.00
3.08012	50.01
3.09678	50.03
3.11345	50.04
3.13012	50.05
3.14678	50.06
3.16345	50.07
3.18012	50.08
3.19678	50.08
3.21345	50.07
3.23012	50.07
3.24678	50.07
3.26345	50.07
3.28012	50.08
3.29678	50.09
3.31345	50.11
3.33012	50.12
3.34678	50.11
3.36345	50.10
3.38012	50.08
3.39678	50.08
3.41345	50.07
3.43012	50.06
3.44678	50.06
3.46345	50.05
3.48012	50.03
3.49678	50.03
3.51345	50.02
3.53012	50.01
3.54678	50.01
3.56345	50.01
3.58012	50.01
3.59678	50.01
3.61345	50.01
3.63012	50.01
3.64678	50.01
3.66345	50.01
3.68012	50.01
3.69678	50.02
3.71345	50.02
3.73012	50.03
3.74678	50.04
3.76345	50.04
3.78012	50.06
3.79678	50.07
3.81345	50.07
3.83012	50.06
3.84678	50.06
3.86345	50.05
3.88012	50.05
3.89678	50.05
3.91345	50.05
3.93012	50.05
3.94678	50.05
3.96345	50.05
3.98012	50.05
3.99678	50.05

[Status Trace (Injection Unit Temperature)]
Interval(msec)	1000
# of Points	240
Start Time(min)	0.013
End Time(min)	3.997
Intensity Units	
Intensity Multiplier	1
R.Time (min)	Intensity
0.01345	99.98
0.03012	99.98
0.04678	99.98
0.06345	99.97
0.08012	99.98
0.09678	99.97
0.11345	99.98
0.13012	99.98
0.14678	99.98
0.16345	99.98
0.18012	99.99
0.19678	99.98
0.21345	99.99
0.23012	99.98
0.24678	99.99
0.26345	99.99
0.28012	99.99
0.29678	99.99
0.31345	99.99
0.33012	99.99
0.34678	99.99
0.36345	99.99
0.38012	99.99
0.39678	99.99
0.41345	99.99
0.43012	99.99
0.44678	100.00
0.46345	99.99
0.48012	99.99
0.49678	99.99
0.51345	99.99
0.53012	99.99
0.54678	99.99
0.56345	99.99
0.58012	99.99
0.59678	99.99
0.61345	99.99
0.63012	99.99
0.64678	99.99
0.66345	99.99
0.68012	99.99
0.69678	99.99
0.71345	99.99
0.73012	99.99
0.74678	99.99
0.76345	99.99
0.78012	99.99
0.79678	99.99
0.81345	99.99
0.83012	99.98
0.84678	99.99
0.86345	99.99
0.88012	99.98
0.89678	99.98
0.91345	99.99
0.93012	99.98
0.94678	99.98
0.96345	99.99
0.98012	99.98
0.99678	99.98
1.01345	99.98
1.03012	99.98
1.04678	99.98
1.06345	99.98
1.08012	99.98
1.09678	99.98
1.11345	99.98
1.13012	99.98
1.14678	99.98
1.16345	99.98
1.18012	99.98
1.19678	99.97
1.21345	99.98
1.23012	99.98
1.24678	99.98
1.26345	99.98
1.28012	99.98
1.29678	99.98
1.31345	99.98
1.33012	99.98
1.34678	99.98
1.36345	99.98
1.38012	99.98
1.39678	99.97
1.41345	99.98
1.43012	99.98
1.44678	99.97
1.46345	99.98
1.48012	99.98
1.49678	99.98
1.51345	99.98
1.53012	99.98
1.54678	99.98
1.56345	99.98
1.58012	99.98
1.59678	99.98
1.61345	99.98
1.63012	99.98
1.64678	99.98
1.66345	99.98
1.68012	99.98
1.69678	99.99
1.71345	99.98
1.73012	99.99
1.74678	99.99
1.76345	99.98
1.78012	99.98
1.79678	99.98
1.81345	99.98
1.83012	99.98
1.84678	99.98
1.86345	99.98
1.88012	99.98
1.89678	99.98
1.91345	99.98
1.93012	99.98
1.94678	99.98
1.96345	99.98
1.98012	99.98
1.99678	99.98
2.01345	99.98
2.03012	99.98
2.04678	99.98
2.06345	99.97
2.08012	99.97
2.09678	99.97
2.11345	99.97
2.13012	99.97
2.14678	99.97
2.16345	99.97
2.18012	99.97
2.19678	99.97
2.21345	99.97
2.23012	99.97
2.24678	99.97
2.26345	99.97
2.28012	99.96
2.29678	99.97
2.31345	99.96
2.33012	99.96
2.34678	99.96
2.36345	99.96
2.38012	99.96
2.39678	99.96
2.41345	99.96
2.43012	99.96
2.44678	99.97
2.46345	99.96
2.48012	99.96
2.49678	99.96
2.51345	99.97
2.53012	99.97
2.54678	99.97
2.56345	99.97
2.58012	99.97
2.59678	99.97
2.61345	99.97
2.63012	99.97
2.64678	99.97
2.66345	99.97
2.68012	99.98
2.69678	99.98
2.71345	99.98
2.73012	99.98
2.74678	99.98
2.76345	99.98
2.78012	99.99
2.79678	99.99
2.81345	99.99
2.83012	99.99
2.84678	99.99
2.86345	100.00
2.88012	100.00
2.89678	100.00
2.91345	100.00
2.93012	100.00
2.94678	100.00
2.96345	100.00
2.98012	100.01
2.99678	100.01
3.01345	100.01
3.03012	100.01
3.04678	100.01
3.06345	100.01
3.08012	100.01
3.09678	100.02
3.11345	100.02
3.13012	100.02
3.14678	100.02
3.16345	100.02
3.18012	100.02
3.19678	100.02
3.21345	100.02
3.23012	100.02
3.24678	100.02
3.26345	100.03
3.28012	100.03
3.29678	100.03
3.31345	100.03
3.33012	100.03
3.34678	100.03
3.36345	100.03
3.38012	100.03
3.39678	100.04
3.41345	100.03
3.43012	100.04
3.44678	100.04
3.46345	100.04
3.48012	100.04
3.49678	100.04
3.51345	100.04
3.53012	100.04
3.54678	100.04
3.56345	100.04
3.58012	100.04
3.59678	100.04
3.61345	100.04
3.63012	100.05
3.64678	100.04
3.66345	100.05
3.68012	100.05
3.69678	100.05
3.71345	100.05
3.73012	100.05
3.74678	100.05
3.76345	100.04
3.78012	100.05
3.79678	100.05
3.81345	100.05
3.83012	100.05
3.84678	100.05
3.86345	100.05
3.88012	100.05
3.89678	100.05
3.91345	100.05
3.93012	100.05
3.94678	100.05
3.96345	100.05
3.98012	100.05
3.99678	100.05

[Status Trace (Carrier Gas Pressure)]
Interval(msec)	1000
# of Points	240
Start Time(min)	0.013
End Time(min)	3.997
Intensity Units	
Intensity Multiplier	1
R.Time (min)	Intensity
0.01345	57.68
0.03012	55.16
0.04678	57.91
0.06345	59.85
0.08012	58.70
0.09678	57.98
0.11345	58.00
0.13012	58.01
0.14678	58.01
0.16345	58.00
0.18012	58.00
0.19678	58.00
0.21345	58.00
0.23012	58.00
0.24678	58.00
0.26345	58.00
0.28012	58.00
0.29678	58.00
0.31345	58.00
0.33012	58.00
0.34678	58.00
0.36345	58.00
0.38012	58.00
0.39678	58.00
0.41345	58.00
0.43012	58.00
0.44678	58.00
0.46345	58.00
0.48012	58.00
0.49678	58.00
0.51345	58.00
0.53012	58.00
0.54678	58.00
0.56345	58.00
0.58012	58.00
0.59678	58.00
0.61345	58.00
0.63012	58.00
0.64678	58.00
0.66345	58.00
0.68012	58.00
0.69678	58.00
0.71345	58.00
0.73012	58.00
0.74678	58.00
0.76345	58.00
0.78012	58.00
0.79678	58.00
0.81345	58.00
0.83012	58.00
0.84678	58.00
0.86345	58.00
0.88012	58.00
0.89678	58.00
0.91345	58.00
0.93012	58.00
0.94678	58.00
0.96345	58.00
0.98012	58.00
0.99678	58.00
1.01345	58.00
1.03012	58.00
1.04678	58.00
1.06345	58.00
1.08012	58.00
1.09678	58.00
1.11345	58.00
1.13012	58.00
1.14678	58.00
1.16345	58.00
1.18012	58.00
1.19678	58.00
1.21345	58.00
1.23012	58.00
1.24678	58.00
1.26345	58.00
1.28012	58.00
1.29678	58.00
1.31345	58.00
1.33012	58.00
1.34678	58.00
1.36345	58.00
1.38012	58.00
1.39678	58.00
1.41345	58.00
1.43012	58.00
1.44678	58.00
1.46345	58.00
1.48012	58.00
1.49678	58.00
1.51345	58.00
1.53012	58.00
1.54678	58.00
1.56345	58.00
1.58012	58.00
1.59678	58.00
1.61345	58.00
1.63012	58.00
1.64678	58.00
1.66345	58.00
1.68012	58.01
1.69678	58.00
1.71345	58.00
1.73012	58.00
1.74678	58.00
1.76345	58.00
1.78012	58.00
1.79678	58.00
1.81345	58.00
1.83012	58.00
1.84678	58.00
1.86345	58.00
1.88012	58.00
1.89678	58.00
1.91345	58.00
1.93012	58.00
1.94678	58.00
1.96345	58.00
1.98012	58.00
1.99678	58.00
2.01345	58.00
2.03012	58.00
2.04678	58.00
2.06345	58.00
2.08012	58.00
2.09678	58.00
2.11345	58.00
2.13012	58.00
2.14678	58.00
2.16345	58.00
2.18012	58.00
2.19678	58.00
2.21345	58.00
2.23012	58.00
2.24678	58.00
2.26345	58.00
2.28012	58.00
2.29678	58.00
2.31345	58.00
2.33012	58.00
2.34678	58.00
2.36345	58.00
2.38012	58.00
2.39678	57.99
2.41345	58.00
2.43012	58.00
2.44678	58.00
2.46345	58.00
2.48012	58.00
2.49678	58.00
2.51345	57.99
2.53012	57.99
2.54678	58.00
2.56345	58.00
2.58012	58.00
2.59678	58.00
2.61345	58.00
2.63012	58.00
2.64678	58.00
2.66345	58.00
2.68012	58.00
2.69678	58.00
2.71345	58.00
2.73012	58.00
2.74678	58.00
2.76345	58.00
2.78012	58.00
2.79678	58.00
2.81345	58.00
2.83012	58.00
2.84678	58.00
2.86345	58.00
2.88012	58.00
2.89678	58.00
2.91345	58.00
2.93012	58.00
2.94678	58.00
2.96345	58.00
2.98012	58.00
2.99678	58.00
3.01345	58.00
3.03012	58.00
3.04678	58.00
3.06345	58.00
3.08012	58.00
3.09678	58.00
3.11345	58.00
3.13012	58.00
3.14678	58.00
3.16345	58.00
3.18012	58.00
3.19678	58.00
3.21345	58.00
3.23012	58.00
3.24678	58.00
3.26345	58.00
3.28012	58.00
3.29678	58.00
3.31345	58.00
3.33012	58.00
3.34678	58.00
3.36345	58.00
3.38012	58.00
3.39678	58.00
3.41345	58.00
3.43012	58.00
3.44678	58.00
3.46345	58.00
3.48012	58.00
3.49678	58.00
3.51345	58.00
3.53012	58.00
3.54678	58.00
3.56345	58.00
3.58012	58.00
3.59678	58.00
3.61345	58.00
3.63012	58.00
3.64678	58.00
3.66345	58.00
3.68012	58.00
3.69678	58.00
3.71345	58.00
3.73012	58.00
3.74678	58.00
3.76345	58.00
3.78012	58.00
3.79678	58.00
3.81345	58.00
3.83012	58.00
3.84678	58.00
3.86345	58.00
3.88012	58.00
3.89678	58.00
3.91345	58.00
3.93012	58.00
3.94678	58.00
3.96345	58.00
3.98012	58.00
3.99678	58.00

[Status Trace (Carrier Gas Flow)]
Interval(msec)	1000
# of Points	240
Start Time(min)	0.013
End Time(min)	3.997
Intensity Units	
Intensity Multiplier	1
R.Time (min)	Intensity
0.01345	34.33
0.03012	34.54
0.04678	34.54
0.06345	34.51
0.08012	34.51
0.09678	34.52
0.11345	34.51
0.13012	34.52
0.14678	34.52
0.16345	34.52
0.18012	34.52
0.19678	34.52
0.21345	34.52
0.23012	34.52
0.24678	34.52
0.26345	34.52
0.28012	34.51
0.29678	34.52
0.31345	34.52
0.33012	34.52
0.34678	34.51
0.36345	34.52
0.38012	34.52
0.39678	34.52
0.41345	34.52
0.43012	34.52
0.44678	34.52
0.46345	34.52
0.48012	34.52
0.49678	34.52
0.51345	34.52
0.53012	34.52
0.54678	34.52
0.56345	34.52
0.58012	34.52
0.59678	34.52
0.61345	34.52
0.63012	34.52
0.64678	34.52
0.66345	34.52
0.68012	34.52
0.69678	34.52
0.71345	34.52
0.73012	34.52
0.74678	34.52
0.76345	34.52
0.78012	34.51
0.79678	34.52
0.81345	34.52
0.83012	34.52
0.84678	34.52
0.86345	34.52
0.88012	34.52
0.89678	34.52
0.91345	34.52
0.93012	34.52
0.94678	34.52
0.96345	34.52
0.98012	34.52
0.99678	34.53
1.01345	34.52
1.03012	34.52
1.04678	34.52
1.06345	34.52
1.08012	34.51
1.09678	34.52
1.11345	34.52
1.13012	34.52
1.14678	34.52
1.16345	34.52
1.18012	34.52
1.19678	34.52
1.21345	34.52
1.23012	34.52
1.24678	34.52
1.26345	34.52
1.28012	34.51
1.29678	34.52
1.31345	34.52
1.33012	34.52
1.34678	34.51
1.36345	34.52
1.38012	34.52
1.39678	34.52
1.41345	34.52
1.43012	34.52
1.44678	34.52
1.46345	34.52
1.48012	34.52
1.49678	34.52
1.51345	34.52
1.53012	34.51
1.54678	34.52
1.56345	34.52
1.58012	34.52
1.59678	34.52
1.61345	34.52
1.63012	34.52
1.64678	34.52
1.66345	34.52
1.68012	34.52
1.69678	34.52
1.71345	34.52
1.73012	34.51
1.74678	34.52
1.76345	34.52
1.78012	34.52
1.79678	34.52
1.81345	34.52
1.83012	34.52
1.84678	34.52
1.86345	34.52
1.88012	34.52
1.89678	34.52
1.91345	34.52
1.93012	34.52
1.94678	34.52
1.96345	34.52
1.98012	34.52
1.99678	34.52
2.01345	34.52
2.03012	34.52
2.04678	34.52
2.06345	34.52
2.08012	34.52
2.09678	34.52
2.11345	34.51
2.13012	34.52
2.14678	34.52
2.16345	34.52
2.18012	34.52
2.19678	34.52
2.21345	34.52
2.23012	34.52
2.24678	34.52
2.26345	34.52
2.28012	34.52
2.29678	34.52
2.31345	34.52
2.33012	34.52
2.34678	34.52
2.36345	34.52
2.38012	34.52
2.39678	34.52
2.41345	34.52
2.43012	34.52
2.44678	34.52
2.46345	34.52
2.48012	34.52
2.49678	34.52
2.51345	34.52
2.53012	34.52
2.54678	34.52
2.56345	34.52
2.58012	34.52
2.59678	34.52
2.61345	34.52
2.63012	34.52
2.64678	34.52
2.66345	34.52
2.68012	34.52
2.69678	34.52
2.71345	34.52
2.73012	34.52
2.74678	34.52
2.76345	34.51
2.78012	34.52
2.79678	34.52
2.81345	34.52
2.83012	34.52
2.84678	34.52
2.86345	34.52
2.88012	34.52
2.89678	34.51
2.91345	34.52
2.93012	34.52
2.94678	34.52
2.96345	34.52
2.98012	34.52
2.99678	34.52
3.01345	34.51
3.03012	34.52
3.04678	34.52
3.06345	34.52
3.08012	34.52
3.09678	34.52
3.11345	34.52
3.13012	34.52
3.14678	34.51
3.16345	34.52
3.18012	34.52
3.19678	34.52
3.21345	34.51
3.23012	34.52
3.24678	34.52
3.26345	34.51
3.28012	34.52
3.29678	34.52
3.31345	34.52
3.33012	34.52
3.34678	34.51
3.36345	34.52
3.38012	34.52
3.39678	34.51
3.41345	34.51
3.43012	34.52
3.44678	34.52
3.46345	34.52
3.48012	34.52
3.49678	34.52
3.51345	34.51
3.53012	34.52
3.54678	34.53
3.56345	34.52
3.58012	34.51
3.59678	34.52
3.61345	34.52
3.63012	34.51
3.64678	34.51
3.66345	34.52
3.68012	34.52
3.69678	34.51
3.71345	34.53
3.73012	34.52
3.74678	34.52
3.76345	34.51
3.78012	34.52
3.79678	34.52
3.81345	34.52
3.83012	34.52
3.84678	34.52
3.86345	34.52
3.88012	34.52
3.89678	34.52
3.91345	34.52
3.93012	34.52
3.94678	34.52
3.96345	34.51
3.98012	34.52
3.99678	34.52

[Status Trace (Column Flow)]
Interval(msec)	1000
# of Points	240
Start Time(min)	0.013
End Time(min)	3.997
Intensity Units	
Intensity Multiplier	1
R.Time (min)	Intensity
0.01345	5.50
0.03012	5.21
0.04678	5.53
0.06345	5.75
0.08012	5.62
0.09678	5.53
0.11345	5.54
0.13012	5.54
0.14678	5.54
0.16345	5.54
0.18012	5.54
0.19678	5.54
0.21345	5.54
0.23012	5.54
0.24678	5.54
0.26345	5.54
0.28012	5.54
0.29678	5.54
0.31345	5.54
0.33012	5.54
0.34678	5.54
0.36345	5.54
0.38012	5.54
0.39678	5.54
0.41345	5.54
0.43012	5.54
0.44678	5.54
0.46345	5.54
0.48012	5.54
0.49678	5.54
0.51345	5.54
0.53012	5.54
0.54678	5.54
0.56345	5.54
0.58012	5.54
0.59678	5.54
0.61345	5.54
0.63012	5.54
0.64678	5.54
0.66345	5.54
0.68012	5.54
0.69678	5.54
0.71345	5.54
0.73012	5.54
0.74678	5.54
0.76345	5.54
0.78012	5.54
0.79678	5.54
0.81345	5.54
0.83012	5.54
0.84678	5.54
0.86345	5.54
0.88012	5.54
0.89678	5.54
0.91345	5.54
0.93012	5.54
0.94678	5.54
0.96345	5.54
0.98012	5.54
0.99678	5.54
1.01345	5.54
1.03012	5.54
1.04678	5.54
1.06345	5.54
1.08012	5.54
1.09678	5.54
1.11345	5.54
1.13012	5.54
1.14678	5.54
1.16345	5.54
1.18012	5.54
1.19678	5.54
1.21345	5.54
1.23012	5.54
1.24678	5.54
1.26345	5.54
1.28012	5.54
1.29678	5.54
1.31345	5.54
1.33012	5.54
1.34678	5.54
1.36345	5.54
1.38012	5.54
1.39678	5.54
1.41345	5.54
1.43012	5.54
1.44678	5.54
1.46345	5.54
1.48012	5.54
1.49678	5.54
1.51345	5.54
1.53012	5.54
1.54678	5.54
1.56345	5.54
1.58012	5.54
1.59678	5.54
1.61345	5.54
1.63012	5.53
1.64678	5.52
1.66345	5.52
1.68012	5.51
1.69678	5.49
1.71345	5.48
1.73012	5.47
1.74678	5.46
1.76345	5.45
1.78012	5.44
1.79678	5.43
1.81345	5.42
1.83012	5.41
1.84678	5.40
1.86345	5.39
1.88012	5.38
1.89678	5.37
1.91345	5.36
1.93012	5.35
1.94678	5.34
1.96345	5.33
1.98012	5.32
1.99678	5.31
2.01345	5.30
2.03012	5.29
2.04678	5.28
2.06345	5.27
2.08012	5.26
2.09678	5.26
2.11345	5.25
2.13012	5.24
2.14678	5.23
2.16345	5.22
2.18012	5.21
2.19678	5.20
2.21345	5.19
2.23012	5.18
2.24678	5.17
2.26345	5.16
2.28012	5.15
2.29678	5.14
2.31345	5.13
2.33012	5.12
2.34678	5.11
2.36345	5.11
2.38012	5.10
2.39678	5.10
2.41345	5.10
2.43012	5.10
2.44678	5.10
2.46345	5.10
2.48012	5.10
2.49678	5.10
2.51345	5.10
2.53012	5.10
2.54678	5.10
2.56345	5.10
2.58012	5.10
2.59678	5.10
2.61345	5.10
2.63012	5.10
2.64678	5.10
2.66345	5.10
2.68012	5.10
2.69678	5.10
2.71345	5.10
2.73012	5.10
2.74678	5.10
2.76345	5.10
2.78012	5.10
2.79678	5.10
2.81345	5.10
2.83012	5.10
2.84678	5.10
2.86345	5.10
2.88012	5.10
2.89678	5.10
2.91345	5.10
2.93012	5.10
2.94678	5.10
2.96345	5.10
2.98012	5.09
2.99678	5.09
3.01345	5.09
3.03012	5.09
3.04678	5.09
3.06345	5.09
3.08012	5.09
3.09678	5.09
3.11345	5.09
3.13012	5.09
3.14678	5.09
3.16345	5.09
3.18012	5.09
3.19678	5.09
3.21345	5.09
3.23012	5.09
3.24678	5.09
3.26345	5.09
3.28012	5.09
3.29678	5.09
3.31345	5.09
3.33012	5.09
3.34678	5.09
3.36345	5.09
3.38012	5.09
3.39678	5.09
3.41345	5.09
3.43012	5.09
3.44678	5.09
3.46345	5.09
3.48012	5.09
3.49678	5.09
3.51345	5.09
3.53012	5.09
3.54678	5.09
3.56345	5.09
3.58012	5.09
3.59678	5.09
3.61345	5.09
3.63012	5.09
3.64678	5.09
3.66345	5.09
3.68012	5.09
3.69678	5.09
3.71345	5.09
3.73012	5.09
3.74678	5.09
3.76345	5.09
3.78012	5.09
3.79678	5.09
3.81345	5.09
3.83012	5.09
3.84678	5.09
3.86345	5.09
3.88012	5.09
3.89678	5.09
3.91345	5.09
3.93012	5.09
3.94678	5.09
3.96345	5.09
3.98012	5.09
3.99678	5.09

[Status Trace (Linear Velocity)]
Interval(msec)	1000
# of Points	240
Start Time(min)	0.013
End Time(min)	3.997
Intensity Units	
Intensity Multiplier	1
R.Time (min)	Intensity
0.01345	38.81
0.03012	37.16
0.04678	38.96
0.06345	40.23
0.08012	39.48
0.09678	39.00
0.11345	39.02
0.13012	39.03
0.14678	39.02
0.16345	39.02
0.18012	39.02
0.19678	39.02
0.21345	39.02
0.23012	39.02
0.24678	39.02
0.26345	39.02
0.28012	39.02
0.29678	39.02
0.31345	39.02
0.33012	39.02
0.34678	39.02
0.36345	39.02
0.38012	39.02
0.39678	39.02
0.41345	39.02
0.43012	39.02
0.44678	39.02
0.46345	39.02
0.48012	39.02
0.49678	39.02
0.51345	39.02
0.53012	39.02
0.54678	39.02
0.56345	39.02
0.58012	39.02
0.59678	39.02
0.61345	39.02
0.63012	39.02
0.64678	39.02
0.66345	39.02
0.68012	39.02
0.69678	39.02
0.71345	39.02
0.73012	39.02
0.74678	39.02
0.76345	39.02
0.78012	39.02
0.79678	39.02
0.81345	39.02
0.83012	39.02
0.84678	39.02
0.86345	39.02
0.88012	39.02
0.89678	39.02
0.91345	39.02
0.93012	39.02
0.94678	39.02
0.96345	39.02
0.98012	39.02
0.99678	39.02
1.01345	39.02
1.03012	39.02
1.04678	39.02
1.06345	39.02
1.08012	39.02
1.09678	39.02
1.11345	39.02
1.13012	39.02
1.14678	39.02
1.16345	39.02
1.18012	39.02
1.19678	39.02
1.21345	39.02
1.23012	39.02
1.24678	39.02
1.26345	39.02
1.28012	39.02
1.29678	39.02
1.31345	39.02
1.33012	39.02
1.34678	39.02
1.36345	39.02
1.38012	39.02
1.39678	39.02
1.41345	39.02
1.43012	39.02
1.44678	39.02
1.46345	39.02
1.48012	39.02
1.49678	39.02
1.51345	39.02
1.53012	39.02
1.54678	39.02
1.56345	39.02
1.58012	39.02
1.59678	39.02
1.61345	39.01
1.63012	39.00
1.64678	38.98
1.66345	38.96
1.68012	38.92
1.69678	38.89
1.71345	38.85
1.73012	38.82
1.74678	38.79
1.76345	38.75
1.78012	38.73
1.79678	38.70
1.81345	38.66
1.83012	38.63
1.84678	38.60
1.86345	38.57
1.88012	38.54
1.89678	38.51
1.91345	38.48
1.93012	38.45
1.94678	38.42
1.96345	38.39
1.98012	38.36
1.99678	38.33
2.01345	38.30
2.03012	38.27
2.04678	38.24
2.06345	38.21
2.08012	38.18
2.09678	38.15
2.11345	38.12
2.13012	38.09
2.14678	38.06
2.16345	38.03
2.18012	38.00
2.19678	37.97
2.21345	37.94
2.23012	37.91
2.24678	37.88
2.26345	37.85
2.28012	37.82
2.29678	37.79
2.31345	37.76
2.33012	37.73
2.34678	37.70
2.36345	37.68
2.38012	37.66
2.39678	37.66
2.41345	37.66
2.43012	37.66
2.44678	37.66
2.46345	37.66
2.48012	37.66
2.49678	37.66
2.51345	37.65
2.53012	37.65
2.54678	37.66
2.56345	37.66
2.58012	37.65
2.59678	37.65
2.61345	37.65
2.63012	37.65
2.64678	37.65
2.66345	37.65
2.68012	37.65
2.69678	37.65
2.71345	37.65
2.73012	37.65
2.74678	37.65
2.76345	37.65
2.78012	37.65
2.79678	37.65
2.81345	37.65
2.83012	37.65
2.84678	37.65
2.86345	37.65
2.88012	37.65
2.89678	37.65
2.91345	37.65
2.93012	37.65
2.94678	37.64
2.96345	37.64
2.98012	37.64
2.99678	37.64
3.01345	37.64
3.03012	37.64
3.04678	37.64
3.06345	37.64
3.08012	37.63
3.09678	37.63
3.11345	37.63
3.13012	37.63
3.14678	37.63
3.16345	37.63
3.18012	37.63
3.19678	37.63
3.21345	37.63
3.23012	37.63
3.24678	37.63
3.26345	37.63
3.28012	37.63
3.29678	37.63
3.31345	37.63
3.33012	37.63
3.34678	37.63
3.36345	37.63
3.38012	37.63
3.39678	37.63
3.41345	37.63
3.43012	37.63
3.44678	37.63
3.46345	37.63
3.48012	37.63
3.49678	37.63
3.51345	37.63
3.53012	37.63
3.54678	37.64
3.56345	37.64
3.58012	37.64
3.59678	37.64
3.61345	37.64
3.63012	37.64
3.64678	37.64
3.66345	37.64
3.68012	37.64
3.69678	37.64
3.71345	37.63
3.73012	37.63
3.74678	37.63
3.76345	37.63
3.78012	37.63
3.79678	37.63
3.81345	37.63
3.83012	37.63
3.84678	37.63
3.86345	37.63
3.88012	37.63
3.89678	37.63
3.91345	37.63
3.93012	37.63
3.94678	37.63
3.96345	37.63
3.98012	37.63
3.99678	37.63

