[Header]
Application Name	LabSolutions
Version	5.110
Data File Name	C:\Users\User\Desktop\Junior\UIC Prairie Sampling\5.18.23\05182023_043.gcd
Output Date	6/5/2023
Output Time	2:17:27 PM

[File Information]
Type	Data File
Generated	5/24/2023 4:46:21 PM
Generated by	System Administrator
Modified	5/24/2023 4:53:41 PM
Modified by	System Administrator

[Sample Information]
Operator Name	System Administrator
Acquired	5/24/2023 4:49:39 PM
Sample Type	0:Unknown
Level	0
Sample Name	043
Sample ID	043
ISTD Amount1	1
ISTD Amount2	1
ISTD Amount3	1
ISTD Amount4	1
ISTD Amount5	1
ISTD Amount6	1
ISTD Amount7	1
ISTD Amount8	1
ISTD Amount9	1
ISTD Amount10	1
ISTD Amount11	1
ISTD Amount12	1
ISTD Amount13	1
ISTD Amount14	1
ISTD Amount15	1
ISTD Amount16	1
ISTD Amount17	1
ISTD Amount18	1
ISTD Amount19	1
ISTD Amount20	1
ISTD Amount21	1
ISTD Amount22	1
ISTD Amount23	1
ISTD Amount24	1
ISTD Amount25	1
ISTD Amount26	1
ISTD Amount27	1
ISTD Amount28	1
ISTD Amount29	1
ISTD Amount30	1
ISTD Amount31	1
ISTD Amount32	1
Sample Amount	1
Dilution Factor	1
Vial#	42
Injection Volume	1
Injection Count	1
Bar Code	

[Original Files]
Data File	C:\Users\User\Desktop\Junior\UIC Prairie Sampling\5.18.23\05182023_043.gcd
Method File	C:\LabSolutions\Data\GHG_4min_2022\ghg3_togas_w_acet_4 min_new_int.gcm
Batch File	C:\LabSolutions\Data\AutoSamplerTesting\05182023.gcb
Report Format File	c:\LabSolutions\System\DEFAULT.lsr

[File Description]


[Configuration]
Instrument Name	C0B7VH3-Instrument1
Instrument #	1
Line #	1
# of Detectors	3
Detector ID	DET#1	DET#2	DET#3
Detector Name	FID	PTCD	ECD
# of Channels	1	1	1

[Peak Table(Ch1)]
# of Peaks	4
Peak#	R.Time	I.Time	F.Time	Area	Height	A/H	Conc.	Mark	ID#	Name	k'	Plate #	Plate Ht.	Tailing	Resolution	Sep.Factor	Area Ratio	Height Ratio	Conc. %	Norm Conc.
1	1.472	1.432	1.531	5047	2449	2.061	0.000	   	1	CO	0.000	9603	15.619	1.263	0.000	0.000	0	0	0.000	0.000
2	1.564	1.531	1.622	6459	3278	1.971	31.490	 V 	2	CH4	0.062	11451	13.099	1.180	1.547	0.000	0	0	12.577	12.577
3	1.989	1.934	2.403	1135813	540202	2.103	218.892	   	3	CO2	0.351	17418	8.612	1.337	7.165	5.640	0	0	87.423	87.423
4	3.408	3.129	3.661	760	47	16.064	0.000	   	6	Ethane	1.315	5600	26.786	0.953	11.706	3.745	0	0	0.000	0.000

[Peak Table(Ch2)]
# of Peaks	0

[Peak Table(Ch3)]
# of Peaks	5
Peak#	R.Time	I.Time	F.Time	Area	Height	A/H	Conc.	Mark	ID#	Name	k'	Plate #	Plate Ht.	Tailing	Resolution	Sep.Factor	Area Ratio	Height Ratio	Conc. %	Norm Conc.
1	2.458	2.429	2.510	770	299	2.572	0.000	   			0.000	16044	9.349	0.000	0.000	0.000	0	0	0.000	0.000
2	2.524	2.510	2.576	278	111	2.519	0.000	 V 			0.027	6277	23.898	0.000	0.644	0.000	0	0	0.000	0.000
3	2.627	2.576	2.689	300	83	3.615	0.000	 V 			0.069	10711	14.005	0.000	0.897	2.556	0	0	0.000	0.000
4	2.887	2.744	3.093	21254	4789	4.438	0.314	   	1	N2O	0.175	12863	11.662	0.000	2.560	2.543	0	0	100.000	100.000
5	3.265	3.093	3.995	12402	400	31.041	0.000	 V 			0.328	115	1298.746	0.000	0.573	1.880	0	0	0.000	0.000

[Compound Results(Ch1)]
# of IDs	6
ID#	Name	R.Time	Area	Height	Conc.	Curve	3rd	2nd	1st	Constant	Area Ratio	Height Ratio	Conc. %	Norm Conc.
1	CO	1.472	5047	2449	0.000	Linear	0.000000e+00	0.000000e+00	0.000000e+00	0.000000e+00	0	0	0.000	0.000
2	CH4	1.564	6459	3278	31.490	Linear	0.000000e+00	0.000000e+00	2.051179e+002	0.000000e+00	0	0	12.577	12.577
3	CO2	1.989	1135813	540202	218.892	Linear	0.000000e+00	0.000000e+00	5.188919e+003	0.000000e+00	0	0	87.423	87.423
4	Ethylene	0.000	0	0	0.000	Linear	0.000000e+00	0.000000e+00	0.000000e+00	0.000000e+00	0	0	0.000	0.000
5	Acetylene	0.000	0	0	0.000	Linear	0.000000e+00	0.000000e+00	0.000000e+00	0.000000e+00	0	0	0.000	0.000
6	Ethane	3.408	760	47	0.000	Linear	0.000000e+00	0.000000e+00	0.000000e+00	0.000000e+00	0	0	0.000	0.000

[Compound Results(Ch2)]
# of IDs	5
ID#	Name	R.Time	Area	Height	Conc.	Curve	3rd	2nd	1st	Constant	Area Ratio	Height Ratio	Conc. %	Norm Conc.
1	Hydrogen	0.000	0	0	0.000	Linear	0.000000e+00	0.000000e+00	0.000000e+00	0.000000e+00	0	0	0.000	0.000
2	Oxygen	0.000	0	0	0.000	Linear	0.000000e+00	0.000000e+00	0.000000e+00	0.000000e+00	0	0	0.000	0.000
3	Nitrogen	0.000	0	0	0.000	Linear	0.000000e+00	0.000000e+00	0.000000e+00	0.000000e+00	0	0	0.000	0.000
4	Methane	0.000	0	0	0.000	Linear	0.000000e+00	0.000000e+00	0.000000e+00	0.000000e+00	0	0	0.000	0.000
5	Carbon Monoxide	0.000	0	0	0.000	Linear	0.000000e+00	0.000000e+00	0.000000e+00	0.000000e+00	0	0	0.000	0.000

[Compound Results(Ch3)]
# of IDs	2
ID#	Name	R.Time	Area	Height	Conc.	Curve	3rd	2nd	1st	Constant	Area Ratio	Height Ratio	Conc. %	Norm Conc.
1	N2O	2.887	21254	4789	0.314	Linear	0.000000e+00	0.000000e+00	6.759880e+004	0.000000e+00	0	0	100.000	100.000
2	SF6	0.000	0	0	0.000	Linear	0.000000e+00	0.000000e+00	0.000000e+00	0.000000e+00	0	0	0.000	0.000

[Group Results(Ch1)]
# of Groups	0

[Group Results(Ch2)]
# of Groups	0

[Group Results(Ch3)]
# of Groups	0

[Chromatogram (Ch1)]
Interval(msec)	220
# of Points	1091
Start Time(min)	0.002
End Time(min)	3.998
R.Time (min)	Intensity
0.00167	10
0.00533	17
0.00900	24
0.01267	30
0.01633	31
0.02000	30
0.02367	29
0.02733	24
0.03100	17
0.03467	12
0.03833	10
0.04200	10
0.04567	12
0.04933	16
0.05300	19
0.05667	22
0.06033	25
0.06400	27
0.06767	28
0.07133	27
0.07500	24
0.07867	18
0.08233	9
0.08600	-2
0.08967	-14
0.09333	-21
0.09700	-21
0.10067	-17
0.10433	-19
0.10800	-23
0.11167	-24
0.11533	-21
0.11900	-13
0.12267	-2
0.12633	9
0.13000	18
0.13367	24
0.13733	21
0.14100	13
0.14467	5
0.14833	-2
0.15200	-9
0.15567	-15
0.15933	-17
0.16300	-15
0.16667	-10
0.17033	-4
0.17400	3
0.17767	7
0.18133	11
0.18500	14
0.18867	18
0.19233	20
0.19600	19
0.19967	19
0.20333	21
0.20700	25
0.21067	25
0.21433	17
0.21800	2
0.22167	-9
0.22533	-13
0.22900	-8
0.23267	1
0.23633	7
0.24000	8
0.24367	7
0.24733	3
0.25100	-1
0.25467	-3
0.25833	-6
0.26200	-9
0.26567	-10
0.26933	-3
0.27300	6
0.27667	13
0.28033	13
0.28400	9
0.28767	4
0.29133	-0
0.29500	-1
0.29867	1
0.30233	6
0.30600	12
0.30967	12
0.31333	9
0.31700	5
0.32067	3
0.32433	4
0.32800	6
0.33167	6
0.33533	6
0.33900	5
0.34267	3
0.34633	5
0.35000	10
0.35367	11
0.35733	9
0.36100	8
0.36467	8
0.36833	6
0.37200	6
0.37567	7
0.37933	8
0.38300	8
0.38667	7
0.39033	4
0.39400	1
0.39767	-3
0.40133	-5
0.40500	-2
0.40867	2
0.41233	4
0.41600	6
0.41967	4
0.42333	-0
0.42700	-7
0.43067	-11
0.43433	-14
0.43800	-18
0.44167	-22
0.44533	-25
0.44900	-24
0.45267	-18
0.45633	-11
0.46000	-4
0.46367	-1
0.46733	-2
0.47100	-7
0.47467	-14
0.47833	-17
0.48200	-16
0.48567	-14
0.48933	-12
0.49300	-13
0.49667	-15
0.50033	-15
0.50400	-16
0.50767	-20
0.51133	-24
0.51500	-23
0.51867	-17
0.52233	-8
0.52600	-4
0.52967	-3
0.53333	-4
0.53700	-7
0.54067	-6
0.54433	-3
0.54800	-4
0.55167	-6
0.55533	-8
0.55900	-9
0.56267	-12
0.56633	-12
0.57000	-11
0.57367	-11
0.57733	-11
0.58100	-11
0.58467	-8
0.58833	-3
0.59200	0
0.59567	1
0.59933	-1
0.60300	-6
0.60667	-8
0.61033	-3
0.61400	8
0.61767	15
0.62133	13
0.62500	7
0.62867	3
0.63233	4
0.63600	7
0.63967	8
0.64333	3
0.64700	-6
0.65067	-10
0.65433	-8
0.65800	-2
0.66167	4
0.66533	5
0.66900	1
0.67267	-3
0.67633	-6
0.68000	-7
0.68367	-8
0.68733	-9
0.69100	-8
0.69467	-5
0.69833	-6
0.70200	-8
0.70567	-5
0.70933	-3
0.71300	-4
0.71667	-9
0.72033	-14
0.72400	-17
0.72767	-19
0.73133	-20
0.73500	-20
0.73867	-22
0.74233	-25
0.74600	-25
0.74967	-25
0.75333	-25
0.75700	-24
0.76067	-19
0.76433	-15
0.76800	-13
0.77167	-10
0.77533	-10
0.77900	-14
0.78267	-17
0.78633	-19
0.79000	-18
0.79367	-16
0.79733	-15
0.80100	-10
0.80467	-2
0.80833	0
0.81200	-4
0.81567	-12
0.81933	-20
0.82300	-23
0.82667	-24
0.83033	-24
0.83400	-25
0.83767	-25
0.84133	-25
0.84500	-26
0.84867	-27
0.85233	-29
0.85600	-31
0.85967	-31
0.86333	-33
0.86700	-35
0.87067	-32
0.87433	-26
0.87800	-22
0.88167	-20
0.88533	-18
0.88900	-17
0.89267	-17
0.89633	-18
0.90000	-21
0.90367	-23
0.90733	-23
0.91100	-24
0.91467	-28
0.91833	-33
0.92200	-34
0.92567	-35
0.92933	-35
0.93300	-30
0.93667	-28
0.94033	-24
0.94400	-22
0.94767	-20
0.95133	-20
0.95500	-19
0.95867	-22
0.96233	-24
0.96600	-20
0.96967	-17
0.97333	-18
0.97700	-22
0.98067	-25
0.98433	-28
0.98800	-32
0.99167	-33
0.99533	-28
0.99900	-17
1.00267	-6
1.00633	-5
1.01000	-11
1.01367	-18
1.01733	-23
1.02100	-28
1.02467	-32
1.02833	-36
1.03200	-36
1.03567	-34
1.03933	-30
1.04300	-29
1.04667	-29
1.05033	-25
1.05400	-23
1.05767	-24
1.06133	-25
1.06500	-25
1.06867	-25
1.07233	-29
1.07600	-34
1.07967	-38
1.08333	-41
1.08700	-42
1.09067	-41
1.09433	-40
1.09800	-37
1.10167	-37
1.10533	-37
1.10900	-35
1.11267	-35
1.11633	-37
1.12000	-39
1.12367	-38
1.12733	-33
1.13100	-29
1.13467	-25
1.13833	-28
1.14200	-33
1.14567	-39
1.14933	-42
1.15300	-44
1.15667	-45
1.16033	-42
1.16400	-38
1.16767	-35
1.17133	-33
1.17500	-32
1.17867	-32
1.18233	-33
1.18600	-33
1.18967	-35
1.19333	-38
1.19700	-42
1.20067	-44
1.20433	-41
1.20800	-36
1.21167	-33
1.21533	-32
1.21900	-31
1.22267	-30
1.22633	-28
1.23000	-25
1.23367	-22
1.23733	-20
1.24100	-21
1.24467	-26
1.24833	-33
1.25200	-37
1.25567	-40
1.25933	-44
1.26300	-43
1.26667	-38
1.27033	-33
1.27400	-31
1.27767	-29
1.28133	-30
1.28500	-32
1.28867	-34
1.29233	-37
1.29600	-37
1.29967	-32
1.30333	-24
1.30700	-16
1.31067	-14
1.31433	-16
1.31800	-23
1.32167	-31
1.32533	-36
1.32900	-35
1.33267	-34
1.33633	-36
1.34000	-40
1.34367	-44
1.34733	-47
1.35100	-49
1.35467	-46
1.35833	-39
1.36200	-31
1.36567	-27
1.36933	-31
1.37300	-32
1.37667	-30
1.38033	-31
1.38400	-34
1.38767	-34
1.39133	-34
1.39500	-36
1.39867	-38
1.40233	-39
1.40600	-42
1.40967	-46
1.41333	-45
1.41700	-42
1.42067	-39
1.42433	-37
1.42800	-39
1.43167	-38
1.43533	-25
1.43900	4
1.44267	38
1.44633	121
1.45000	365
1.45367	776
1.45733	1253
1.46100	1693
1.46467	2050
1.46833	2296
1.47200	2404
1.47567	2344
1.47933	2118
1.48300	1775
1.48667	1393
1.49033	1039
1.49400	744
1.49767	514
1.50133	341
1.50500	219
1.50867	136
1.51233	85
1.51600	48
1.51967	18
1.52333	-4
1.52700	-21
1.53067	-29
1.53433	15
1.53800	196
1.54167	593
1.54533	1178
1.54900	1823
1.55267	2406
1.55633	2856
1.56000	3141
1.56367	3217
1.56733	3049
1.57100	2659
1.57467	2139
1.57833	1605
1.58200	1142
1.58567	778
1.58933	509
1.59300	321
1.59667	195
1.60033	108
1.60400	46
1.60767	4
1.61133	-28
1.61500	-50
1.61867	-64
1.62233	-71
1.62600	-74
1.62967	-75
1.63333	-72
1.63700	-69
1.64067	-66
1.64433	-65
1.64800	-68
1.65167	-72
1.65533	-75
1.65900	-75
1.66267	-76
1.66633	-75
1.67000	-75
1.67367	-73
1.67733	-71
1.68100	-68
1.68467	-68
1.68833	-68
1.69200	-68
1.69567	-67
1.69933	-67
1.70300	-66
1.70667	-66
1.71033	-68
1.71400	-69
1.71767	-70
1.72133	-71
1.72500	-69
1.72867	-67
1.73233	-63
1.73600	-56
1.73967	-49
1.74333	-45
1.74700	-45
1.75067	-50
1.75433	-57
1.75800	-65
1.76167	-69
1.76533	-70
1.76900	-70
1.77267	-70
1.77633	-72
1.78000	-73
1.78367	-71
1.78733	-66
1.79100	-62
1.79467	-61
1.79833	-60
1.80200	-58
1.80567	-57
1.80933	-58
1.81300	-61
1.81667	-63
1.82033	-62
1.82400	-61
1.82767	-60
1.83133	-61
1.83500	-65
1.83867	-69
1.84233	-68
1.84600	-68
1.84967	-67
1.85333	-62
1.85700	-57
1.86067	-54
1.86433	-49
1.86800	-45
1.87167	-43
1.87533	-42
1.87900	-43
1.88267	-45
1.88633	-46
1.89000	-44
1.89367	-41
1.89733	-43
1.90100	-49
1.90467	-58
1.90833	-65
1.91200	-68
1.91567	-72
1.91933	-76
1.92300	-79
1.92667	-78
1.93033	-74
1.93400	-70
1.93767	-63
1.94133	-56
1.94500	-40
1.94867	32
1.95233	422
1.95600	2285
1.95967	9111
1.96333	28070
1.96700	68788
1.97067	137601
1.97433	230650
1.97800	333978
1.98167	429559
1.98533	501842
1.98900	540173
1.99267	539606
1.99633	501799
2.00000	435812
2.00367	355519
2.00733	274813
2.01100	203503
2.01467	146076
2.01833	102817
2.02200	71721
2.02567	50056
2.02933	35253
2.03300	25243
2.03667	18491
2.04033	13914
2.04400	10780
2.04767	8602
2.05133	7055
2.05500	5929
2.05867	5089
2.06233	4444
2.06600	3938
2.06967	3531
2.07333	3194
2.07700	2909
2.08067	2667
2.08433	2460
2.08800	2279
2.09167	2117
2.09533	1975
2.09900	1850
2.10267	1739
2.10633	1640
2.11000	1552
2.11367	1478
2.11733	1413
2.12100	1352
2.12467	1292
2.12833	1238
2.13200	1183
2.13567	1127
2.13933	1073
2.14300	1028
2.14667	990
2.15033	959
2.15400	929
2.15767	898
2.16133	867
2.16500	835
2.16867	800
2.17233	767
2.17600	741
2.17967	723
2.18333	708
2.18700	692
2.19067	674
2.19433	656
2.19800	642
2.20167	630
2.20533	615
2.20900	598
2.21267	583
2.21633	570
2.22000	557
2.22367	543
2.22733	530
2.23100	520
2.23467	514
2.23833	507
2.24200	497
2.24567	483
2.24933	464
2.25300	443
2.25667	425
2.26033	414
2.26400	409
2.26767	411
2.27133	416
2.27500	419
2.27867	419
2.28233	417
2.28600	407
2.28967	392
2.29333	380
2.29700	371
2.30067	369
2.30433	372
2.30800	370
2.31167	363
2.31533	355
2.31900	349
2.32267	344
2.32633	341
2.33000	339
2.33367	335
2.33733	328
2.34100	321
2.34467	316
2.34833	311
2.35200	309
2.35567	311
2.35933	315
2.36300	319
2.36667	321
2.37033	322
2.37400	319
2.37767	313
2.38133	306
2.38500	302
2.38867	297
2.39233	292
2.39600	287
2.39967	281
2.40333	275
2.40700	274
2.41067	275
2.41433	274
2.41800	272
2.42167	271
2.42533	270
2.42900	273
2.43267	276
2.43633	280
2.44000	283
2.44367	289
2.44733	291
2.45100	288
2.45467	285
2.45833	280
2.46200	278
2.46567	278
2.46933	278
2.47300	276
2.47667	270
2.48033	265
2.48400	264
2.48767	263
2.49133	262
2.49500	262
2.49867	266
2.50233	269
2.50600	274
2.50967	281
2.51333	289
2.51700	294
2.52067	292
2.52433	290
2.52800	289
2.53167	287
2.53533	284
2.53900	281
2.54267	277
2.54633	277
2.55000	277
2.55367	281
2.55733	294
2.56100	309
2.56467	319
2.56833	319
2.57200	313
2.57567	300
2.57933	287
2.58300	274
2.58667	266
2.59033	264
2.59400	267
2.59767	273
2.60133	277
2.60500	277
2.60867	279
2.61233	280
2.61600	283
2.61967	287
2.62333	288
2.62700	287
2.63067	290
2.63433	291
2.63800	292
2.64167	295
2.64533	301
2.64900	310
2.65267	319
2.65633	325
2.66000	325
2.66367	319
2.66733	308
2.67100	296
2.67467	289
2.67833	287
2.68200	287
2.68567	293
2.68933	299
2.69300	303
2.69667	309
2.70033	315
2.70400	321
2.70767	327
2.71133	331
2.71500	334
2.71867	335
2.72233	338
2.72600	344
2.72967	350
2.73333	356
2.73700	359
2.74067	356
2.74433	346
2.74800	337
2.75167	334
2.75533	332
2.75900	331
2.76267	331
2.76633	332
2.77000	332
2.77367	332
2.77733	334
2.78100	339
2.78467	343
2.78833	350
2.79200	357
2.79567	363
2.79933	365
2.80300	365
2.80667	368
2.81033	370
2.81400	369
2.81767	366
2.82133	365
2.82500	366
2.82867	369
2.83233	373
2.83600	376
2.83967	376
2.84333	373
2.84700	370
2.85067	368
2.85433	364
2.85800	364
2.86167	370
2.86533	378
2.86900	386
2.87267	390
2.87633	393
2.88000	394
2.88367	394
2.88733	393
2.89100	391
2.89467	389
2.89833	388
2.90200	390
2.90567	394
2.90933	396
2.91300	395
2.91667	394
2.92033	399
2.92400	405
2.92767	408
2.93133	410
2.93500	411
2.93867	411
2.94233	413
2.94600	416
2.94967	420
2.95333	424
2.95700	429
2.96067	434
2.96433	434
2.96800	433
2.97167	433
2.97533	437
2.97900	445
2.98267	450
2.98633	453
2.99000	456
2.99367	454
2.99733	448
3.00100	445
3.00467	449
3.00833	454
3.01200	457
3.01567	462
3.01933	465
3.02300	463
3.02667	459
3.03033	454
3.03400	448
3.03767	440
3.04133	431
3.04500	429
3.04867	429
3.05233	429
3.05600	430
3.05967	433
3.06333	435
3.06700	436
3.07067	437
3.07433	438
3.07800	439
3.08167	441
3.08533	443
3.08900	444
3.09267	444
3.09633	448
3.10000	452
3.10367	457
3.10733	461
3.11100	461
3.11467	455
3.11833	443
3.12200	432
3.12567	428
3.12933	432
3.13300	442
3.13667	452
3.14033	455
3.14400	454
3.14767	455
3.15133	455
3.15500	456
3.15867	456
3.16233	455
3.16600	451
3.16967	449
3.17333	449
3.17700	451
3.18067	450
3.18433	448
3.18800	446
3.19167	443
3.19533	438
3.19900	434
3.20267	434
3.20633	435
3.21000	438
3.21367	443
3.21733	445
3.22100	446
3.22467	449
3.22833	452
3.23200	452
3.23567	453
3.23933	455
3.24300	456
3.24667	453
3.25033	449
3.25400	447
3.25767	447
3.26133	449
3.26500	452
3.26867	456
3.27233	459
3.27600	460
3.27967	460
3.28333	453
3.28700	445
3.29067	441
3.29433	441
3.29800	444
3.30167	449
3.30533	455
3.30900	458
3.31267	460
3.31633	458
3.32000	451
3.32367	444
3.32733	443
3.33100	446
3.33467	450
3.33833	449
3.34200	445
3.34567	440
3.34933	435
3.35300	438
3.35667	447
3.36033	451
3.36400	447
3.36767	445
3.37133	445
3.37500	446
3.37867	447
3.38233	447
3.38600	446
3.38967	445
3.39333	445
3.39700	446
3.40067	449
3.40433	456
3.40800	461
3.41167	461
3.41533	454
3.41900	444
3.42267	435
3.42633	428
3.43000	427
3.43367	430
3.43733	436
3.44100	441
3.44467	445
3.44833	446
3.45200	447
3.45567	448
3.45933	443
3.46300	435
3.46667	430
3.47033	428
3.47400	425
3.47767	424
3.48133	422
3.48500	420
3.48867	417
3.49233	417
3.49600	420
3.49967	428
3.50333	437
3.50700	437
3.51067	434
3.51433	433
3.51800	433
3.52167	433
3.52533	432
3.52900	430
3.53267	430
3.53633	431
3.54000	434
3.54367	438
3.54733	440
3.55100	433
3.55467	425
3.55833	423
3.56200	424
3.56567	426
3.56933	428
3.57300	430
3.57667	432
3.58033	431
3.58400	430
3.58767	426
3.59133	421
3.59500	417
3.59867	412
3.60233	410
3.60600	409
3.60967	408
3.61333	409
3.61700	414
3.62067	416
3.62433	414
3.62800	413
3.63167	415
3.63533	417
3.63900	421
3.64267	427
3.64633	430
3.65000	426
3.65367	415
3.65733	405
3.66100	397
3.66467	393
3.66833	392
3.67200	394
3.67567	400
3.67933	407
3.68300	412
3.68667	413
3.69033	409
3.69400	405
3.69767	400
3.70133	396
3.70500	396
3.70867	398
3.71233	400
3.71600	403
3.71967	407
3.72333	414
3.72700	419
3.73067	419
3.73433	408
3.73800	393
3.74167	384
3.74533	384
3.74900	391
3.75267	398
3.75633	402
3.76000	401
3.76367	396
3.76733	388
3.77100	383
3.77467	385
3.77833	392
3.78200	394
3.78567	391
3.78933	388
3.79300	386
3.79667	387
3.80033	392
3.80400	397
3.80767	400
3.81133	396
3.81500	393
3.81867	392
3.82233	393
3.82600	394
3.82967	393
3.83333	391
3.83700	390
3.84067	387
3.84433	381
3.84800	379
3.85167	378
3.85533	378
3.85900	380
3.86267	381
3.86633	379
3.87000	380
3.87367	387
3.87733	398
3.88100	407
3.88467	406
3.88833	396
3.89200	384
3.89567	376
3.89933	375
3.90300	377
3.90667	381
3.91033	384
3.91400	383
3.91767	380
3.92133	379
3.92500	377
3.92867	376
3.93233	378
3.93600	380
3.93967	378
3.94333	375
3.94700	377
3.95067	379
3.95433	385
3.95800	391
3.96167	394
3.96533	391
3.96900	387
3.97267	383
3.97633	379
3.98000	380
3.98367	383
3.98733	386
3.99100	385
3.99467	382
3.99833	378

[Chromatogram (Ch2)]
Interval(msec)	220
# of Points	1091
Start Time(min)	0.002
End Time(min)	3.998
R.Time (min)	Intensity
0.00167	0
0.00533	0
0.00900	-0
0.01267	-1
0.01633	-1
0.02000	-1
0.02367	-1
0.02733	-1
0.03100	-1
0.03467	-1
0.03833	-0
0.04200	-0
0.04567	-0
0.04933	-0
0.05300	0
0.05667	0
0.06033	-0
0.06400	-0
0.06767	-0
0.07133	-0
0.07500	-0
0.07867	-0
0.08233	-0
0.08600	-0
0.08967	0
0.09333	0
0.09700	0
0.10067	0
0.10433	0
0.10800	0
0.11167	-0
0.11533	-1
0.11900	-1
0.12267	-1
0.12633	-2
0.13000	-2
0.13367	-2
0.13733	-2
0.14100	-2
0.14467	-2
0.14833	-2
0.15200	-2
0.15567	-2
0.15933	-3
0.16300	-3
0.16667	-3
0.17033	-4
0.17400	-4
0.17767	-4
0.18133	-4
0.18500	-4
0.18867	-4
0.19233	-4
0.19600	-4
0.19967	-5
0.20333	-5
0.20700	-5
0.21067	-5
0.21433	-6
0.21800	-6
0.22167	-6
0.22533	-6
0.22900	-6
0.23267	-6
0.23633	-6
0.24000	-6
0.24367	-5
0.24733	-4
0.25100	-3
0.25467	-3
0.25833	-2
0.26200	-2
0.26567	-2
0.26933	-2
0.27300	-1
0.27667	-1
0.28033	-1
0.28400	-1
0.28767	-1
0.29133	-1
0.29500	-1
0.29867	-1
0.30233	-0
0.30600	-0
0.30967	-0
0.31333	-0
0.31700	-0
0.32067	-0
0.32433	0
0.32800	0
0.33167	0
0.33533	0
0.33900	0
0.34267	0
0.34633	1
0.35000	1
0.35367	1
0.35733	0
0.36100	0
0.36467	-0
0.36833	-0
0.37200	-1
0.37567	-1
0.37933	-1
0.38300	-1
0.38667	-1
0.39033	-1
0.39400	-1
0.39767	-1
0.40133	-1
0.40500	-1
0.40867	-1
0.41233	-1
0.41600	-1
0.41967	-1
0.42333	-1
0.42700	-1
0.43067	-2
0.43433	-2
0.43800	-3
0.44167	-3
0.44533	-3
0.44900	-3
0.45267	-3
0.45633	-3
0.46000	-3
0.46367	-3
0.46733	-2
0.47100	-2
0.47467	-2
0.47833	-2
0.48200	-2
0.48567	-2
0.48933	-2
0.49300	-2
0.49667	-2
0.50033	-1
0.50400	-1
0.50767	-2
0.51133	-2
0.51500	-2
0.51867	-2
0.52233	-2
0.52600	-2
0.52967	-2
0.53333	-2
0.53700	-2
0.54067	-2
0.54433	-2
0.54800	-2
0.55167	-3
0.55533	-3
0.55900	-3
0.56267	-3
0.56633	-3
0.57000	-3
0.57367	-3
0.57733	-3
0.58100	-3
0.58467	-3
0.58833	-3
0.59200	-2
0.59567	-2
0.59933	-3
0.60300	-3
0.60667	-3
0.61033	-3
0.61400	-3
0.61767	-3
0.62133	-3
0.62500	-3
0.62867	-3
0.63233	-4
0.63600	-4
0.63967	-5
0.64333	-5
0.64700	-5
0.65067	-6
0.65433	-6
0.65800	-6
0.66167	-6
0.66533	-6
0.66900	-6
0.67267	-6
0.67633	-6
0.68000	-6
0.68367	-6
0.68733	-6
0.69100	-6
0.69467	-6
0.69833	-6
0.70200	-5
0.70567	-5
0.70933	-5
0.71300	-5
0.71667	-5
0.72033	-4
0.72400	-4
0.72767	-4
0.73133	-4
0.73500	-4
0.73867	-4
0.74233	-4
0.74600	-4
0.74967	-4
0.75333	-4
0.75700	-4
0.76067	-4
0.76433	-4
0.76800	-4
0.77167	-3
0.77533	-3
0.77900	-3
0.78267	-3
0.78633	-2
0.79000	-2
0.79367	-2
0.79733	-2
0.80100	-3
0.80467	-3
0.80833	-3
0.81200	-4
0.81567	-4
0.81933	-5
0.82300	-5
0.82667	-6
0.83033	-6
0.83400	-6
0.83767	-6
0.84133	-6
0.84500	-7
0.84867	-7
0.85233	-7
0.85600	-8
0.85967	-8
0.86333	-8
0.86700	-8
0.87067	-8
0.87433	-8
0.87800	-8
0.88167	-8
0.88533	-8
0.88900	-8
0.89267	-8
0.89633	-7
0.90000	-7
0.90367	-6
0.90733	-6
0.91100	-5
0.91467	-4
0.91833	-4
0.92200	-3
0.92567	-3
0.92933	-2
0.93300	-2
0.93667	-2
0.94033	-1
0.94400	-1
0.94767	-1
0.95133	-0
0.95500	-0
0.95867	-0
0.96233	-0
0.96600	-1
0.96967	-1
0.97333	-1
0.97700	-1
0.98067	-2
0.98433	-2
0.98800	-3
0.99167	-4
0.99533	-4
0.99900	-4
1.00267	-4
1.00633	-4
1.01000	-4
1.01367	-4
1.01733	-5
1.02100	-5
1.02467	-5
1.02833	-5
1.03200	-5
1.03567	-5
1.03933	-5
1.04300	-5
1.04667	-6
1.05033	-6
1.05400	-6
1.05767	-6
1.06133	-5
1.06500	-5
1.06867	-5
1.07233	-5
1.07600	-4
1.07967	-4
1.08333	-4
1.08700	-4
1.09067	-4
1.09433	-4
1.09800	-4
1.10167	-3
1.10533	-3
1.10900	-3
1.11267	-3
1.11633	-2
1.12000	-2
1.12367	-2
1.12733	-1
1.13100	-1
1.13467	-2
1.13833	-2
1.14200	-3
1.14567	-4
1.14933	-4
1.15300	-4
1.15667	-5
1.16033	-5
1.16400	-5
1.16767	-5
1.17133	-4
1.17500	-4
1.17867	-4
1.18233	-4
1.18600	-4
1.18967	-5
1.19333	-5
1.19700	-5
1.20067	-5
1.20433	-6
1.20800	-6
1.21167	-6
1.21533	-6
1.21900	-5
1.22267	-5
1.22633	-5
1.23000	-5
1.23367	-5
1.23733	-4
1.24100	-4
1.24467	-3
1.24833	-3
1.25200	-2
1.25567	-2
1.25933	-2
1.26300	-2
1.26667	-2
1.27033	-2
1.27400	-2
1.27767	-2
1.28133	-2
1.28500	-2
1.28867	-3
1.29233	-3
1.29600	-3
1.29967	-3
1.30333	-3
1.30700	-3
1.31067	-3
1.31433	-3
1.31800	-3
1.32167	-3
1.32533	-3
1.32900	-3
1.33267	-3
1.33633	-3
1.34000	-3
1.34367	-3
1.34733	-2
1.35100	-2
1.35467	-2
1.35833	-2
1.36200	-2
1.36567	-2
1.36933	-3
1.37300	-3
1.37667	-3
1.38033	-3
1.38400	-3
1.38767	-3
1.39133	-3
1.39500	-3
1.39867	-3
1.40233	-3
1.40600	-3
1.40967	-3
1.41333	-4
1.41700	-4
1.42067	-4
1.42433	-5
1.42800	-5
1.43167	-5
1.43533	-5
1.43900	-4
1.44267	-4
1.44633	-4
1.45000	-4
1.45367	-5
1.45733	-5
1.46100	-5
1.46467	-5
1.46833	-5
1.47200	-5
1.47567	-5
1.47933	-5
1.48300	-5
1.48667	-5
1.49033	-5
1.49400	-5
1.49767	-5
1.50133	-5
1.50500	-6
1.50867	-6
1.51233	-6
1.51600	-6
1.51967	-6
1.52333	-6
1.52700	-6
1.53067	-6
1.53433	-6
1.53800	-6
1.54167	-6
1.54533	-6
1.54900	-6
1.55267	-6
1.55633	-6
1.56000	-6
1.56367	-6
1.56733	-6
1.57100	-6
1.57467	-6
1.57833	-6
1.58200	-6
1.58567	-7
1.58933	-7
1.59300	-8
1.59667	-8
1.60033	-9
1.60400	-10
1.60767	-12
1.61133	-13
1.61500	-15
1.61867	-18
1.62233	-20
1.62600	-23
1.62967	-26
1.63333	-29
1.63700	-32
1.64067	-35
1.64433	-38
1.64800	-41
1.65167	-44
1.65533	-47
1.65900	-50
1.66267	-54
1.66633	-58
1.67000	-62
1.67367	-66
1.67733	-71
1.68100	-76
1.68467	-81
1.68833	-85
1.69200	-89
1.69567	-92
1.69933	-95
1.70300	-96
1.70667	-98
1.71033	-99
1.71400	-100
1.71767	-100
1.72133	-101
1.72500	-101
1.72867	-102
1.73233	-102
1.73600	-103
1.73967	-103
1.74333	-104
1.74700	-104
1.75067	-105
1.75433	-106
1.75800	-106
1.76167	-107
1.76533	-107
1.76900	-107
1.77267	-107
1.77633	-107
1.78000	-106
1.78367	-106
1.78733	-106
1.79100	-106
1.79467	-106
1.79833	-106
1.80200	-106
1.80567	-106
1.80933	-106
1.81300	-106
1.81667	-106
1.82033	-106
1.82400	-107
1.82767	-107
1.83133	-108
1.83500	-109
1.83867	-109
1.84233	-109
1.84600	-109
1.84967	-108
1.85333	-108
1.85700	-107
1.86067	-107
1.86433	-107
1.86800	-107
1.87167	-107
1.87533	-107
1.87900	-107
1.88267	-106
1.88633	-106
1.89000	-106
1.89367	-105
1.89733	-104
1.90100	-104
1.90467	-103
1.90833	-103
1.91200	-104
1.91567	-104
1.91933	-104
1.92300	-104
1.92667	-104
1.93033	-104
1.93400	-104
1.93767	-104
1.94133	-105
1.94500	-105
1.94867	-106
1.95233	-106
1.95600	-106
1.95967	-106
1.96333	-106
1.96700	-105
1.97067	-105
1.97433	-104
1.97800	-102
1.98167	-101
1.98533	-101
1.98900	-100
1.99267	-99
1.99633	-99
2.00000	-99
2.00367	-99
2.00733	-99
2.01100	-98
2.01467	-98
2.01833	-98
2.02200	-98
2.02567	-98
2.02933	-98
2.03300	-97
2.03667	-97
2.04033	-96
2.04400	-96
2.04767	-95
2.05133	-95
2.05500	-95
2.05867	-95
2.06233	-95
2.06600	-94
2.06967	-94
2.07333	-94
2.07700	-94
2.08067	-95
2.08433	-95
2.08800	-95
2.09167	-95
2.09533	-95
2.09900	-96
2.10267	-96
2.10633	-96
2.11000	-96
2.11367	-95
2.11733	-94
2.12100	-93
2.12467	-92
2.12833	-91
2.13200	-90
2.13567	-90
2.13933	-90
2.14300	-89
2.14667	-89
2.15033	-89
2.15400	-89
2.15767	-89
2.16133	-89
2.16500	-89
2.16867	-89
2.17233	-89
2.17600	-90
2.17967	-90
2.18333	-90
2.18700	-89
2.19067	-89
2.19433	-89
2.19800	-88
2.20167	-87
2.20533	-87
2.20900	-86
2.21267	-86
2.21633	-85
2.22000	-85
2.22367	-85
2.22733	-85
2.23100	-84
2.23467	-84
2.23833	-83
2.24200	-82
2.24567	-81
2.24933	-80
2.25300	-80
2.25667	-79
2.26033	-79
2.26400	-79
2.26767	-79
2.27133	-79
2.27500	-80
2.27867	-80
2.28233	-80
2.28600	-80
2.28967	-79
2.29333	-79
2.29700	-79
2.30067	-79
2.30433	-78
2.30800	-78
2.31167	-77
2.31533	-76
2.31900	-76
2.32267	-75
2.32633	-75
2.33000	-74
2.33367	-73
2.33733	-73
2.34100	-72
2.34467	-71
2.34833	-70
2.35200	-69
2.35567	-69
2.35933	-69
2.36300	-69
2.36667	-69
2.37033	-68
2.37400	-67
2.37767	-65
2.38133	-63
2.38500	-59
2.38867	-55
2.39233	-51
2.39600	-47
2.39967	-42
2.40333	-37
2.40700	-32
2.41067	-28
2.41433	-23
2.41800	-19
2.42167	-15
2.42533	-12
2.42900	-9
2.43267	-6
2.43633	-4
2.44000	-2
2.44367	-0
2.44733	1
2.45100	2
2.45467	4
2.45833	5
2.46200	6
2.46567	7
2.46933	7
2.47300	8
2.47667	8
2.48033	9
2.48400	9
2.48767	10
2.49133	11
2.49500	12
2.49867	12
2.50233	12
2.50600	12
2.50967	11
2.51333	11
2.51700	11
2.52067	10
2.52433	10
2.52800	10
2.53167	10
2.53533	9
2.53900	9
2.54267	9
2.54633	9
2.55000	9
2.55367	9
2.55733	10
2.56100	11
2.56467	12
2.56833	13
2.57200	14
2.57567	14
2.57933	15
2.58300	15
2.58667	15
2.59033	16
2.59400	16
2.59767	16
2.60133	17
2.60500	17
2.60867	17
2.61233	17
2.61600	17
2.61967	17
2.62333	17
2.62700	17
2.63067	18
2.63433	18
2.63800	19
2.64167	19
2.64533	19
2.64900	20
2.65267	20
2.65633	20
2.66000	21
2.66367	21
2.66733	21
2.67100	22
2.67467	22
2.67833	22
2.68200	22
2.68567	21
2.68933	21
2.69300	21
2.69667	22
2.70033	22
2.70400	23
2.70767	23
2.71133	23
2.71500	23
2.71867	24
2.72233	24
2.72600	24
2.72967	25
2.73333	25
2.73700	25
2.74067	25
2.74433	26
2.74800	26
2.75167	26
2.75533	26
2.75900	26
2.76267	27
2.76633	27
2.77000	27
2.77367	27
2.77733	27
2.78100	27
2.78467	27
2.78833	26
2.79200	26
2.79567	26
2.79933	25
2.80300	25
2.80667	25
2.81033	25
2.81400	25
2.81767	25
2.82133	26
2.82500	26
2.82867	26
2.83233	26
2.83600	27
2.83967	27
2.84333	27
2.84700	27
2.85067	28
2.85433	28
2.85800	28
2.86167	27
2.86533	24
2.86900	20
2.87267	14
2.87633	4
2.88000	-9
2.88367	-27
2.88733	-50
2.89100	-79
2.89467	-112
2.89833	-150
2.90200	-193
2.90567	-241
2.90933	-293
2.91300	-348
2.91667	-405
2.92033	-465
2.92400	-526
2.92767	-588
2.93133	-650
2.93500	-710
2.93867	-769
2.94233	-825
2.94600	-877
2.94967	-929
2.95333	-983
2.95700	-1038
2.96067	-1085
2.96433	-1114
2.96800	-1119
2.97167	-1099
2.97533	-1055
2.97900	-995
2.98267	-922
2.98633	-843
2.99000	-762
2.99367	-682
2.99733	-605
3.00100	-533
3.00467	-466
3.00833	-405
3.01200	-350
3.01567	-302
3.01933	-259
3.02300	-222
3.02667	-189
3.03033	-161
3.03400	-136
3.03767	-115
3.04133	-96
3.04500	-80
3.04867	-67
3.05233	-55
3.05600	-45
3.05967	-36
3.06333	-29
3.06700	-22
3.07067	-17
3.07433	-12
3.07800	-8
3.08167	-5
3.08533	-2
3.08900	1
3.09267	3
3.09633	4
3.10000	6
3.10367	7
3.10733	8
3.11100	9
3.11467	10
3.11833	11
3.12200	11
3.12567	12
3.12933	13
3.13300	13
3.13667	14
3.14033	14
3.14400	15
3.14767	15
3.15133	16
3.15500	16
3.15867	16
3.16233	16
3.16600	16
3.16967	16
3.17333	16
3.17700	16
3.18067	16
3.18433	16
3.18800	16
3.19167	16
3.19533	16
3.19900	17
3.20267	17
3.20633	18
3.21000	19
3.21367	19
3.21733	20
3.22100	20
3.22467	21
3.22833	21
3.23200	21
3.23567	22
3.23933	22
3.24300	22
3.24667	22
3.25033	22
3.25400	22
3.25767	22
3.26133	22
3.26500	22
3.26867	23
3.27233	23
3.27600	23
3.27967	23
3.28333	23
3.28700	23
3.29067	23
3.29433	23
3.29800	24
3.30167	24
3.30533	24
3.30900	24
3.31267	24
3.31633	24
3.32000	24
3.32367	24
3.32733	24
3.33100	25
3.33467	25
3.33833	25
3.34200	25
3.34567	25
3.34933	25
3.35300	25
3.35667	26
3.36033	26
3.36400	26
3.36767	26
3.37133	26
3.37500	27
3.37867	27
3.38233	27
3.38600	27
3.38967	27
3.39333	27
3.39700	26
3.40067	26
3.40433	26
3.40800	26
3.41167	26
3.41533	26
3.41900	26
3.42267	26
3.42633	26
3.43000	26
3.43367	26
3.43733	26
3.44100	26
3.44467	26
3.44833	27
3.45200	27
3.45567	27
3.45933	27
3.46300	27
3.46667	27
3.47033	27
3.47400	27
3.47767	27
3.48133	27
3.48500	27
3.48867	27
3.49233	27
3.49600	27
3.49967	26
3.50333	26
3.50700	26
3.51067	26
3.51433	26
3.51800	26
3.52167	26
3.52533	26
3.52900	26
3.53267	26
3.53633	26
3.54000	26
3.54367	26
3.54733	26
3.55100	26
3.55467	26
3.55833	26
3.56200	26
3.56567	26
3.56933	25
3.57300	25
3.57667	25
3.58033	25
3.58400	25
3.58767	25
3.59133	25
3.59500	25
3.59867	25
3.60233	25
3.60600	25
3.60967	25
3.61333	25
3.61700	25
3.62067	25
3.62433	25
3.62800	25
3.63167	26
3.63533	26
3.63900	26
3.64267	26
3.64633	26
3.65000	26
3.65367	26
3.65733	26
3.66100	26
3.66467	26
3.66833	26
3.67200	26
3.67567	26
3.67933	26
3.68300	26
3.68667	26
3.69033	26
3.69400	26
3.69767	26
3.70133	26
3.70500	26
3.70867	26
3.71233	27
3.71600	26
3.71967	26
3.72333	26
3.72700	26
3.73067	26
3.73433	25
3.73800	25
3.74167	25
3.74533	25
3.74900	26
3.75267	26
3.75633	26
3.76000	26
3.76367	26
3.76733	26
3.77100	27
3.77467	27
3.77833	27
3.78200	27
3.78567	27
3.78933	27
3.79300	28
3.79667	28
3.80033	28
3.80400	28
3.80767	28
3.81133	28
3.81500	28
3.81867	28
3.82233	28
3.82600	28
3.82967	28
3.83333	28
3.83700	28
3.84067	27
3.84433	27
3.84800	27
3.85167	27
3.85533	28
3.85900	28
3.86267	28
3.86633	28
3.87000	28
3.87367	28
3.87733	28
3.88100	28
3.88467	28
3.88833	28
3.89200	28
3.89567	28
3.89933	28
3.90300	28
3.90667	28
3.91033	28
3.91400	28
3.91767	28
3.92133	28
3.92500	28
3.92867	28
3.93233	28
3.93600	28
3.93967	28
3.94333	28
3.94700	28
3.95067	27
3.95433	27
3.95800	27
3.96167	27
3.96533	26
3.96900	26
3.97267	26
3.97633	26
3.98000	26
3.98367	25
3.98733	25
3.99100	25
3.99467	25
3.99833	25

[Chromatogram (Ch3)]
Interval(msec)	220
# of Points	1091
Start Time(min)	0.002
End Time(min)	3.998
R.Time (min)	Intensity
0.00167	1
0.00533	1
0.00900	-0
0.01267	-1
0.01633	-3
0.02000	-2
0.02367	-0
0.02733	2
0.03100	5
0.03467	7
0.03833	5
0.04200	1
0.04567	-1
0.04933	-2
0.05300	1
0.05667	4
0.06033	5
0.06400	4
0.06767	3
0.07133	2
0.07500	3
0.07867	3
0.08233	4
0.08600	4
0.08967	4
0.09333	4
0.09700	3
0.10067	1
0.10433	1
0.10800	1
0.11167	4
0.11533	6
0.11900	7
0.12267	7
0.12633	7
0.13000	10
0.13367	13
0.13733	14
0.14100	14
0.14467	13
0.14833	13
0.15200	13
0.15567	12
0.15933	10
0.16300	10
0.16667	11
0.17033	11
0.17400	11
0.17767	12
0.18133	13
0.18500	14
0.18867	14
0.19233	14
0.19600	15
0.19967	13
0.20333	11
0.20700	9
0.21067	10
0.21433	12
0.21800	11
0.22167	10
0.22533	8
0.22900	8
0.23267	8
0.23633	8
0.24000	9
0.24367	9
0.24733	11
0.25100	11
0.25467	10
0.25833	9
0.26200	8
0.26567	11
0.26933	13
0.27300	14
0.27667	16
0.28033	15
0.28400	14
0.28767	12
0.29133	9
0.29500	9
0.29867	8
0.30233	8
0.30600	8
0.30967	11
0.31333	15
0.31700	15
0.32067	14
0.32433	12
0.32800	8
0.33167	8
0.33533	9
0.33900	8
0.34267	9
0.34633	12
0.35000	13
0.35367	14
0.35733	14
0.36100	15
0.36467	15
0.36833	16
0.37200	16
0.37567	15
0.37933	12
0.38300	12
0.38667	15
0.39033	15
0.39400	14
0.39767	14
0.40133	14
0.40500	11
0.40867	10
0.41233	9
0.41600	10
0.41967	9
0.42333	9
0.42700	10
0.43067	10
0.43433	7
0.43800	6
0.44167	8
0.44533	9
0.44900	10
0.45267	9
0.45633	9
0.46000	10
0.46367	9
0.46733	8
0.47100	11
0.47467	11
0.47833	10
0.48200	10
0.48567	11
0.48933	11
0.49300	9
0.49667	11
0.50033	12
0.50400	13
0.50767	13
0.51133	14
0.51500	16
0.51867	16
0.52233	17
0.52600	15
0.52967	13
0.53333	11
0.53700	10
0.54067	11
0.54433	11
0.54800	13
0.55167	13
0.55533	14
0.55900	16
0.56267	17
0.56633	16
0.57000	14
0.57367	14
0.57733	15
0.58100	16
0.58467	15
0.58833	14
0.59200	15
0.59567	18
0.59933	20
0.60300	20
0.60667	20
0.61033	18
0.61400	18
0.61767	17
0.62133	14
0.62500	14
0.62867	14
0.63233	15
0.63600	16
0.63967	16
0.64333	16
0.64700	16
0.65067	16
0.65433	16
0.65800	16
0.66167	15
0.66533	16
0.66900	16
0.67267	17
0.67633	20
0.68000	21
0.68367	24
0.68733	25
0.69100	23
0.69467	22
0.69833	23
0.70200	22
0.70567	21
0.70933	20
0.71300	20
0.71667	22
0.72033	23
0.72400	22
0.72767	20
0.73133	19
0.73500	20
0.73867	21
0.74233	22
0.74600	20
0.74967	18
0.75333	17
0.75700	16
0.76067	16
0.76433	18
0.76800	21
0.77167	23
0.77533	24
0.77900	23
0.78267	23
0.78633	23
0.79000	23
0.79367	24
0.79733	24
0.80100	23
0.80467	20
0.80833	17
0.81200	18
0.81567	16
0.81933	16
0.82300	17
0.82667	18
0.83033	18
0.83400	19
0.83767	18
0.84133	20
0.84500	21
0.84867	22
0.85233	23
0.85600	24
0.85967	25
0.86333	25
0.86700	26
0.87067	24
0.87433	22
0.87800	21
0.88167	23
0.88533	24
0.88900	24
0.89267	24
0.89633	23
0.90000	22
0.90367	22
0.90733	23
0.91100	23
0.91467	24
0.91833	24
0.92200	24
0.92567	25
0.92933	28
0.93300	28
0.93667	28
0.94033	26
0.94400	26
0.94767	27
0.95133	25
0.95500	23
0.95867	23
0.96233	26
0.96600	27
0.96967	24
0.97333	23
0.97700	24
0.98067	25
0.98433	24
0.98800	25
0.99167	26
0.99533	27
0.99900	27
1.00267	25
1.00633	23
1.01000	22
1.01367	23
1.01733	23
1.02100	24
1.02467	25
1.02833	24
1.03200	24
1.03567	23
1.03933	23
1.04300	24
1.04667	25
1.05033	25
1.05400	25
1.05767	26
1.06133	28
1.06500	29
1.06867	29
1.07233	28
1.07600	25
1.07967	22
1.08333	22
1.08700	23
1.09067	23
1.09433	24
1.09800	25
1.10167	27
1.10533	29
1.10900	30
1.11267	30
1.11633	30
1.12000	30
1.12367	31
1.12733	33
1.13100	32
1.13467	28
1.13833	25
1.14200	25
1.14567	25
1.14933	25
1.15300	23
1.15667	22
1.16033	22
1.16400	22
1.16767	24
1.17133	30
1.17500	34
1.17867	35
1.18233	33
1.18600	31
1.18967	29
1.19333	29
1.19700	32
1.20067	33
1.20433	33
1.20800	32
1.21167	30
1.21533	28
1.21900	27
1.22267	25
1.22633	24
1.23000	26
1.23367	27
1.23733	27
1.24100	28
1.24467	30
1.24833	32
1.25200	32
1.25567	32
1.25933	30
1.26300	29
1.26667	29
1.27033	28
1.27400	27
1.27767	27
1.28133	28
1.28500	27
1.28867	27
1.29233	29
1.29600	31
1.29967	31
1.30333	31
1.30700	32
1.31067	30
1.31433	29
1.31800	27
1.32167	28
1.32533	28
1.32900	29
1.33267	31
1.33633	32
1.34000	35
1.34367	32
1.34733	30
1.35100	29
1.35467	30
1.35833	32
1.36200	33
1.36567	33
1.36933	33
1.37300	32
1.37667	30
1.38033	29
1.38400	30
1.38767	31
1.39133	30
1.39500	31
1.39867	31
1.40233	29
1.40600	28
1.40967	30
1.41333	31
1.41700	30
1.42067	29
1.42433	30
1.42800	30
1.43167	29
1.43533	30
1.43900	32
1.44267	32
1.44633	33
1.45000	31
1.45367	30
1.45733	28
1.46100	28
1.46467	27
1.46833	26
1.47200	26
1.47567	26
1.47933	27
1.48300	28
1.48667	30
1.49033	31
1.49400	33
1.49767	34
1.50133	34
1.50500	35
1.50867	36
1.51233	36
1.51600	36
1.51967	35
1.52333	35
1.52700	32
1.53067	31
1.53433	31
1.53800	30
1.54167	32
1.54533	32
1.54900	31
1.55267	30
1.55633	28
1.56000	26
1.56367	27
1.56733	29
1.57100	31
1.57467	31
1.57833	32
1.58200	31
1.58567	29
1.58933	28
1.59300	28
1.59667	30
1.60033	29
1.60400	29
1.60767	29
1.61133	29
1.61500	29
1.61867	28
1.62233	29
1.62600	28
1.62967	31
1.63333	33
1.63700	33
1.64067	31
1.64433	32
1.64800	33
1.65167	34
1.65533	36
1.65900	35
1.66267	33
1.66633	32
1.67000	31
1.67367	31
1.67733	32
1.68100	34
1.68467	36
1.68833	39
1.69200	40
1.69567	41
1.69933	42
1.70300	43
1.70667	44
1.71033	45
1.71400	46
1.71767	46
1.72133	43
1.72500	41
1.72867	40
1.73233	41
1.73600	43
1.73967	46
1.74333	47
1.74700	45
1.75067	46
1.75433	45
1.75800	43
1.76167	44
1.76533	45
1.76900	46
1.77267	46
1.77633	46
1.78000	47
1.78367	49
1.78733	49
1.79100	50
1.79467	51
1.79833	52
1.80200	53
1.80567	53
1.80933	53
1.81300	53
1.81667	50
1.82033	51
1.82400	52
1.82767	52
1.83133	51
1.83500	50
1.83867	49
1.84233	50
1.84600	51
1.84967	52
1.85333	53
1.85700	54
1.86067	53
1.86433	54
1.86800	56
1.87167	58
1.87533	58
1.87900	59
1.88267	60
1.88633	63
1.89000	64
1.89367	62
1.89733	61
1.90100	61
1.90467	61
1.90833	63
1.91200	66
1.91567	69
1.91933	71
1.92300	72
1.92667	71
1.93033	71
1.93400	72
1.93767	73
1.94133	75
1.94500	77
1.94867	80
1.95233	79
1.95600	78
1.95967	77
1.96333	75
1.96700	75
1.97067	77
1.97433	77
1.97800	75
1.98167	74
1.98533	74
1.98900	76
1.99267	78
1.99633	81
2.00000	83
2.00367	86
2.00733	87
2.01100	87
2.01467	87
2.01833	89
2.02200	91
2.02567	93
2.02933	93
2.03300	95
2.03667	96
2.04033	96
2.04400	96
2.04767	94
2.05133	95
2.05500	98
2.05867	98
2.06233	99
2.06600	100
2.06967	100
2.07333	99
2.07700	99
2.08067	99
2.08433	99
2.08800	100
2.09167	103
2.09533	106
2.09900	107
2.10267	109
2.10633	109
2.11000	107
2.11367	106
2.11733	106
2.12100	108
2.12467	112
2.12833	115
2.13200	119
2.13567	121
2.13933	121
2.14300	121
2.14667	123
2.15033	123
2.15400	122
2.15767	121
2.16133	120
2.16500	121
2.16867	123
2.17233	125
2.17600	125
2.17967	124
2.18333	123
2.18700	122
2.19067	121
2.19433	119
2.19800	119
2.20167	120
2.20533	122
2.20900	123
2.21267	124
2.21633	125
2.22000	127
2.22367	127
2.22733	127
2.23100	127
2.23467	127
2.23833	129
2.24200	129
2.24567	129
2.24933	130
2.25300	132
2.25667	135
2.26033	135
2.26400	135
2.26767	134
2.27133	133
2.27500	133
2.27867	134
2.28233	133
2.28600	132
2.28967	131
2.29333	130
2.29700	132
2.30067	134
2.30433	137
2.30800	141
2.31167	142
2.31533	141
2.31900	141
2.32267	143
2.32633	143
2.33000	141
2.33367	139
2.33733	138
2.34100	139
2.34467	140
2.34833	141
2.35200	142
2.35567	144
2.35933	147
2.36300	150
2.36667	154
2.37033	157
2.37400	156
2.37767	154
2.38133	152
2.38500	149
2.38867	146
2.39233	143
2.39600	142
2.39967	143
2.40333	144
2.40700	147
2.41067	151
2.41433	153
2.41800	154
2.42167	154
2.42533	155
2.42900	155
2.43267	155
2.43633	155
2.44000	157
2.44367	198
2.44733	281
2.45100	361
2.45467	421
2.45833	450
2.46200	447
2.46567	431
2.46933	416
2.47300	403
2.47667	389
2.48033	371
2.48400	346
2.48767	317
2.49133	290
2.49500	266
2.49867	250
2.50233	240
2.50600	234
2.50967	235
2.51333	239
2.51700	244
2.52067	250
2.52433	251
2.52800	247
2.53167	242
2.53533	233
2.53900	222
2.54267	211
2.54633	199
2.55000	187
2.55367	178
2.55733	174
2.56100	170
2.56467	166
2.56833	163
2.57200	161
2.57567	160
2.57933	161
2.58300	162
2.58667	162
2.59033	163
2.59400	168
2.59767	173
2.60133	176
2.60500	182
2.60867	191
2.61233	199
2.61600	206
2.61967	208
2.62333	207
2.62700	207
2.63067	205
2.63433	199
2.63800	191
2.64167	184
2.64533	176
2.64900	169
2.65267	163
2.65633	155
2.66000	147
2.66367	140
2.66733	134
2.67100	130
2.67467	125
2.67833	121
2.68200	118
2.68567	116
2.68933	114
2.69300	111
2.69667	109
2.70033	111
2.70400	112
2.70767	110
2.71133	110
2.71500	111
2.71867	113
2.72233	114
2.72600	114
2.72967	116
2.73333	117
2.73700	117
2.74067	117
2.74433	116
2.74800	117
2.75167	121
2.75533	121
2.75900	121
2.76267	122
2.76633	125
2.77000	128
2.77367	132
2.77733	132
2.78100	132
2.78467	133
2.78833	136
2.79200	140
2.79567	142
2.79933	145
2.80300	148
2.80667	151
2.81033	155
2.81400	159
2.81767	160
2.82133	160
2.82500	162
2.82867	167
2.83233	175
2.83600	188
2.83967	219
2.84333	281
2.84700	393
2.85067	579
2.85433	861
2.85800	1251
2.86167	1740
2.86533	2309
2.86900	2914
2.87267	3508
2.87633	4043
2.88000	4479
2.88367	4778
2.88733	4926
2.89100	4922
2.89467	4797
2.89833	4589
2.90200	4322
2.90567	4018
2.90933	3692
2.91300	3362
2.91667	3041
2.92033	2737
2.92400	2460
2.92767	2210
2.93133	1991
2.93500	1798
2.93867	1631
2.94233	1486
2.94600	1360
2.94967	1249
2.95333	1154
2.95700	1072
2.96067	998
2.96433	932
2.96800	876
2.97167	828
2.97533	786
2.97900	749
2.98267	717
2.98633	690
2.99000	666
2.99367	645
2.99733	628
3.00100	615
3.00467	602
3.00833	590
3.01200	580
3.01567	571
3.01933	563
3.02300	556
3.02667	547
3.03033	540
3.03400	536
3.03767	532
3.04133	526
3.04500	522
3.04867	521
3.05233	520
3.05600	519
3.05967	516
3.06333	514
3.06700	513
3.07067	512
3.07433	510
3.07800	508
3.08167	505
3.08533	503
3.08900	501
3.09267	503
3.09633	505
3.10000	509
3.10367	511
3.10733	510
3.11100	509
3.11467	510
3.11833	509
3.12200	511
3.12567	513
3.12933	516
3.13300	519
3.13667	523
3.14033	528
3.14400	530
3.14767	531
3.15133	533
3.15500	536
3.15867	539
3.16233	539
3.16600	540
3.16967	543
3.17333	545
3.17700	547
3.18067	551
3.18433	555
3.18800	558
3.19167	562
3.19533	565
3.19900	566
3.20267	568
3.20633	569
3.21000	569
3.21367	571
3.21733	572
3.22100	574
3.22467	577
3.22833	581
3.23200	583
3.23567	584
3.23933	584
3.24300	584
3.24667	585
3.25033	586
3.25400	586
3.25767	587
3.26133	589
3.26500	590
3.26867	590
3.27233	588
3.27600	586
3.27967	584
3.28333	584
3.28700	583
3.29067	581
3.29433	580
3.29800	579
3.30167	577
3.30533	574
3.30900	570
3.31267	571
3.31633	572
3.32000	570
3.32367	566
3.32733	564
3.33100	562
3.33467	562
3.33833	560
3.34200	558
3.34567	556
3.34933	554
3.35300	551
3.35667	547
3.36033	545
3.36400	544
3.36767	543
3.37133	541
3.37500	541
3.37867	538
3.38233	536
3.38600	533
3.38967	530
3.39333	529
3.39700	529
3.40067	528
3.40433	526
3.40800	524
3.41167	523
3.41533	522
3.41900	520
3.42267	517
3.42633	513
3.43000	512
3.43367	511
3.43733	509
3.44100	506
3.44467	505
3.44833	505
3.45200	505
3.45567	506
3.45933	504
3.46300	501
3.46667	497
3.47033	494
3.47400	494
3.47767	494
3.48133	495
3.48500	494
3.48867	493
3.49233	492
3.49600	489
3.49967	487
3.50333	484
3.50700	483
3.51067	483
3.51433	482
3.51800	482
3.52167	482
3.52533	480
3.52900	478
3.53267	476
3.53633	475
3.54000	472
3.54367	467
3.54733	465
3.55100	463
3.55467	462
3.55833	461
3.56200	460
3.56567	461
3.56933	458
3.57300	454
3.57667	455
3.58033	458
3.58400	459
3.58767	457
3.59133	452
3.59500	450
3.59867	448
3.60233	445
3.60600	442
3.60967	440
3.61333	439
3.61700	439
3.62067	438
3.62433	438
3.62800	437
3.63167	435
3.63533	435
3.63900	434
3.64267	433
3.64633	432
3.65000	428
3.65367	425
3.65733	422
3.66100	421
3.66467	421
3.66833	420
3.67200	419
3.67567	417
3.67933	415
3.68300	415
3.68667	415
3.69033	413
3.69400	409
3.69767	404
3.70133	402
3.70500	403
3.70867	403
3.71233	402
3.71600	399
3.71967	396
3.72333	395
3.72700	398
3.73067	398
3.73433	398
3.73800	394
3.74167	390
3.74533	387
3.74900	386
3.75267	386
3.75633	385
3.76000	386
3.76367	386
3.76733	383
3.77100	382
3.77467	382
3.77833	380
3.78200	379
3.78567	380
3.78933	379
3.79300	376
3.79667	373
3.80033	371
3.80400	369
3.80767	368
3.81133	368
3.81500	370
3.81867	367
3.82233	363
3.82600	359
3.82967	357
3.83333	357
3.83700	357
3.84067	356
3.84433	353
3.84800	350
3.85167	348
3.85533	348
3.85900	349
3.86267	349
3.86633	349
3.87000	349
3.87367	347
3.87733	344
3.88100	341
3.88467	338
3.88833	338
3.89200	338
3.89567	337
3.89933	335
3.90300	333
3.90667	332
3.91033	330
3.91400	329
3.91767	327
3.92133	323
3.92500	321
3.92867	321
3.93233	320
3.93600	321
3.93967	321
3.94333	320
3.94700	319
3.95067	318
3.95433	317
3.95800	315
3.96167	311
3.96533	307
3.96900	305
3.97267	305
3.97633	305
3.98000	307
3.98367	307
3.98733	304
3.99100	298
3.99467	295
3.99833	292

[Status Trace (Column Oven Temperature)]
Interval(msec)	1000
# of Points	240
Start Time(min)	0.010
End Time(min)	3.993
Intensity Units	
Intensity Multiplier	1
R.Time (min)	Intensity
0.00965	35.05
0.02632	35.05
0.04298	35.04
0.05965	35.04
0.07632	35.04
0.09298	35.03
0.10965	35.04
0.12632	35.04
0.14298	35.05
0.15965	35.06
0.17632	35.06
0.19298	35.07
0.20965	35.08
0.22632	35.09
0.24298	35.08
0.25965	35.07
0.27632	35.05
0.29298	35.04
0.30965	35.02
0.32632	35.01
0.34298	35.01
0.35965	35.00
0.37632	34.99
0.39298	34.99
0.40965	34.99
0.42632	34.99
0.44298	34.99
0.45965	35.00
0.47632	34.99
0.49298	34.99
0.50965	34.99
0.52632	34.99
0.54298	34.99
0.55965	34.98
0.57632	34.99
0.59298	34.99
0.60965	34.99
0.62632	35.00
0.64298	35.00
0.65965	35.02
0.67632	35.03
0.69298	35.02
0.70965	35.02
0.72632	35.02
0.74298	35.02
0.75965	35.02
0.77632	35.01
0.79298	35.00
0.80965	35.01
0.82632	35.02
0.84298	35.03
0.85965	35.05
0.87632	35.07
0.89298	35.07
0.90965	35.06
0.92632	35.04
0.94298	35.03
0.95965	35.02
0.97632	35.02
0.99298	35.03
1.00965	35.03
1.02632	35.03
1.04298	35.05
1.05965	35.05
1.07632	35.04
1.09298	35.04
1.10965	35.02
1.12632	35.02
1.14298	35.03
1.15965	35.02
1.17632	35.02
1.19298	35.03
1.20965	35.04
1.22632	35.03
1.24298	35.02
1.25965	35.01
1.27632	35.00
1.29298	34.99
1.30965	34.99
1.32632	34.98
1.34298	34.97
1.35965	34.96
1.37632	34.96
1.39298	34.96
1.40965	34.96
1.42632	34.96
1.44298	34.95
1.45965	34.95
1.47632	34.95
1.49298	34.94
1.50965	34.96
1.52632	34.96
1.54298	34.97
1.55965	34.98
1.57632	34.98
1.59298	35.00
1.60965	35.06
1.62632	35.20
1.64298	35.38
1.65965	35.63
1.67632	35.98
1.69298	36.35
1.70965	36.69
1.72632	37.03
1.74298	37.37
1.75965	37.70
1.77632	38.03
1.79298	38.36
1.80965	38.68
1.82632	39.02
1.84298	39.35
1.85965	39.68
1.87632	40.00
1.89298	40.31
1.90965	40.65
1.92632	40.97
1.94298	41.32
1.95965	41.65
1.97632	41.96
1.99298	42.28
2.00965	42.61
2.02632	42.94
2.04298	43.25
2.05965	43.57
2.07632	43.91
2.09298	44.24
2.10965	44.57
2.12632	44.89
2.14298	45.22
2.15965	45.53
2.17632	45.88
2.19298	46.20
2.20965	46.52
2.22632	46.86
2.24298	47.17
2.25965	47.50
2.27632	47.87
2.29298	48.21
2.30965	48.53
2.32632	48.84
2.34298	49.15
2.35965	49.45
2.37632	49.68
2.39298	49.77
2.40965	49.77
2.42632	49.74
2.44298	49.74
2.45965	49.74
2.47632	49.77
2.49298	49.76
2.50965	49.78
2.52632	49.79
2.54298	49.80
2.55965	49.80
2.57632	49.81
2.59298	49.81
2.60965	49.82
2.62632	49.82
2.64298	49.83
2.65965	49.83
2.67632	49.84
2.69298	49.85
2.70965	49.85
2.72632	49.86
2.74298	49.86
2.75965	49.84
2.77632	49.86
2.79298	49.89
2.80965	49.89
2.82632	49.87
2.84298	49.87
2.85965	49.86
2.87632	49.86
2.89298	49.87
2.90965	49.88
2.92632	49.88
2.94298	49.90
2.95965	49.91
2.97632	49.93
2.99298	49.94
3.00965	49.96
3.02632	49.98
3.04298	49.99
3.05965	49.99
3.07632	49.99
3.09298	49.99
3.10965	50.00
3.12632	50.02
3.14298	50.02
3.15965	50.04
3.17632	50.07
3.19298	50.08
3.20965	50.08
3.22632	50.09
3.24298	50.09
3.25965	50.09
3.27632	50.10
3.29298	50.10
3.30965	50.10
3.32632	50.10
3.34298	50.09
3.35965	50.07
3.37632	50.07
3.39298	50.06
3.40965	50.06
3.42632	50.06
3.44298	50.05
3.45965	50.05
3.47632	50.04
3.49298	50.05
3.50965	50.05
3.52632	50.06
3.54298	50.06
3.55965	50.07
3.57632	50.07
3.59298	50.07
3.60965	50.07
3.62632	50.07
3.64298	50.08
3.65965	50.08
3.67632	50.09
3.69298	50.09
3.70965	50.09
3.72632	50.10
3.74298	50.10
3.75965	50.09
3.77632	50.08
3.79298	50.07
3.80965	50.07
3.82632	50.06
3.84298	50.05
3.85965	50.04
3.87632	50.03
3.89298	50.02
3.90965	50.01
3.92632	50.01
3.94298	50.00
3.95965	50.01
3.97632	50.01
3.99298	50.02

[Status Trace (Injection Unit Temperature)]
Interval(msec)	1000
# of Points	240
Start Time(min)	0.010
End Time(min)	3.993
Intensity Units	
Intensity Multiplier	1
R.Time (min)	Intensity
0.00965	99.98
0.02632	99.98
0.04298	99.98
0.05965	99.98
0.07632	99.98
0.09298	99.98
0.10965	99.98
0.12632	99.98
0.14298	99.98
0.15965	99.98
0.17632	99.98
0.19298	99.98
0.20965	99.98
0.22632	99.98
0.24298	99.98
0.25965	99.98
0.27632	99.98
0.29298	99.98
0.30965	99.98
0.32632	99.98
0.34298	99.98
0.35965	99.98
0.37632	99.98
0.39298	99.98
0.40965	99.98
0.42632	99.98
0.44298	99.98
0.45965	99.98
0.47632	99.98
0.49298	99.98
0.50965	99.98
0.52632	99.98
0.54298	99.98
0.55965	99.98
0.57632	99.98
0.59298	99.98
0.60965	99.98
0.62632	99.98
0.64298	99.98
0.65965	99.98
0.67632	99.98
0.69298	99.98
0.70965	99.99
0.72632	99.98
0.74298	99.98
0.75965	99.99
0.77632	99.99
0.79298	99.98
0.80965	99.98
0.82632	99.99
0.84298	99.99
0.85965	99.98
0.87632	99.98
0.89298	99.99
0.90965	99.99
0.92632	99.99
0.94298	99.99
0.95965	99.99
0.97632	99.99
0.99298	99.99
1.00965	99.99
1.02632	99.99
1.04298	99.99
1.05965	99.99
1.07632	99.99
1.09298	99.99
1.10965	99.99
1.12632	99.98
1.14298	99.99
1.15965	99.99
1.17632	99.98
1.19298	99.99
1.20965	99.99
1.22632	99.98
1.24298	99.99
1.25965	99.99
1.27632	99.99
1.29298	99.99
1.30965	99.99
1.32632	99.99
1.34298	99.99
1.35965	99.99
1.37632	99.99
1.39298	99.98
1.40965	99.99
1.42632	99.99
1.44298	99.98
1.45965	99.99
1.47632	99.99
1.49298	99.98
1.50965	99.99
1.52632	99.98
1.54298	99.98
1.55965	99.98
1.57632	99.98
1.59298	99.99
1.60965	99.98
1.62632	99.98
1.64298	99.99
1.65965	99.99
1.67632	99.98
1.69298	99.99
1.70965	99.98
1.72632	99.98
1.74298	99.99
1.75965	99.98
1.77632	99.98
1.79298	99.98
1.80965	99.98
1.82632	99.98
1.84298	99.98
1.85965	99.98
1.87632	99.98
1.89298	99.98
1.90965	99.98
1.92632	99.99
1.94298	99.98
1.95965	99.98
1.97632	99.98
1.99298	99.98
2.00965	99.98
2.02632	99.98
2.04298	99.98
2.05965	99.98
2.07632	99.98
2.09298	99.98
2.10965	99.97
2.12632	99.97
2.14298	99.97
2.15965	99.98
2.17632	99.97
2.19298	99.97
2.20965	99.97
2.22632	99.97
2.24298	99.97
2.25965	99.97
2.27632	99.97
2.29298	99.97
2.30965	99.96
2.32632	99.97
2.34298	99.97
2.35965	99.97
2.37632	99.97
2.39298	99.97
2.40965	99.97
2.42632	99.97
2.44298	99.97
2.45965	99.97
2.47632	99.97
2.49298	99.97
2.50965	99.96
2.52632	99.97
2.54298	99.97
2.55965	99.97
2.57632	99.97
2.59298	99.97
2.60965	99.97
2.62632	99.97
2.64298	99.97
2.65965	99.98
2.67632	99.98
2.69298	99.98
2.70965	99.98
2.72632	99.98
2.74298	99.98
2.75965	99.98
2.77632	99.99
2.79298	99.99
2.80965	99.98
2.82632	99.99
2.84298	99.99
2.85965	99.99
2.87632	99.99
2.89298	99.99
2.90965	100.00
2.92632	100.00
2.94298	100.00
2.95965	100.00
2.97632	100.00
2.99298	100.00
3.00965	100.00
3.02632	100.01
3.04298	100.01
3.05965	100.01
3.07632	100.01
3.09298	100.01
3.10965	100.01
3.12632	100.01
3.14298	100.01
3.15965	100.02
3.17632	100.01
3.19298	100.02
3.20965	100.02
3.22632	100.02
3.24298	100.02
3.25965	100.02
3.27632	100.02
3.29298	100.02
3.30965	100.03
3.32632	100.02
3.34298	100.03
3.35965	100.03
3.37632	100.03
3.39298	100.03
3.40965	100.03
3.42632	100.03
3.44298	100.03
3.45965	100.03
3.47632	100.04
3.49298	100.04
3.50965	100.04
3.52632	100.04
3.54298	100.04
3.55965	100.04
3.57632	100.04
3.59298	100.04
3.60965	100.04
3.62632	100.04
3.64298	100.03
3.65965	100.04
3.67632	100.04
3.69298	100.04
3.70965	100.05
3.72632	100.05
3.74298	100.05
3.75965	100.05
3.77632	100.05
3.79298	100.05
3.80965	100.05
3.82632	100.05
3.84298	100.05
3.85965	100.05
3.87632	100.05
3.89298	100.05
3.90965	100.05
3.92632	100.05
3.94298	100.05
3.95965	100.05
3.97632	100.05
3.99298	100.06

[Status Trace (Carrier Gas Pressure)]
Interval(msec)	1000
# of Points	240
Start Time(min)	0.010
End Time(min)	3.993
Intensity Units	
Intensity Multiplier	1
R.Time (min)	Intensity
0.00965	58.00
0.02632	55.14
0.04298	57.35
0.05965	59.54
0.07632	59.05
0.09298	58.02
0.10965	57.99
0.12632	58.01
0.14298	58.01
0.15965	58.00
0.17632	58.00
0.19298	58.00
0.20965	58.00
0.22632	58.00
0.24298	58.00
0.25965	58.00
0.27632	58.00
0.29298	58.00
0.30965	58.00
0.32632	58.00
0.34298	58.00
0.35965	58.00
0.37632	58.00
0.39298	58.00
0.40965	58.00
0.42632	58.00
0.44298	58.00
0.45965	58.00
0.47632	58.00
0.49298	58.00
0.50965	58.00
0.52632	58.00
0.54298	58.00
0.55965	58.00
0.57632	58.00
0.59298	58.00
0.60965	58.00
0.62632	58.00
0.64298	58.00
0.65965	58.00
0.67632	58.00
0.69298	58.00
0.70965	58.00
0.72632	58.00
0.74298	58.00
0.75965	58.00
0.77632	58.00
0.79298	58.00
0.80965	58.00
0.82632	58.00
0.84298	58.00
0.85965	58.00
0.87632	58.00
0.89298	58.00
0.90965	58.00
0.92632	58.00
0.94298	58.00
0.95965	58.00
0.97632	58.00
0.99298	58.00
1.00965	58.00
1.02632	58.00
1.04298	58.00
1.05965	58.00
1.07632	58.00
1.09298	58.00
1.10965	58.00
1.12632	58.00
1.14298	58.00
1.15965	58.00
1.17632	58.00
1.19298	58.00
1.20965	58.00
1.22632	58.00
1.24298	58.00
1.25965	58.00
1.27632	58.00
1.29298	58.00
1.30965	58.00
1.32632	58.00
1.34298	58.00
1.35965	58.00
1.37632	58.00
1.39298	58.00
1.40965	58.00
1.42632	58.00
1.44298	58.00
1.45965	58.00
1.47632	58.00
1.49298	58.00
1.50965	58.00
1.52632	58.00
1.54298	58.00
1.55965	58.00
1.57632	58.00
1.59298	58.00
1.60965	58.00
1.62632	58.00
1.64298	58.00
1.65965	58.00
1.67632	58.01
1.69298	58.00
1.70965	58.00
1.72632	58.00
1.74298	58.00
1.75965	58.00
1.77632	58.00
1.79298	58.00
1.80965	58.00
1.82632	58.00
1.84298	58.00
1.85965	58.00
1.87632	58.00
1.89298	58.00
1.90965	58.00
1.92632	58.00
1.94298	58.00
1.95965	58.00
1.97632	58.00
1.99298	58.00
2.00965	58.00
2.02632	58.00
2.04298	58.00
2.05965	58.00
2.07632	58.00
2.09298	58.00
2.10965	58.00
2.12632	58.00
2.14298	58.00
2.15965	58.00
2.17632	58.00
2.19298	58.00
2.20965	58.00
2.22632	58.00
2.24298	58.00
2.25965	58.00
2.27632	58.00
2.29298	58.00
2.30965	58.00
2.32632	58.00
2.34298	58.00
2.35965	58.00
2.37632	58.00
2.39298	57.99
2.40965	57.99
2.42632	58.00
2.44298	58.00
2.45965	58.00
2.47632	58.00
2.49298	58.00
2.50965	58.00
2.52632	57.99
2.54298	58.00
2.55965	58.00
2.57632	58.00
2.59298	58.00
2.60965	58.00
2.62632	58.00
2.64298	58.00
2.65965	58.00
2.67632	58.00
2.69298	58.00
2.70965	58.00
2.72632	58.00
2.74298	58.00
2.75965	58.00
2.77632	58.00
2.79298	58.00
2.80965	58.00
2.82632	58.00
2.84298	58.00
2.85965	58.00
2.87632	58.00
2.89298	58.00
2.90965	58.00
2.92632	58.00
2.94298	58.00
2.95965	58.00
2.97632	58.00
2.99298	58.00
3.00965	58.00
3.02632	58.00
3.04298	58.00
3.05965	58.00
3.07632	58.00
3.09298	58.00
3.10965	58.00
3.12632	58.00
3.14298	58.00
3.15965	58.00
3.17632	58.00
3.19298	58.00
3.20965	58.00
3.22632	58.00
3.24298	58.00
3.25965	58.00
3.27632	58.00
3.29298	58.00
3.30965	58.00
3.32632	58.00
3.34298	58.00
3.35965	58.00
3.37632	58.00
3.39298	58.00
3.40965	58.00
3.42632	58.00
3.44298	58.00
3.45965	58.00
3.47632	58.00
3.49298	58.00
3.50965	58.00
3.52632	58.00
3.54298	58.00
3.55965	58.00
3.57632	58.00
3.59298	58.00
3.60965	58.00
3.62632	58.00
3.64298	58.00
3.65965	58.00
3.67632	58.00
3.69298	58.00
3.70965	58.00
3.72632	58.00
3.74298	58.00
3.75965	58.00
3.77632	58.00
3.79298	58.00
3.80965	58.00
3.82632	58.00
3.84298	58.00
3.85965	58.00
3.87632	58.00
3.89298	58.00
3.90965	58.00
3.92632	58.00
3.94298	58.00
3.95965	58.00
3.97632	58.00
3.99298	58.00

[Status Trace (Carrier Gas Flow)]
Interval(msec)	1000
# of Points	240
Start Time(min)	0.010
End Time(min)	3.993
Intensity Units	
Intensity Multiplier	1
R.Time (min)	Intensity
0.00965	34.52
0.02632	34.54
0.04298	34.55
0.05965	34.54
0.07632	34.50
0.09298	34.52
0.10965	34.52
0.12632	34.52
0.14298	34.52
0.15965	34.52
0.17632	34.52
0.19298	34.52
0.20965	34.52
0.22632	34.52
0.24298	34.52
0.25965	34.52
0.27632	34.52
0.29298	34.52
0.30965	34.52
0.32632	34.52
0.34298	34.52
0.35965	34.52
0.37632	34.51
0.39298	34.52
0.40965	34.52
0.42632	34.52
0.44298	34.52
0.45965	34.52
0.47632	34.52
0.49298	34.52
0.50965	34.52
0.52632	34.52
0.54298	34.52
0.55965	34.52
0.57632	34.51
0.59298	34.52
0.60965	34.52
0.62632	34.51
0.64298	34.52
0.65965	34.52
0.67632	34.53
0.69298	34.52
0.70965	34.51
0.72632	34.52
0.74298	34.52
0.75965	34.52
0.77632	34.51
0.79298	34.52
0.80965	34.52
0.82632	34.52
0.84298	34.52
0.85965	34.52
0.87632	34.52
0.89298	34.52
0.90965	34.52
0.92632	34.52
0.94298	34.51
0.95965	34.52
0.97632	34.52
0.99298	34.52
1.00965	34.52
1.02632	34.52
1.04298	34.51
1.05965	34.51
1.07632	34.52
1.09298	34.53
1.10965	34.52
1.12632	34.52
1.14298	34.53
1.15965	34.51
1.17632	34.52
1.19298	34.52
1.20965	34.52
1.22632	34.52
1.24298	34.52
1.25965	34.52
1.27632	34.52
1.29298	34.51
1.30965	34.51
1.32632	34.52
1.34298	34.52
1.35965	34.52
1.37632	34.52
1.39298	34.52
1.40965	34.52
1.42632	34.52
1.44298	34.52
1.45965	34.52
1.47632	34.52
1.49298	34.52
1.50965	34.52
1.52632	34.52
1.54298	34.52
1.55965	34.52
1.57632	34.52
1.59298	34.52
1.60965	34.52
1.62632	34.52
1.64298	34.52
1.65965	34.52
1.67632	34.52
1.69298	34.52
1.70965	34.52
1.72632	34.52
1.74298	34.52
1.75965	34.52
1.77632	34.52
1.79298	34.52
1.80965	34.52
1.82632	34.52
1.84298	34.52
1.85965	34.52
1.87632	34.52
1.89298	34.52
1.90965	34.51
1.92632	34.52
1.94298	34.52
1.95965	34.51
1.97632	34.52
1.99298	34.52
2.00965	34.52
2.02632	34.52
2.04298	34.52
2.05965	34.52
2.07632	34.52
2.09298	34.52
2.10965	34.52
2.12632	34.52
2.14298	34.51
2.15965	34.52
2.17632	34.52
2.19298	34.52
2.20965	34.51
2.22632	34.52
2.24298	34.52
2.25965	34.51
2.27632	34.52
2.29298	34.52
2.30965	34.52
2.32632	34.52
2.34298	34.51
2.35965	34.52
2.37632	34.52
2.39298	34.52
2.40965	34.52
2.42632	34.52
2.44298	34.52
2.45965	34.52
2.47632	34.52
2.49298	34.52
2.50965	34.51
2.52632	34.51
2.54298	34.52
2.55965	34.52
2.57632	34.52
2.59298	34.52
2.60965	34.52
2.62632	34.52
2.64298	34.52
2.65965	34.52
2.67632	34.52
2.69298	34.51
2.70965	34.51
2.72632	34.52
2.74298	34.52
2.75965	34.52
2.77632	34.52
2.79298	34.52
2.80965	34.52
2.82632	34.52
2.84298	34.52
2.85965	34.52
2.87632	34.52
2.89298	34.52
2.90965	34.52
2.92632	34.52
2.94298	34.52
2.95965	34.52
2.97632	34.52
2.99298	34.52
3.00965	34.51
3.02632	34.52
3.04298	34.52
3.05965	34.52
3.07632	34.52
3.09298	34.52
3.10965	34.52
3.12632	34.52
3.14298	34.52
3.15965	34.52
3.17632	34.52
3.19298	34.51
3.20965	34.52
3.22632	34.52
3.24298	34.52
3.25965	34.52
3.27632	34.52
3.29298	34.52
3.30965	34.52
3.32632	34.52
3.34298	34.52
3.35965	34.52
3.37632	34.52
3.39298	34.52
3.40965	34.52
3.42632	34.52
3.44298	34.52
3.45965	34.52
3.47632	34.52
3.49298	34.51
3.50965	34.52
3.52632	34.52
3.54298	34.52
3.55965	34.52
3.57632	34.52
3.59298	34.52
3.60965	34.53
3.62632	34.52
3.64298	34.52
3.65965	34.52
3.67632	34.52
3.69298	34.52
3.70965	34.52
3.72632	34.52
3.74298	34.52
3.75965	34.52
3.77632	34.52
3.79298	34.52
3.80965	34.52
3.82632	34.51
3.84298	34.52
3.85965	34.52
3.87632	34.52
3.89298	34.52
3.90965	34.52
3.92632	34.52
3.94298	34.52
3.95965	34.52
3.97632	34.52
3.99298	34.52

[Status Trace (Column Flow)]
Interval(msec)	1000
# of Points	240
Start Time(min)	0.010
End Time(min)	3.993
Intensity Units	
Intensity Multiplier	1
R.Time (min)	Intensity
0.00965	5.53
0.02632	5.20
0.04298	5.46
0.05965	5.71
0.07632	5.66
0.09298	5.54
0.10965	5.53
0.12632	5.53
0.14298	5.53
0.15965	5.53
0.17632	5.53
0.19298	5.53
0.20965	5.53
0.22632	5.53
0.24298	5.53
0.25965	5.53
0.27632	5.53
0.29298	5.53
0.30965	5.53
0.32632	5.53
0.34298	5.53
0.35965	5.53
0.37632	5.53
0.39298	5.53
0.40965	5.53
0.42632	5.53
0.44298	5.53
0.45965	5.53
0.47632	5.53
0.49298	5.53
0.50965	5.53
0.52632	5.53
0.54298	5.53
0.55965	5.53
0.57632	5.53
0.59298	5.53
0.60965	5.53
0.62632	5.53
0.64298	5.53
0.65965	5.53
0.67632	5.53
0.69298	5.53
0.70965	5.53
0.72632	5.53
0.74298	5.53
0.75965	5.53
0.77632	5.53
0.79298	5.53
0.80965	5.53
0.82632	5.53
0.84298	5.53
0.85965	5.53
0.87632	5.53
0.89298	5.53
0.90965	5.53
0.92632	5.53
0.94298	5.53
0.95965	5.53
0.97632	5.53
0.99298	5.53
1.00965	5.53
1.02632	5.53
1.04298	5.53
1.05965	5.53
1.07632	5.53
1.09298	5.53
1.10965	5.53
1.12632	5.53
1.14298	5.53
1.15965	5.53
1.17632	5.53
1.19298	5.53
1.20965	5.53
1.22632	5.53
1.24298	5.53
1.25965	5.53
1.27632	5.53
1.29298	5.53
1.30965	5.53
1.32632	5.53
1.34298	5.53
1.35965	5.54
1.37632	5.53
1.39298	5.54
1.40965	5.54
1.42632	5.54
1.44298	5.54
1.45965	5.54
1.47632	5.54
1.49298	5.54
1.50965	5.54
1.52632	5.54
1.54298	5.54
1.55965	5.54
1.57632	5.53
1.59298	5.53
1.60965	5.53
1.62632	5.53
1.64298	5.52
1.65965	5.51
1.67632	5.50
1.69298	5.49
1.70965	5.48
1.72632	5.47
1.74298	5.46
1.75965	5.45
1.77632	5.44
1.79298	5.43
1.80965	5.42
1.82632	5.41
1.84298	5.40
1.85965	5.39
1.87632	5.38
1.89298	5.37
1.90965	5.36
1.92632	5.35
1.94298	5.34
1.95965	5.33
1.97632	5.32
1.99298	5.31
2.00965	5.30
2.02632	5.29
2.04298	5.28
2.05965	5.27
2.07632	5.26
2.09298	5.25
2.10965	5.24
2.12632	5.23
2.14298	5.23
2.15965	5.22
2.17632	5.21
2.19298	5.20
2.20965	5.19
2.22632	5.18
2.24298	5.17
2.25965	5.16
2.27632	5.15
2.29298	5.14
2.30965	5.13
2.32632	5.12
2.34298	5.11
2.35965	5.11
2.37632	5.10
2.39298	5.10
2.40965	5.10
2.42632	5.10
2.44298	5.10
2.45965	5.10
2.47632	5.10
2.49298	5.10
2.50965	5.10
2.52632	5.09
2.54298	5.10
2.55965	5.10
2.57632	5.10
2.59298	5.09
2.60965	5.09
2.62632	5.09
2.64298	5.09
2.65965	5.09
2.67632	5.09
2.69298	5.09
2.70965	5.09
2.72632	5.09
2.74298	5.09
2.75965	5.09
2.77632	5.09
2.79298	5.09
2.80965	5.09
2.82632	5.09
2.84298	5.09
2.85965	5.09
2.87632	5.09
2.89298	5.09
2.90965	5.09
2.92632	5.09
2.94298	5.09
2.95965	5.09
2.97632	5.09
2.99298	5.09
3.00965	5.09
3.02632	5.09
3.04298	5.09
3.05965	5.09
3.07632	5.09
3.09298	5.09
3.10965	5.09
3.12632	5.09
3.14298	5.09
3.15965	5.09
3.17632	5.09
3.19298	5.09
3.20965	5.09
3.22632	5.09
3.24298	5.09
3.25965	5.09
3.27632	5.09
3.29298	5.09
3.30965	5.09
3.32632	5.09
3.34298	5.09
3.35965	5.09
3.37632	5.09
3.39298	5.09
3.40965	5.09
3.42632	5.09
3.44298	5.09
3.45965	5.09
3.47632	5.09
3.49298	5.09
3.50965	5.09
3.52632	5.09
3.54298	5.09
3.55965	5.09
3.57632	5.09
3.59298	5.09
3.60965	5.09
3.62632	5.09
3.64298	5.09
3.65965	5.09
3.67632	5.09
3.69298	5.09
3.70965	5.09
3.72632	5.09
3.74298	5.09
3.75965	5.09
3.77632	5.09
3.79298	5.09
3.80965	5.09
3.82632	5.09
3.84298	5.09
3.85965	5.09
3.87632	5.09
3.89298	5.09
3.90965	5.09
3.92632	5.09
3.94298	5.09
3.95965	5.09
3.97632	5.09
3.99298	5.09

[Status Trace (Linear Velocity)]
Interval(msec)	1000
# of Points	240
Start Time(min)	0.010
End Time(min)	3.993
Intensity Units	
Intensity Multiplier	1
R.Time (min)	Intensity
0.00965	39.02
0.02632	37.14
0.04298	38.59
0.05965	40.02
0.07632	39.71
0.09298	39.03
0.10965	39.01
0.12632	39.02
0.14298	39.02
0.15965	39.02
0.17632	39.02
0.19298	39.02
0.20965	39.01
0.22632	39.01
0.24298	39.01
0.25965	39.01
0.27632	39.02
0.29298	39.02
0.30965	39.02
0.32632	39.02
0.34298	39.02
0.35965	39.02
0.37632	39.02
0.39298	39.02
0.40965	39.02
0.42632	39.02
0.44298	39.02
0.45965	39.02
0.47632	39.02
0.49298	39.02
0.50965	39.02
0.52632	39.02
0.54298	39.02
0.55965	39.02
0.57632	39.02
0.59298	39.02
0.60965	39.02
0.62632	39.02
0.64298	39.02
0.65965	39.02
0.67632	39.02
0.69298	39.02
0.70965	39.02
0.72632	39.02
0.74298	39.02
0.75965	39.02
0.77632	39.02
0.79298	39.02
0.80965	39.02
0.82632	39.02
0.84298	39.02
0.85965	39.02
0.87632	39.01
0.89298	39.01
0.90965	39.01
0.92632	39.01
0.94298	39.02
0.95965	39.02
0.97632	39.02
0.99298	39.02
1.00965	39.02
1.02632	39.02
1.04298	39.02
1.05965	39.01
1.07632	39.02
1.09298	39.02
1.10965	39.02
1.12632	39.02
1.14298	39.02
1.15965	39.02
1.17632	39.02
1.19298	39.02
1.20965	39.02
1.22632	39.02
1.24298	39.02
1.25965	39.02
1.27632	39.02
1.29298	39.02
1.30965	39.02
1.32632	39.02
1.34298	39.02
1.35965	39.02
1.37632	39.02
1.39298	39.02
1.40965	39.02
1.42632	39.02
1.44298	39.02
1.45965	39.02
1.47632	39.02
1.49298	39.03
1.50965	39.02
1.52632	39.02
1.54298	39.02
1.55965	39.02
1.57632	39.02
1.59298	39.02
1.60965	39.02
1.62632	39.00
1.64298	38.99
1.65965	38.96
1.67632	38.93
1.69298	38.89
1.70965	38.86
1.72632	38.83
1.74298	38.79
1.75965	38.76
1.77632	38.73
1.79298	38.70
1.80965	38.67
1.82632	38.64
1.84298	38.61
1.85965	38.58
1.87632	38.54
1.89298	38.51
1.90965	38.48
1.92632	38.45
1.94298	38.42
1.95965	38.39
1.97632	38.36
1.99298	38.33
2.00965	38.30
2.02632	38.27
2.04298	38.24
2.05965	38.21
2.07632	38.18
2.09298	38.15
2.10965	38.12
2.12632	38.09
2.14298	38.06
2.15965	38.04
2.17632	38.00
2.19298	37.97
2.20965	37.95
2.22632	37.92
2.24298	37.89
2.25965	37.86
2.27632	37.83
2.29298	37.79
2.30965	37.77
2.32632	37.74
2.34298	37.71
2.35965	37.68
2.37632	37.66
2.39298	37.65
2.40965	37.65
2.42632	37.66
2.44298	37.66
2.45965	37.66
2.47632	37.66
2.49298	37.66
2.50965	37.65
2.52632	37.65
2.54298	37.65
2.55965	37.65
2.57632	37.65
2.59298	37.65
2.60965	37.65
2.62632	37.65
2.64298	37.65
2.65965	37.65
2.67632	37.65
2.69298	37.65
2.70965	37.65
2.72632	37.65
2.74298	37.65
2.75965	37.65
2.77632	37.65
2.79298	37.65
2.80965	37.64
2.82632	37.65
2.84298	37.65
2.85965	37.65
2.87632	37.65
2.89298	37.65
2.90965	37.65
2.92632	37.65
2.94298	37.64
2.95965	37.64
2.97632	37.64
2.99298	37.64
3.00965	37.64
3.02632	37.64
3.04298	37.64
3.05965	37.64
3.07632	37.64
3.09298	37.64
3.10965	37.64
3.12632	37.63
3.14298	37.63
3.15965	37.63
3.17632	37.63
3.19298	37.63
3.20965	37.63
3.22632	37.63
3.24298	37.63
3.25965	37.63
3.27632	37.63
3.29298	37.63
3.30965	37.63
3.32632	37.63
3.34298	37.63
3.35965	37.63
3.37632	37.63
3.39298	37.63
3.40965	37.63
3.42632	37.63
3.44298	37.63
3.45965	37.63
3.47632	37.63
3.49298	37.63
3.50965	37.63
3.52632	37.63
3.54298	37.63
3.55965	37.63
3.57632	37.63
3.59298	37.63
3.60965	37.63
3.62632	37.63
3.64298	37.63
3.65965	37.63
3.67632	37.63
3.69298	37.63
3.70965	37.63
3.72632	37.63
3.74298	37.63
3.75965	37.63
3.77632	37.63
3.79298	37.63
3.80965	37.63
3.82632	37.63
3.84298	37.63
3.85965	37.63
3.87632	37.63
3.89298	37.63
3.90965	37.63
3.92632	37.64
3.94298	37.63
3.95965	37.64
3.97632	37.63
3.99298	37.63

