[Header]
Application Name	LabSolutions
Version	5.110
Data File Name	C:\Users\User\Desktop\Junior\UIC Prairie Sampling\5.18.23\05182023_054.gcd
Output Date	6/5/2023
Output Time	2:17:28 PM

[File Information]
Type	Data File
Generated	5/24/2023 6:08:04 PM
Generated by	System Administrator
Modified	5/24/2023 6:15:32 PM
Modified by	System Administrator

[Sample Information]
Operator Name	System Administrator
Acquired	5/24/2023 6:11:31 PM
Sample Type	0:Unknown
Level	0
Sample Name	054
Sample ID	054
ISTD Amount1	1
ISTD Amount2	1
ISTD Amount3	1
ISTD Amount4	1
ISTD Amount5	1
ISTD Amount6	1
ISTD Amount7	1
ISTD Amount8	1
ISTD Amount9	1
ISTD Amount10	1
ISTD Amount11	1
ISTD Amount12	1
ISTD Amount13	1
ISTD Amount14	1
ISTD Amount15	1
ISTD Amount16	1
ISTD Amount17	1
ISTD Amount18	1
ISTD Amount19	1
ISTD Amount20	1
ISTD Amount21	1
ISTD Amount22	1
ISTD Amount23	1
ISTD Amount24	1
ISTD Amount25	1
ISTD Amount26	1
ISTD Amount27	1
ISTD Amount28	1
ISTD Amount29	1
ISTD Amount30	1
ISTD Amount31	1
ISTD Amount32	1
Sample Amount	1
Dilution Factor	1
Vial#	53
Injection Volume	1
Injection Count	1
Bar Code	

[Original Files]
Data File	C:\Users\User\Desktop\Junior\UIC Prairie Sampling\5.18.23\05182023_054.gcd
Method File	C:\LabSolutions\Data\GHG_4min_2022\ghg3_togas_w_acet_4 min_new_int.gcm
Batch File	C:\LabSolutions\Data\AutoSamplerTesting\05182023.gcb
Report Format File	c:\LabSolutions\System\DEFAULT.lsr

[File Description]


[Configuration]
Instrument Name	C0B7VH3-Instrument1
Instrument #	1
Line #	1
# of Detectors	3
Detector ID	DET#1	DET#2	DET#3
Detector Name	FID	PTCD	ECD
# of Channels	1	1	1

[Peak Table(Ch1)]
# of Peaks	3
Peak#	R.Time	I.Time	F.Time	Area	Height	A/H	Conc.	Mark	ID#	Name	k'	Plate #	Plate Ht.	Tailing	Resolution	Sep.Factor	Area Ratio	Height Ratio	Conc. %	Norm Conc.
1	1.472	1.424	1.527	5094	2469	2.063	0.000	   	1	CO	0.000	9425	15.915	1.256	0.000	0.000	0	0	0.000	0.000
2	1.564	1.527	1.622	4816	2410	1.998	23.481	 V 	2	CH4	0.062	11328	13.242	1.188	1.535	0.000	0	0	7.451	7.451
3	1.989	1.945	2.396	1513474	724662	2.089	291.674	   	3	CO2	0.351	17360	8.640	1.305	7.139	5.640	0	0	92.549	92.549

[Peak Table(Ch2)]
# of Peaks	0

[Peak Table(Ch3)]
# of Peaks	4
Peak#	R.Time	I.Time	F.Time	Area	Height	A/H	Conc.	Mark	ID#	Name	k'	Plate #	Plate Ht.	Tailing	Resolution	Sep.Factor	Area Ratio	Height Ratio	Conc. %	Norm Conc.
1	2.458	2.440	2.473	408	294	1.388	0.000	   			0.000	10179	14.737	0.000	0.000	0.000	0	0	0.000	0.000
2	2.576	2.473	2.667	5878	630	9.328	0.000	 V 			0.048	570	263.262	0.000	0.444	0.000	0	0	0.000	0.000
3	2.722	2.667	2.825	4257	490	8.682	0.000	 V 			0.107	87	1731.355	0.000	0.183	2.250	0	0	0.000	0.000
4	2.891	2.825	3.932	35383	5627	6.287	0.523	 V 	1	N2O	0.176	12076	12.422	0.000	0.265	1.639	0	0	100.000	100.000

[Compound Results(Ch1)]
# of IDs	6
ID#	Name	R.Time	Area	Height	Conc.	Curve	3rd	2nd	1st	Constant	Area Ratio	Height Ratio	Conc. %	Norm Conc.
1	CO	1.472	5094	2469	0.000	Linear	0.000000e+00	0.000000e+00	0.000000e+00	0.000000e+00	0	0	0.000	0.000
2	CH4	1.564	4816	2410	23.481	Linear	0.000000e+00	0.000000e+00	2.051179e+002	0.000000e+00	0	0	7.451	7.451
3	CO2	1.989	1513474	724662	291.674	Linear	0.000000e+00	0.000000e+00	5.188919e+003	0.000000e+00	0	0	92.549	92.549
4	Ethylene	0.000	0	0	0.000	Linear	0.000000e+00	0.000000e+00	0.000000e+00	0.000000e+00	0	0	0.000	0.000
5	Acetylene	0.000	0	0	0.000	Linear	0.000000e+00	0.000000e+00	0.000000e+00	0.000000e+00	0	0	0.000	0.000
6	Ethane	0.000	0	0	0.000	Linear	0.000000e+00	0.000000e+00	0.000000e+00	0.000000e+00	0	0	0.000	0.000

[Compound Results(Ch2)]
# of IDs	5
ID#	Name	R.Time	Area	Height	Conc.	Curve	3rd	2nd	1st	Constant	Area Ratio	Height Ratio	Conc. %	Norm Conc.
1	Hydrogen	0.000	0	0	0.000	Linear	0.000000e+00	0.000000e+00	0.000000e+00	0.000000e+00	0	0	0.000	0.000
2	Oxygen	0.000	0	0	0.000	Linear	0.000000e+00	0.000000e+00	0.000000e+00	0.000000e+00	0	0	0.000	0.000
3	Nitrogen	0.000	0	0	0.000	Linear	0.000000e+00	0.000000e+00	0.000000e+00	0.000000e+00	0	0	0.000	0.000
4	Methane	0.000	0	0	0.000	Linear	0.000000e+00	0.000000e+00	0.000000e+00	0.000000e+00	0	0	0.000	0.000
5	Carbon Monoxide	0.000	0	0	0.000	Linear	0.000000e+00	0.000000e+00	0.000000e+00	0.000000e+00	0	0	0.000	0.000

[Compound Results(Ch3)]
# of IDs	2
ID#	Name	R.Time	Area	Height	Conc.	Curve	3rd	2nd	1st	Constant	Area Ratio	Height Ratio	Conc. %	Norm Conc.
1	N2O	2.891	35383	5627	0.523	Linear	0.000000e+00	0.000000e+00	6.759880e+004	0.000000e+00	0	0	100.000	100.000
2	SF6	0.000	0	0	0.000	Linear	0.000000e+00	0.000000e+00	0.000000e+00	0.000000e+00	0	0	0.000	0.000

[Group Results(Ch1)]
# of Groups	0

[Group Results(Ch2)]
# of Groups	0

[Group Results(Ch3)]
# of Groups	0

[Chromatogram (Ch1)]
Interval(msec)	220
# of Points	1091
Start Time(min)	0.002
End Time(min)	3.998
R.Time (min)	Intensity
0.00167	1
0.00533	8
0.00900	16
0.01267	24
0.01633	28
0.02000	27
0.02367	24
0.02733	19
0.03100	14
0.03467	7
0.03833	1
0.04200	-2
0.04567	-3
0.04933	-5
0.05300	-9
0.05667	-12
0.06033	-9
0.06400	-2
0.06767	4
0.07133	10
0.07500	12
0.07867	12
0.08233	11
0.08600	10
0.08967	11
0.09333	13
0.09700	15
0.10067	14
0.10433	11
0.10800	5
0.11167	-2
0.11533	-11
0.11900	-16
0.12267	-14
0.12633	-4
0.13000	11
0.13367	21
0.13733	25
0.14100	23
0.14467	21
0.14833	16
0.15200	7
0.15567	-1
0.15933	-7
0.16300	-14
0.16667	-18
0.17033	-16
0.17400	-10
0.17767	-6
0.18133	-2
0.18500	1
0.18867	3
0.19233	6
0.19600	8
0.19967	7
0.20333	7
0.20700	9
0.21067	12
0.21433	16
0.21800	17
0.22167	17
0.22533	16
0.22900	17
0.23267	19
0.23633	23
0.24000	28
0.24367	28
0.24733	24
0.25100	17
0.25467	9
0.25833	-3
0.26200	-14
0.26567	-19
0.26933	-17
0.27300	-14
0.27667	-12
0.28033	-11
0.28400	-7
0.28767	-6
0.29133	-5
0.29500	-4
0.29867	-4
0.30233	-4
0.30600	-2
0.30967	-1
0.31333	-1
0.31700	0
0.32067	3
0.32433	5
0.32800	6
0.33167	9
0.33533	7
0.33900	4
0.34267	3
0.34633	6
0.35000	10
0.35367	15
0.35733	21
0.36100	28
0.36467	31
0.36833	33
0.37200	35
0.37567	33
0.37933	22
0.38300	5
0.38667	-8
0.39033	-14
0.39400	-11
0.39767	-6
0.40133	-2
0.40500	-1
0.40867	-4
0.41233	-7
0.41600	-8
0.41967	-6
0.42333	-4
0.42700	1
0.43067	5
0.43433	7
0.43800	7
0.44167	5
0.44533	0
0.44900	-4
0.45267	-2
0.45633	3
0.46000	5
0.46367	1
0.46733	-6
0.47100	-13
0.47467	-16
0.47833	-11
0.48200	-4
0.48567	1
0.48933	1
0.49300	0
0.49667	3
0.50033	8
0.50400	13
0.50767	14
0.51133	14
0.51500	15
0.51867	19
0.52233	20
0.52600	15
0.52967	7
0.53333	-1
0.53700	-6
0.54067	-9
0.54433	-11
0.54800	-14
0.55167	-16
0.55533	-15
0.55900	-8
0.56267	0
0.56633	5
0.57000	7
0.57367	6
0.57733	5
0.58100	1
0.58467	-5
0.58833	-11
0.59200	-13
0.59567	-12
0.59933	-10
0.60300	-3
0.60667	4
0.61033	9
0.61400	14
0.61767	15
0.62133	9
0.62500	1
0.62867	-3
0.63233	-3
0.63600	-2
0.63967	-2
0.64333	-5
0.64700	-11
0.65067	-17
0.65433	-18
0.65800	-15
0.66167	-10
0.66533	-3
0.66900	2
0.67267	4
0.67633	4
0.68000	6
0.68367	9
0.68733	13
0.69100	14
0.69467	14
0.69833	10
0.70200	4
0.70567	-3
0.70933	-6
0.71300	-9
0.71667	-14
0.72033	-22
0.72400	-26
0.72767	-21
0.73133	-11
0.73500	-3
0.73867	4
0.74233	9
0.74600	10
0.74967	5
0.75333	-2
0.75700	-2
0.76067	-2
0.76433	-6
0.76800	-10
0.77167	-10
0.77533	-8
0.77900	-8
0.78267	-11
0.78633	-20
0.79000	-29
0.79367	-33
0.79733	-31
0.80100	-25
0.80467	-18
0.80833	-10
0.81200	1
0.81567	13
0.81933	17
0.82300	10
0.82667	-1
0.83033	-13
0.83400	-20
0.83767	-24
0.84133	-29
0.84500	-33
0.84867	-33
0.85233	-24
0.85600	-9
0.85967	4
0.86333	8
0.86700	2
0.87067	-6
0.87433	-13
0.87800	-19
0.88167	-22
0.88533	-16
0.88900	-13
0.89267	-12
0.89633	-14
0.90000	-16
0.90367	-17
0.90733	-16
0.91100	-11
0.91467	-4
0.91833	-1
0.92200	-4
0.92567	-7
0.92933	-8
0.93300	-6
0.93667	-5
0.94033	-7
0.94400	-11
0.94767	-17
0.95133	-19
0.95500	-17
0.95867	-15
0.96233	-13
0.96600	-12
0.96967	-14
0.97333	-20
0.97700	-27
0.98067	-30
0.98433	-30
0.98800	-27
0.99167	-25
0.99533	-25
0.99900	-26
1.00267	-23
1.00633	-18
1.01000	-12
1.01367	-8
1.01733	-4
1.02100	-4
1.02467	-11
1.02833	-20
1.03200	-25
1.03567	-23
1.03933	-17
1.04300	-12
1.04667	-10
1.05033	-13
1.05400	-16
1.05767	-20
1.06133	-25
1.06500	-27
1.06867	-27
1.07233	-26
1.07600	-24
1.07967	-21
1.08333	-16
1.08700	-15
1.09067	-18
1.09433	-24
1.09800	-27
1.10167	-29
1.10533	-31
1.10900	-32
1.11267	-29
1.11633	-23
1.12000	-15
1.12367	-10
1.12733	-7
1.13100	-4
1.13467	-4
1.13833	-6
1.14200	-11
1.14567	-15
1.14933	-12
1.15300	-8
1.15667	-9
1.16033	-15
1.16400	-21
1.16767	-24
1.17133	-25
1.17500	-23
1.17867	-21
1.18233	-20
1.18600	-23
1.18967	-27
1.19333	-28
1.19700	-25
1.20067	-22
1.20433	-18
1.20800	-18
1.21167	-21
1.21533	-21
1.21900	-16
1.22267	-10
1.22633	-6
1.23000	-6
1.23367	-10
1.23733	-17
1.24100	-25
1.24467	-30
1.24833	-31
1.25200	-31
1.25567	-29
1.25933	-24
1.26300	-21
1.26667	-20
1.27033	-21
1.27400	-24
1.27767	-26
1.28133	-27
1.28500	-23
1.28867	-20
1.29233	-21
1.29600	-26
1.29967	-29
1.30333	-31
1.30700	-33
1.31067	-33
1.31433	-30
1.31800	-25
1.32167	-20
1.32533	-17
1.32900	-18
1.33267	-21
1.33633	-26
1.34000	-30
1.34367	-31
1.34733	-32
1.35100	-32
1.35467	-33
1.35833	-37
1.36200	-41
1.36567	-42
1.36933	-42
1.37300	-43
1.37667	-41
1.38033	-38
1.38400	-35
1.38767	-29
1.39133	-20
1.39500	-13
1.39867	-11
1.40233	-16
1.40600	-29
1.40967	-41
1.41333	-50
1.41700	-52
1.42067	-49
1.42433	-40
1.42800	-32
1.43167	-26
1.43533	-14
1.43900	13
1.44267	49
1.44633	141
1.45000	393
1.45367	814
1.45733	1295
1.46100	1735
1.46467	2090
1.46833	2331
1.47200	2424
1.47567	2339
1.47933	2094
1.48300	1745
1.48667	1366
1.49033	1014
1.49400	724
1.49767	504
1.50133	344
1.50500	230
1.50867	150
1.51233	96
1.51600	57
1.51967	26
1.52333	2
1.52700	-13
1.53067	-12
1.53433	28
1.53800	166
1.54167	459
1.54533	891
1.54900	1366
1.55267	1790
1.55633	2114
1.56000	2312
1.56367	2355
1.56733	2221
1.57100	1926
1.57467	1541
1.57833	1152
1.58200	818
1.58567	560
1.58933	373
1.59300	240
1.59667	148
1.60033	87
1.60400	45
1.60767	11
1.61133	-18
1.61500	-41
1.61867	-54
1.62233	-61
1.62600	-64
1.62967	-66
1.63333	-67
1.63700	-69
1.64067	-71
1.64433	-71
1.64800	-72
1.65167	-72
1.65533	-74
1.65900	-73
1.66267	-70
1.66633	-68
1.67000	-65
1.67367	-63
1.67733	-60
1.68100	-56
1.68467	-55
1.68833	-59
1.69200	-66
1.69567	-72
1.69933	-77
1.70300	-80
1.70667	-81
1.71033	-83
1.71400	-81
1.71767	-72
1.72133	-63
1.72500	-63
1.72867	-67
1.73233	-71
1.73600	-75
1.73967	-77
1.74333	-78
1.74700	-78
1.75067	-82
1.75433	-86
1.75800	-86
1.76167	-82
1.76533	-77
1.76900	-72
1.77267	-70
1.77633	-70
1.78000	-69
1.78367	-65
1.78733	-61
1.79100	-57
1.79467	-54
1.79833	-52
1.80200	-49
1.80567	-48
1.80933	-48
1.81300	-44
1.81667	-39
1.82033	-38
1.82400	-41
1.82767	-42
1.83133	-44
1.83500	-51
1.83867	-65
1.84233	-79
1.84600	-88
1.84967	-90
1.85333	-88
1.85700	-85
1.86067	-81
1.86433	-76
1.86800	-75
1.87167	-76
1.87533	-76
1.87900	-76
1.88267	-76
1.88633	-74
1.89000	-73
1.89367	-70
1.89733	-64
1.90100	-62
1.90467	-64
1.90833	-67
1.91200	-68
1.91567	-68
1.91933	-66
1.92300	-62
1.92667	-58
1.93033	-56
1.93400	-56
1.93767	-54
1.94133	-50
1.94500	-39
1.94867	59
1.95233	682
1.95600	3655
1.95967	14250
1.96333	42934
1.96700	102965
1.97067	201457
1.97433	330602
1.97800	469114
1.98167	592860
1.98533	682326
1.98900	724663
1.99267	714683
1.99633	656632
2.00000	564239
2.00367	456177
2.00733	350074
2.01100	257813
2.01467	184366
2.01833	129480
2.02200	90229
2.02567	62976
2.02933	44395
2.03300	31838
2.03667	23363
2.04033	17615
2.04400	13673
2.04767	10927
2.05133	8978
2.05500	7557
2.05867	6490
2.06233	5667
2.06600	5016
2.06967	4491
2.07333	4061
2.07700	3707
2.08067	3406
2.08433	3146
2.08800	2922
2.09167	2729
2.09533	2561
2.09900	2412
2.10267	2274
2.10633	2146
2.11000	2026
2.11367	1917
2.11733	1821
2.12100	1732
2.12467	1646
2.12833	1568
2.13200	1499
2.13567	1434
2.13933	1376
2.14300	1323
2.14667	1277
2.15033	1239
2.15400	1205
2.15767	1169
2.16133	1129
2.16500	1083
2.16867	1039
2.17233	1002
2.17600	969
2.17967	940
2.18333	908
2.18700	873
2.19067	839
2.19433	810
2.19800	785
2.20167	765
2.20533	748
2.20900	733
2.21267	718
2.21633	702
2.22000	687
2.22367	672
2.22733	661
2.23100	651
2.23467	641
2.23833	631
2.24200	623
2.24567	616
2.24933	610
2.25300	601
2.25667	588
2.26033	573
2.26400	558
2.26767	542
2.27133	526
2.27500	511
2.27867	494
2.28233	479
2.28600	470
2.28967	465
2.29333	461
2.29700	461
2.30067	461
2.30433	459
2.30800	455
2.31167	447
2.31533	437
2.31900	428
2.32267	420
2.32633	414
2.33000	410
2.33367	407
2.33733	404
2.34100	399
2.34467	393
2.34833	385
2.35200	378
2.35567	377
2.35933	378
2.36300	378
2.36667	377
2.37033	376
2.37400	376
2.37767	379
2.38133	380
2.38500	381
2.38867	381
2.39233	379
2.39600	374
2.39967	367
2.40333	360
2.40700	355
2.41067	354
2.41433	353
2.41800	350
2.42167	346
2.42533	340
2.42900	335
2.43267	330
2.43633	324
2.44000	325
2.44367	328
2.44733	325
2.45100	315
2.45467	306
2.45833	301
2.46200	301
2.46567	302
2.46933	302
2.47300	301
2.47667	299
2.48033	293
2.48400	283
2.48767	276
2.49133	275
2.49500	276
2.49867	280
2.50233	285
2.50600	290
2.50967	295
2.51333	298
2.51700	303
2.52067	311
2.52433	316
2.52800	318
2.53167	318
2.53533	316
2.53900	313
2.54267	310
2.54633	307
2.55000	302
2.55367	294
2.55733	286
2.56100	280
2.56467	278
2.56833	278
2.57200	282
2.57567	289
2.57933	295
2.58300	299
2.58667	302
2.59033	305
2.59400	307
2.59767	306
2.60133	305
2.60500	306
2.60867	305
2.61233	305
2.61600	304
2.61967	306
2.62333	308
2.62700	310
2.63067	310
2.63433	309
2.63800	314
2.64167	320
2.64533	330
2.64900	336
2.65267	333
2.65633	326
2.66000	322
2.66367	321
2.66733	322
2.67100	323
2.67467	321
2.67833	320
2.68200	320
2.68567	322
2.68933	323
2.69300	324
2.69667	326
2.70033	328
2.70400	328
2.70767	325
2.71133	324
2.71500	324
2.71867	323
2.72233	322
2.72600	321
2.72967	320
2.73333	321
2.73700	319
2.74067	316
2.74433	317
2.74800	318
2.75167	318
2.75533	319
2.75900	322
2.76267	326
2.76633	331
2.77000	339
2.77367	345
2.77733	346
2.78100	343
2.78467	342
2.78833	348
2.79200	356
2.79567	364
2.79933	369
2.80300	371
2.80667	370
2.81033	367
2.81400	367
2.81767	370
2.82133	375
2.82500	380
2.82867	379
2.83233	375
2.83600	369
2.83967	368
2.84333	369
2.84700	368
2.85067	367
2.85433	366
2.85800	362
2.86167	360
2.86533	360
2.86900	363
2.87267	364
2.87633	366
2.88000	374
2.88367	385
2.88733	395
2.89100	404
2.89467	410
2.89833	412
2.90200	410
2.90567	401
2.90933	388
2.91300	377
2.91667	370
2.92033	368
2.92400	373
2.92767	380
2.93133	383
2.93500	385
2.93867	387
2.94233	388
2.94600	391
2.94967	396
2.95333	402
2.95700	408
2.96067	413
2.96433	417
2.96800	420
2.97167	421
2.97533	421
2.97900	420
2.98267	419
2.98633	416
2.99000	414
2.99367	418
2.99733	428
3.00100	437
3.00467	440
3.00833	434
3.01200	426
3.01567	419
3.01933	410
3.02300	401
3.02667	398
3.03033	401
3.03400	405
3.03767	408
3.04133	408
3.04500	408
3.04867	413
3.05233	425
3.05600	438
3.05967	446
3.06333	447
3.06700	443
3.07067	439
3.07433	436
3.07800	432
3.08167	423
3.08533	416
3.08900	412
3.09267	409
3.09633	405
3.10000	399
3.10367	390
3.10733	382
3.11100	377
3.11467	376
3.11833	379
3.12200	386
3.12567	396
3.12933	402
3.13300	406
3.13667	409
3.14033	414
3.14400	420
3.14767	422
3.15133	423
3.15500	423
3.15867	425
3.16233	432
3.16600	439
3.16967	443
3.17333	446
3.17700	447
3.18067	444
3.18433	441
3.18800	438
3.19167	437
3.19533	439
3.19900	442
3.20267	445
3.20633	449
3.21000	448
3.21367	441
3.21733	432
3.22100	423
3.22467	416
3.22833	414
3.23200	416
3.23567	419
3.23933	423
3.24300	426
3.24667	428
3.25033	428
3.25400	431
3.25767	434
3.26133	434
3.26500	432
3.26867	429
3.27233	427
3.27600	430
3.27967	435
3.28333	437
3.28700	439
3.29067	437
3.29433	432
3.29800	427
3.30167	426
3.30533	427
3.30900	428
3.31267	429
3.31633	431
3.32000	432
3.32367	432
3.32733	432
3.33100	433
3.33467	436
3.33833	440
3.34200	442
3.34567	440
3.34933	433
3.35300	429
3.35667	427
3.36033	422
3.36400	418
3.36767	416
3.37133	413
3.37500	410
3.37867	409
3.38233	414
3.38600	420
3.38967	426
3.39333	425
3.39700	420
3.40067	415
3.40433	410
3.40800	408
3.41167	408
3.41533	412
3.41900	418
3.42267	424
3.42633	422
3.43000	418
3.43367	418
3.43733	418
3.44100	420
3.44467	421
3.44833	421
3.45200	423
3.45567	427
3.45933	428
3.46300	428
3.46667	427
3.47033	421
3.47400	415
3.47767	411
3.48133	409
3.48500	410
3.48867	406
3.49233	403
3.49600	404
3.49967	406
3.50333	410
3.50700	414
3.51067	414
3.51433	412
3.51800	415
3.52167	420
3.52533	425
3.52900	427
3.53267	423
3.53633	413
3.54000	404
3.54367	403
3.54733	406
3.55100	410
3.55467	413
3.55833	416
3.56200	416
3.56567	412
3.56933	408
3.57300	402
3.57667	396
3.58033	390
3.58400	386
3.58767	384
3.59133	389
3.59500	399
3.59867	406
3.60233	404
3.60600	396
3.60967	388
3.61333	385
3.61700	385
3.62067	384
3.62433	382
3.62800	378
3.63167	378
3.63533	383
3.63900	386
3.64267	387
3.64633	387
3.65000	386
3.65367	392
3.65733	400
3.66100	404
3.66467	398
3.66833	387
3.67200	380
3.67567	377
3.67933	376
3.68300	377
3.68667	378
3.69033	378
3.69400	376
3.69767	374
3.70133	373
3.70500	374
3.70867	378
3.71233	383
3.71600	388
3.71967	389
3.72333	384
3.72700	380
3.73067	379
3.73433	381
3.73800	379
3.74167	376
3.74533	373
3.74900	371
3.75267	371
3.75633	371
3.76000	365
3.76367	359
3.76733	355
3.77100	357
3.77467	360
3.77833	360
3.78200	357
3.78567	355
3.78933	356
3.79300	358
3.79667	358
3.80033	358
3.80400	358
3.80767	361
3.81133	364
3.81500	365
3.81867	366
3.82233	369
3.82600	368
3.82967	369
3.83333	373
3.83700	374
3.84067	374
3.84433	374
3.84800	374
3.85167	375
3.85533	374
3.85900	374
3.86267	373
3.86633	372
3.87000	374
3.87367	375
3.87733	372
3.88100	365
3.88467	364
3.88833	368
3.89200	372
3.89567	375
3.89933	373
3.90300	369
3.90667	368
3.91033	368
3.91400	365
3.91767	359
3.92133	355
3.92500	352
3.92867	351
3.93233	351
3.93600	352
3.93967	348
3.94333	343
3.94700	338
3.95067	334
3.95433	333
3.95800	333
3.96167	330
3.96533	330
3.96900	334
3.97267	338
3.97633	344
3.98000	353
3.98367	363
3.98733	370
3.99100	372
3.99467	368
3.99833	362

[Chromatogram (Ch2)]
Interval(msec)	220
# of Points	1091
Start Time(min)	0.002
End Time(min)	3.998
R.Time (min)	Intensity
0.00167	-1
0.00533	-1
0.00900	-1
0.01267	-1
0.01633	-0
0.02000	-0
0.02367	-0
0.02733	-0
0.03100	-0
0.03467	-0
0.03833	-0
0.04200	0
0.04567	0
0.04933	1
0.05300	1
0.05667	1
0.06033	1
0.06400	2
0.06767	2
0.07133	2
0.07500	2
0.07867	2
0.08233	2
0.08600	2
0.08967	2
0.09333	2
0.09700	2
0.10067	2
0.10433	2
0.10800	2
0.11167	1
0.11533	1
0.11900	1
0.12267	1
0.12633	1
0.13000	1
0.13367	2
0.13733	2
0.14100	2
0.14467	2
0.14833	2
0.15200	2
0.15567	1
0.15933	1
0.16300	1
0.16667	1
0.17033	0
0.17400	0
0.17767	0
0.18133	0
0.18500	0
0.18867	-0
0.19233	-0
0.19600	-0
0.19967	-1
0.20333	-1
0.20700	-1
0.21067	-1
0.21433	-1
0.21800	-1
0.22167	-1
0.22533	-1
0.22900	-1
0.23267	-1
0.23633	-1
0.24000	-1
0.24367	-1
0.24733	-1
0.25100	-1
0.25467	-2
0.25833	-1
0.26200	-1
0.26567	-1
0.26933	-2
0.27300	-2
0.27667	-2
0.28033	-2
0.28400	-2
0.28767	-2
0.29133	-2
0.29500	-2
0.29867	-2
0.30233	-1
0.30600	-1
0.30967	-1
0.31333	-1
0.31700	-1
0.32067	-1
0.32433	-1
0.32800	-1
0.33167	-1
0.33533	-1
0.33900	-1
0.34267	-1
0.34633	-2
0.35000	-2
0.35367	-2
0.35733	-2
0.36100	-2
0.36467	-2
0.36833	-2
0.37200	-2
0.37567	-2
0.37933	-2
0.38300	-2
0.38667	-2
0.39033	-2
0.39400	-2
0.39767	-2
0.40133	-2
0.40500	-2
0.40867	-2
0.41233	-2
0.41600	-2
0.41967	-2
0.42333	-2
0.42700	-2
0.43067	-2
0.43433	-2
0.43800	-2
0.44167	-2
0.44533	-2
0.44900	-2
0.45267	-2
0.45633	-2
0.46000	-2
0.46367	-1
0.46733	-1
0.47100	-1
0.47467	-1
0.47833	-1
0.48200	-1
0.48567	-1
0.48933	-1
0.49300	-1
0.49667	-2
0.50033	-2
0.50400	-2
0.50767	-2
0.51133	-2
0.51500	-2
0.51867	-2
0.52233	-3
0.52600	-3
0.52967	-3
0.53333	-3
0.53700	-3
0.54067	-3
0.54433	-3
0.54800	-2
0.55167	-2
0.55533	-2
0.55900	-2
0.56267	-1
0.56633	-1
0.57000	-1
0.57367	-1
0.57733	-1
0.58100	-1
0.58467	-1
0.58833	-1
0.59200	-1
0.59567	-1
0.59933	-1
0.60300	-1
0.60667	-1
0.61033	-1
0.61400	-1
0.61767	-1
0.62133	-1
0.62500	-2
0.62867	-2
0.63233	-2
0.63600	-2
0.63967	-2
0.64333	-2
0.64700	-3
0.65067	-3
0.65433	-3
0.65800	-3
0.66167	-4
0.66533	-4
0.66900	-4
0.67267	-4
0.67633	-4
0.68000	-4
0.68367	-4
0.68733	-4
0.69100	-4
0.69467	-4
0.69833	-3
0.70200	-3
0.70567	-3
0.70933	-3
0.71300	-3
0.71667	-3
0.72033	-3
0.72400	-2
0.72767	-2
0.73133	-2
0.73500	-2
0.73867	-2
0.74233	-2
0.74600	-2
0.74967	-2
0.75333	-2
0.75700	-2
0.76067	-2
0.76433	-2
0.76800	-2
0.77167	-1
0.77533	-1
0.77900	-1
0.78267	-1
0.78633	-1
0.79000	-1
0.79367	-2
0.79733	-2
0.80100	-2
0.80467	-2
0.80833	-3
0.81200	-3
0.81567	-3
0.81933	-3
0.82300	-4
0.82667	-4
0.83033	-5
0.83400	-5
0.83767	-5
0.84133	-6
0.84500	-6
0.84867	-6
0.85233	-6
0.85600	-6
0.85967	-7
0.86333	-7
0.86700	-7
0.87067	-8
0.87433	-8
0.87800	-8
0.88167	-8
0.88533	-8
0.88900	-7
0.89267	-7
0.89633	-7
0.90000	-7
0.90367	-7
0.90733	-7
0.91100	-6
0.91467	-6
0.91833	-5
0.92200	-5
0.92567	-4
0.92933	-4
0.93300	-3
0.93667	-3
0.94033	-2
0.94400	-2
0.94767	-1
0.95133	-1
0.95500	-0
0.95867	0
0.96233	1
0.96600	1
0.96967	1
0.97333	2
0.97700	2
0.98067	2
0.98433	2
0.98800	2
0.99167	2
0.99533	2
0.99900	2
1.00267	2
1.00633	2
1.01000	2
1.01367	2
1.01733	2
1.02100	2
1.02467	1
1.02833	1
1.03200	-0
1.03567	-1
1.03933	-1
1.04300	-2
1.04667	-3
1.05033	-3
1.05400	-3
1.05767	-4
1.06133	-4
1.06500	-4
1.06867	-4
1.07233	-5
1.07600	-5
1.07967	-5
1.08333	-4
1.08700	-4
1.09067	-4
1.09433	-4
1.09800	-4
1.10167	-4
1.10533	-4
1.10900	-4
1.11267	-4
1.11633	-4
1.12000	-4
1.12367	-3
1.12733	-3
1.13100	-3
1.13467	-3
1.13833	-3
1.14200	-3
1.14567	-3
1.14933	-2
1.15300	-2
1.15667	-2
1.16033	-2
1.16400	-2
1.16767	-2
1.17133	-2
1.17500	-2
1.17867	-2
1.18233	-2
1.18600	-2
1.18967	-2
1.19333	-2
1.19700	-2
1.20067	-2
1.20433	-2
1.20800	-2
1.21167	-2
1.21533	-2
1.21900	-2
1.22267	-1
1.22633	-1
1.23000	-1
1.23367	-1
1.23733	-1
1.24100	-1
1.24467	-1
1.24833	-1
1.25200	-1
1.25567	-1
1.25933	-1
1.26300	-2
1.26667	-2
1.27033	-3
1.27400	-3
1.27767	-3
1.28133	-3
1.28500	-4
1.28867	-4
1.29233	-4
1.29600	-4
1.29967	-5
1.30333	-5
1.30700	-5
1.31067	-6
1.31433	-6
1.31800	-5
1.32167	-5
1.32533	-5
1.32900	-5
1.33267	-5
1.33633	-5
1.34000	-5
1.34367	-5
1.34733	-5
1.35100	-5
1.35467	-5
1.35833	-5
1.36200	-5
1.36567	-5
1.36933	-4
1.37300	-4
1.37667	-4
1.38033	-4
1.38400	-5
1.38767	-5
1.39133	-5
1.39500	-5
1.39867	-5
1.40233	-5
1.40600	-5
1.40967	-4
1.41333	-4
1.41700	-4
1.42067	-3
1.42433	-3
1.42800	-2
1.43167	-2
1.43533	-1
1.43900	-1
1.44267	-1
1.44633	-0
1.45000	-0
1.45367	-0
1.45733	-1
1.46100	-1
1.46467	-2
1.46833	-2
1.47200	-3
1.47567	-3
1.47933	-3
1.48300	-4
1.48667	-4
1.49033	-4
1.49400	-4
1.49767	-5
1.50133	-5
1.50500	-5
1.50867	-5
1.51233	-5
1.51600	-5
1.51967	-5
1.52333	-5
1.52700	-5
1.53067	-5
1.53433	-5
1.53800	-5
1.54167	-4
1.54533	-4
1.54900	-4
1.55267	-4
1.55633	-4
1.56000	-4
1.56367	-4
1.56733	-3
1.57100	-3
1.57467	-3
1.57833	-3
1.58200	-3
1.58567	-2
1.58933	-2
1.59300	-3
1.59667	-3
1.60033	-4
1.60400	-5
1.60767	-6
1.61133	-8
1.61500	-10
1.61867	-12
1.62233	-15
1.62600	-18
1.62967	-21
1.63333	-24
1.63700	-27
1.64067	-30
1.64433	-34
1.64800	-38
1.65167	-41
1.65533	-45
1.65900	-49
1.66267	-54
1.66633	-58
1.67000	-63
1.67367	-68
1.67733	-72
1.68100	-77
1.68467	-81
1.68833	-85
1.69200	-89
1.69567	-92
1.69933	-94
1.70300	-96
1.70667	-98
1.71033	-99
1.71400	-100
1.71767	-101
1.72133	-101
1.72500	-101
1.72867	-102
1.73233	-102
1.73600	-103
1.73967	-103
1.74333	-103
1.74700	-103
1.75067	-104
1.75433	-104
1.75800	-105
1.76167	-105
1.76533	-105
1.76900	-105
1.77267	-106
1.77633	-106
1.78000	-106
1.78367	-106
1.78733	-107
1.79100	-107
1.79467	-107
1.79833	-107
1.80200	-106
1.80567	-106
1.80933	-106
1.81300	-106
1.81667	-106
1.82033	-106
1.82400	-106
1.82767	-107
1.83133	-107
1.83500	-107
1.83867	-107
1.84233	-107
1.84600	-107
1.84967	-107
1.85333	-107
1.85700	-106
1.86067	-106
1.86433	-106
1.86800	-106
1.87167	-105
1.87533	-105
1.87900	-105
1.88267	-104
1.88633	-104
1.89000	-104
1.89367	-104
1.89733	-104
1.90100	-104
1.90467	-104
1.90833	-105
1.91200	-105
1.91567	-106
1.91933	-106
1.92300	-106
1.92667	-106
1.93033	-106
1.93400	-106
1.93767	-105
1.94133	-105
1.94500	-105
1.94867	-105
1.95233	-105
1.95600	-105
1.95967	-104
1.96333	-104
1.96700	-103
1.97067	-103
1.97433	-102
1.97800	-102
1.98167	-101
1.98533	-100
1.98900	-99
1.99267	-98
1.99633	-98
2.00000	-98
2.00367	-98
2.00733	-98
2.01100	-98
2.01467	-98
2.01833	-98
2.02200	-98
2.02567	-97
2.02933	-97
2.03300	-96
2.03667	-96
2.04033	-95
2.04400	-95
2.04767	-94
2.05133	-94
2.05500	-93
2.05867	-93
2.06233	-93
2.06600	-93
2.06967	-93
2.07333	-93
2.07700	-94
2.08067	-94
2.08433	-94
2.08800	-94
2.09167	-93
2.09533	-93
2.09900	-93
2.10267	-92
2.10633	-91
2.11000	-91
2.11367	-90
2.11733	-90
2.12100	-90
2.12467	-89
2.12833	-89
2.13200	-89
2.13567	-89
2.13933	-89
2.14300	-89
2.14667	-89
2.15033	-89
2.15400	-88
2.15767	-89
2.16133	-89
2.16500	-89
2.16867	-89
2.17233	-89
2.17600	-89
2.17967	-88
2.18333	-88
2.18700	-88
2.19067	-89
2.19433	-89
2.19800	-89
2.20167	-89
2.20533	-88
2.20900	-87
2.21267	-86
2.21633	-85
2.22000	-84
2.22367	-84
2.22733	-85
2.23100	-85
2.23467	-85
2.23833	-85
2.24200	-84
2.24567	-83
2.24933	-82
2.25300	-82
2.25667	-82
2.26033	-82
2.26400	-82
2.26767	-83
2.27133	-82
2.27500	-82
2.27867	-81
2.28233	-80
2.28600	-80
2.28967	-79
2.29333	-80
2.29700	-80
2.30067	-81
2.30433	-81
2.30800	-81
2.31167	-81
2.31533	-81
2.31900	-80
2.32267	-79
2.32633	-79
2.33000	-78
2.33367	-77
2.33733	-76
2.34100	-75
2.34467	-74
2.34833	-73
2.35200	-72
2.35567	-71
2.35933	-69
2.36300	-68
2.36667	-66
2.37033	-64
2.37400	-62
2.37767	-59
2.38133	-56
2.38500	-52
2.38867	-48
2.39233	-44
2.39600	-39
2.39967	-35
2.40333	-30
2.40700	-26
2.41067	-22
2.41433	-18
2.41800	-15
2.42167	-12
2.42533	-10
2.42900	-8
2.43267	-5
2.43633	-4
2.44000	-2
2.44367	-0
2.44733	1
2.45100	3
2.45467	4
2.45833	5
2.46200	6
2.46567	7
2.46933	7
2.47300	8
2.47667	8
2.48033	9
2.48400	9
2.48767	10
2.49133	10
2.49500	11
2.49867	11
2.50233	11
2.50600	10
2.50967	10
2.51333	10
2.51700	9
2.52067	9
2.52433	8
2.52800	8
2.53167	8
2.53533	8
2.53900	8
2.54267	8
2.54633	8
2.55000	8
2.55367	8
2.55733	9
2.56100	10
2.56467	11
2.56833	12
2.57200	13
2.57567	13
2.57933	14
2.58300	15
2.58667	15
2.59033	15
2.59400	16
2.59767	16
2.60133	16
2.60500	16
2.60867	16
2.61233	16
2.61600	16
2.61967	16
2.62333	15
2.62700	15
2.63067	16
2.63433	16
2.63800	16
2.64167	17
2.64533	17
2.64900	18
2.65267	18
2.65633	19
2.66000	19
2.66367	20
2.66733	20
2.67100	21
2.67467	21
2.67833	21
2.68200	21
2.68567	22
2.68933	22
2.69300	23
2.69667	23
2.70033	23
2.70400	23
2.70767	23
2.71133	24
2.71500	24
2.71867	24
2.72233	25
2.72600	25
2.72967	26
2.73333	26
2.73700	26
2.74067	26
2.74433	27
2.74800	27
2.75167	27
2.75533	26
2.75900	26
2.76267	25
2.76633	25
2.77000	25
2.77367	25
2.77733	25
2.78100	25
2.78467	25
2.78833	26
2.79200	26
2.79567	27
2.79933	27
2.80300	27
2.80667	28
2.81033	28
2.81400	28
2.81767	28
2.82133	28
2.82500	28
2.82867	27
2.83233	26
2.83600	26
2.83967	25
2.84333	25
2.84700	25
2.85067	25
2.85433	24
2.85800	24
2.86167	23
2.86533	21
2.86900	18
2.87267	12
2.87633	2
2.88000	-11
2.88367	-29
2.88733	-52
2.89100	-80
2.89467	-114
2.89833	-152
2.90200	-195
2.90567	-242
2.90933	-294
2.91300	-349
2.91667	-406
2.92033	-466
2.92400	-527
2.92767	-588
2.93133	-650
2.93500	-710
2.93867	-769
2.94233	-824
2.94600	-877
2.94967	-929
2.95333	-983
2.95700	-1038
2.96067	-1084
2.96433	-1111
2.96800	-1114
2.97167	-1092
2.97533	-1047
2.97900	-986
2.98267	-913
2.98633	-834
2.99000	-753
2.99367	-673
2.99733	-596
3.00100	-524
3.00467	-458
3.00833	-398
3.01200	-344
3.01567	-297
3.01933	-254
3.02300	-217
3.02667	-185
3.03033	-157
3.03400	-132
3.03767	-111
3.04133	-93
3.04500	-78
3.04867	-65
3.05233	-53
3.05600	-43
3.05967	-35
3.06333	-28
3.06700	-22
3.07067	-17
3.07433	-12
3.07800	-8
3.08167	-5
3.08533	-2
3.08900	0
3.09267	3
3.09633	4
3.10000	6
3.10367	8
3.10733	9
3.11100	10
3.11467	11
3.11833	11
3.12200	12
3.12567	13
3.12933	13
3.13300	14
3.13667	15
3.14033	16
3.14400	16
3.14767	17
3.15133	17
3.15500	18
3.15867	18
3.16233	18
3.16600	18
3.16967	19
3.17333	19
3.17700	19
3.18067	19
3.18433	19
3.18800	20
3.19167	20
3.19533	20
3.19900	20
3.20267	21
3.20633	21
3.21000	21
3.21367	21
3.21733	21
3.22100	21
3.22467	21
3.22833	21
3.23200	21
3.23567	21
3.23933	21
3.24300	21
3.24667	21
3.25033	21
3.25400	21
3.25767	21
3.26133	21
3.26500	21
3.26867	21
3.27233	22
3.27600	22
3.27967	22
3.28333	22
3.28700	22
3.29067	23
3.29433	23
3.29800	23
3.30167	23
3.30533	24
3.30900	24
3.31267	24
3.31633	24
3.32000	25
3.32367	24
3.32733	24
3.33100	25
3.33467	25
3.33833	25
3.34200	25
3.34567	25
3.34933	25
3.35300	25
3.35667	25
3.36033	25
3.36400	25
3.36767	25
3.37133	25
3.37500	25
3.37867	25
3.38233	25
3.38600	26
3.38967	26
3.39333	26
3.39700	26
3.40067	26
3.40433	25
3.40800	25
3.41167	25
3.41533	24
3.41900	24
3.42267	24
3.42633	24
3.43000	24
3.43367	24
3.43733	24
3.44100	24
3.44467	24
3.44833	24
3.45200	24
3.45567	24
3.45933	24
3.46300	25
3.46667	25
3.47033	25
3.47400	25
3.47767	25
3.48133	25
3.48500	25
3.48867	26
3.49233	26
3.49600	26
3.49967	27
3.50333	27
3.50700	27
3.51067	27
3.51433	27
3.51800	28
3.52167	28
3.52533	29
3.52900	29
3.53267	29
3.53633	29
3.54000	29
3.54367	29
3.54733	29
3.55100	28
3.55467	28
3.55833	28
3.56200	28
3.56567	28
3.56933	28
3.57300	28
3.57667	28
3.58033	27
3.58400	27
3.58767	27
3.59133	27
3.59500	27
3.59867	27
3.60233	27
3.60600	27
3.60967	27
3.61333	27
3.61700	27
3.62067	27
3.62433	27
3.62800	27
3.63167	27
3.63533	27
3.63900	27
3.64267	27
3.64633	27
3.65000	27
3.65367	27
3.65733	27
3.66100	27
3.66467	26
3.66833	26
3.67200	26
3.67567	27
3.67933	27
3.68300	27
3.68667	27
3.69033	27
3.69400	27
3.69767	27
3.70133	27
3.70500	27
3.70867	27
3.71233	27
3.71600	27
3.71967	27
3.72333	27
3.72700	27
3.73067	27
3.73433	27
3.73800	27
3.74167	27
3.74533	27
3.74900	27
3.75267	27
3.75633	26
3.76000	26
3.76367	26
3.76733	26
3.77100	26
3.77467	26
3.77833	26
3.78200	25
3.78567	25
3.78933	25
3.79300	26
3.79667	26
3.80033	26
3.80400	26
3.80767	26
3.81133	26
3.81500	26
3.81867	26
3.82233	26
3.82600	26
3.82967	26
3.83333	26
3.83700	26
3.84067	26
3.84433	26
3.84800	25
3.85167	25
3.85533	25
3.85900	25
3.86267	25
3.86633	25
3.87000	25
3.87367	25
3.87733	26
3.88100	26
3.88467	26
3.88833	26
3.89200	26
3.89567	26
3.89933	26
3.90300	26
3.90667	26
3.91033	26
3.91400	26
3.91767	26
3.92133	26
3.92500	25
3.92867	25
3.93233	25
3.93600	25
3.93967	25
3.94333	25
3.94700	25
3.95067	25
3.95433	25
3.95800	25
3.96167	25
3.96533	25
3.96900	25
3.97267	25
3.97633	25
3.98000	25
3.98367	25
3.98733	25
3.99100	25
3.99467	25
3.99833	25

[Chromatogram (Ch3)]
Interval(msec)	220
# of Points	1091
Start Time(min)	0.002
End Time(min)	3.998
R.Time (min)	Intensity
0.00167	-0
0.00533	-2
0.00900	-3
0.01267	-5
0.01633	-4
0.02000	-2
0.02367	-3
0.02733	-3
0.03100	-3
0.03467	-2
0.03833	-2
0.04200	-3
0.04567	-3
0.04933	-2
0.05300	-1
0.05667	-1
0.06033	1
0.06400	3
0.06767	4
0.07133	4
0.07500	2
0.07867	1
0.08233	3
0.08600	3
0.08967	2
0.09333	0
0.09700	0
0.10067	1
0.10433	1
0.10800	1
0.11167	0
0.11533	2
0.11900	3
0.12267	4
0.12633	5
0.13000	3
0.13367	3
0.13733	3
0.14100	4
0.14467	3
0.14833	3
0.15200	4
0.15567	5
0.15933	5
0.16300	4
0.16667	3
0.17033	0
0.17400	0
0.17767	2
0.18133	4
0.18500	3
0.18867	2
0.19233	0
0.19600	1
0.19967	0
0.20333	-0
0.20700	-0
0.21067	1
0.21433	3
0.21800	6
0.22167	7
0.22533	8
0.22900	7
0.23267	7
0.23633	5
0.24000	4
0.24367	4
0.24733	4
0.25100	4
0.25467	5
0.25833	6
0.26200	5
0.26567	5
0.26933	6
0.27300	8
0.27667	10
0.28033	9
0.28400	9
0.28767	11
0.29133	12
0.29500	11
0.29867	9
0.30233	8
0.30600	7
0.30967	6
0.31333	6
0.31700	5
0.32067	6
0.32433	8
0.32800	8
0.33167	10
0.33533	11
0.33900	9
0.34267	7
0.34633	7
0.35000	6
0.35367	5
0.35733	5
0.36100	6
0.36467	6
0.36833	6
0.37200	5
0.37567	5
0.37933	8
0.38300	9
0.38667	9
0.39033	11
0.39400	12
0.39767	13
0.40133	13
0.40500	12
0.40867	12
0.41233	11
0.41600	12
0.41967	13
0.42333	12
0.42700	9
0.43067	8
0.43433	8
0.43800	8
0.44167	10
0.44533	12
0.44900	14
0.45267	15
0.45633	13
0.46000	11
0.46367	9
0.46733	8
0.47100	8
0.47467	7
0.47833	6
0.48200	6
0.48567	5
0.48933	5
0.49300	6
0.49667	7
0.50033	7
0.50400	9
0.50767	12
0.51133	14
0.51500	16
0.51867	17
0.52233	16
0.52600	17
0.52967	17
0.53333	16
0.53700	15
0.54067	14
0.54433	12
0.54800	13
0.55167	15
0.55533	16
0.55900	16
0.56267	14
0.56633	12
0.57000	13
0.57367	11
0.57733	11
0.58100	12
0.58467	13
0.58833	12
0.59200	12
0.59567	13
0.59933	13
0.60300	13
0.60667	13
0.61033	13
0.61400	12
0.61767	10
0.62133	10
0.62500	12
0.62867	11
0.63233	10
0.63600	9
0.63967	10
0.64333	10
0.64700	11
0.65067	12
0.65433	13
0.65800	12
0.66167	12
0.66533	13
0.66900	14
0.67267	14
0.67633	14
0.68000	14
0.68367	15
0.68733	14
0.69100	13
0.69467	14
0.69833	15
0.70200	16
0.70567	17
0.70933	17
0.71300	16
0.71667	15
0.72033	15
0.72400	15
0.72767	14
0.73133	13
0.73500	12
0.73867	11
0.74233	12
0.74600	13
0.74967	13
0.75333	13
0.75700	14
0.76067	14
0.76433	12
0.76800	12
0.77167	14
0.77533	15
0.77900	17
0.78267	20
0.78633	20
0.79000	19
0.79367	18
0.79733	18
0.80100	17
0.80467	18
0.80833	17
0.81200	19
0.81567	20
0.81933	22
0.82300	20
0.82667	20
0.83033	20
0.83400	20
0.83767	21
0.84133	22
0.84500	22
0.84867	21
0.85233	20
0.85600	19
0.85967	20
0.86333	20
0.86700	19
0.87067	19
0.87433	21
0.87800	24
0.88167	24
0.88533	22
0.88900	21
0.89267	19
0.89633	20
0.90000	23
0.90367	24
0.90733	22
0.91100	20
0.91467	19
0.91833	19
0.92200	18
0.92567	19
0.92933	20
0.93300	20
0.93667	19
0.94033	17
0.94400	17
0.94767	18
0.95133	21
0.95500	24
0.95867	22
0.96233	20
0.96600	19
0.96967	21
0.97333	23
0.97700	26
0.98067	25
0.98433	25
0.98800	24
0.99167	22
0.99533	20
0.99900	20
1.00267	21
1.00633	20
1.01000	18
1.01367	17
1.01733	18
1.02100	18
1.02467	21
1.02833	24
1.03200	25
1.03567	24
1.03933	23
1.04300	22
1.04667	22
1.05033	21
1.05400	19
1.05767	18
1.06133	17
1.06500	20
1.06867	23
1.07233	25
1.07600	25
1.07967	25
1.08333	25
1.08700	25
1.09067	24
1.09433	23
1.09800	22
1.10167	22
1.10533	23
1.10900	23
1.11267	22
1.11633	22
1.12000	20
1.12367	20
1.12733	23
1.13100	24
1.13467	24
1.13833	25
1.14200	25
1.14567	24
1.14933	22
1.15300	21
1.15667	22
1.16033	22
1.16400	22
1.16767	24
1.17133	25
1.17500	26
1.17867	25
1.18233	25
1.18600	26
1.18967	26
1.19333	25
1.19700	23
1.20067	23
1.20433	23
1.20800	21
1.21167	20
1.21533	19
1.21900	20
1.22267	24
1.22633	25
1.23000	25
1.23367	26
1.23733	26
1.24100	26
1.24467	23
1.24833	21
1.25200	21
1.25567	22
1.25933	22
1.26300	21
1.26667	20
1.27033	20
1.27400	22
1.27767	22
1.28133	23
1.28500	23
1.28867	24
1.29233	26
1.29600	28
1.29967	31
1.30333	30
1.30700	27
1.31067	26
1.31433	25
1.31800	25
1.32167	25
1.32533	27
1.32900	28
1.33267	28
1.33633	27
1.34000	27
1.34367	27
1.34733	24
1.35100	22
1.35467	21
1.35833	22
1.36200	23
1.36567	26
1.36933	27
1.37300	28
1.37667	28
1.38033	28
1.38400	28
1.38767	27
1.39133	26
1.39500	25
1.39867	26
1.40233	27
1.40600	26
1.40967	24
1.41333	26
1.41700	28
1.42067	28
1.42433	28
1.42800	30
1.43167	32
1.43533	32
1.43900	30
1.44267	30
1.44633	30
1.45000	28
1.45367	29
1.45733	29
1.46100	28
1.46467	26
1.46833	24
1.47200	23
1.47567	21
1.47933	19
1.48300	21
1.48667	23
1.49033	25
1.49400	26
1.49767	26
1.50133	25
1.50500	24
1.50867	24
1.51233	24
1.51600	24
1.51967	24
1.52333	24
1.52700	26
1.53067	28
1.53433	28
1.53800	28
1.54167	24
1.54533	21
1.54900	21
1.55267	23
1.55633	25
1.56000	26
1.56367	29
1.56733	30
1.57100	30
1.57467	29
1.57833	27
1.58200	27
1.58567	28
1.58933	31
1.59300	32
1.59667	32
1.60033	30
1.60400	29
1.60767	28
1.61133	27
1.61500	28
1.61867	29
1.62233	31
1.62600	32
1.62967	31
1.63333	33
1.63700	32
1.64067	32
1.64433	33
1.64800	34
1.65167	34
1.65533	33
1.65900	31
1.66267	31
1.66633	31
1.67000	32
1.67367	34
1.67733	34
1.68100	34
1.68467	35
1.68833	36
1.69200	38
1.69567	40
1.69933	41
1.70300	39
1.70667	38
1.71033	37
1.71400	37
1.71767	39
1.72133	41
1.72500	41
1.72867	42
1.73233	42
1.73600	42
1.73967	42
1.74333	43
1.74700	44
1.75067	44
1.75433	45
1.75800	46
1.76167	47
1.76533	47
1.76900	48
1.77267	50
1.77633	51
1.78000	51
1.78367	51
1.78733	51
1.79100	51
1.79467	48
1.79833	46
1.80200	45
1.80567	44
1.80933	45
1.81300	48
1.81667	52
1.82033	55
1.82400	56
1.82767	56
1.83133	56
1.83500	57
1.83867	56
1.84233	56
1.84600	56
1.84967	53
1.85333	51
1.85700	52
1.86067	53
1.86433	54
1.86800	56
1.87167	58
1.87533	61
1.87900	63
1.88267	63
1.88633	63
1.89000	63
1.89367	61
1.89733	59
1.90100	60
1.90467	62
1.90833	66
1.91200	68
1.91567	70
1.91933	72
1.92300	71
1.92667	70
1.93033	69
1.93400	67
1.93767	67
1.94133	70
1.94500	72
1.94867	73
1.95233	74
1.95600	75
1.95967	76
1.96333	76
1.96700	77
1.97067	77
1.97433	77
1.97800	78
1.98167	81
1.98533	82
1.98900	83
1.99267	85
1.99633	85
2.00000	84
2.00367	85
2.00733	86
2.01100	87
2.01467	87
2.01833	89
2.02200	88
2.02567	85
2.02933	88
2.03300	94
2.03667	97
2.04033	97
2.04400	97
2.04767	97
2.05133	96
2.05500	95
2.05867	96
2.06233	97
2.06600	97
2.06967	97
2.07333	100
2.07700	102
2.08067	103
2.08433	104
2.08800	105
2.09167	107
2.09533	108
2.09900	107
2.10267	106
2.10633	105
2.11000	105
2.11367	106
2.11733	107
2.12100	106
2.12467	108
2.12833	110
2.13200	112
2.13567	113
2.13933	112
2.14300	114
2.14667	117
2.15033	119
2.15400	120
2.15767	120
2.16133	121
2.16500	122
2.16867	123
2.17233	123
2.17600	122
2.17967	124
2.18333	125
2.18700	125
2.19067	125
2.19433	124
2.19800	124
2.20167	126
2.20533	128
2.20900	129
2.21267	130
2.21633	131
2.22000	132
2.22367	133
2.22733	133
2.23100	133
2.23467	132
2.23833	132
2.24200	133
2.24567	134
2.24933	132
2.25300	132
2.25667	133
2.26033	134
2.26400	135
2.26767	136
2.27133	136
2.27500	138
2.27867	139
2.28233	139
2.28600	139
2.28967	142
2.29333	144
2.29700	145
2.30067	144
2.30433	141
2.30800	142
2.31167	142
2.31533	142
2.31900	143
2.32267	144
2.32633	144
2.33000	144
2.33367	146
2.33733	147
2.34100	146
2.34467	147
2.34833	148
2.35200	147
2.35567	145
2.35933	143
2.36300	141
2.36667	141
2.37033	143
2.37400	145
2.37767	144
2.38133	144
2.38500	143
2.38867	141
2.39233	140
2.39600	140
2.39967	142
2.40333	143
2.40700	144
2.41067	145
2.41433	144
2.41800	145
2.42167	148
2.42533	148
2.42900	148
2.43267	149
2.43633	149
2.44000	153
2.44367	194
2.44733	276
2.45100	357
2.45467	419
2.45833	449
2.46200	445
2.46567	424
2.46933	405
2.47300	399
2.47667	399
2.48033	403
2.48400	414
2.48767	434
2.49133	467
2.49500	512
2.49867	562
2.50233	611
2.50600	649
2.50967	675
2.51333	690
2.51700	699
2.52067	703
2.52433	705
2.52800	704
2.53167	706
2.53533	712
2.53900	717
2.54267	725
2.54633	734
2.55000	742
2.55367	749
2.55733	758
2.56100	769
2.56467	778
2.56833	788
2.57200	794
2.57567	796
2.57933	792
2.58300	785
2.58667	774
2.59033	761
2.59400	747
2.59767	733
2.60133	720
2.60500	709
2.60867	701
2.61233	694
2.61600	690
2.61967	684
2.62333	676
2.62700	669
2.63067	662
2.63433	655
2.63800	650
2.64167	644
2.64533	639
2.64900	637
2.65267	634
2.65633	632
2.66000	630
2.66367	629
2.66733	628
2.67100	628
2.67467	631
2.67833	637
2.68200	641
2.68567	643
2.68933	646
2.69300	652
2.69667	658
2.70033	662
2.70400	664
2.70767	664
2.71133	664
2.71500	667
2.71867	669
2.72233	670
2.72600	670
2.72967	670
2.73333	667
2.73700	665
2.74067	664
2.74433	660
2.74800	655
2.75167	650
2.75533	645
2.75900	640
2.76267	631
2.76633	622
2.77000	615
2.77367	611
2.77733	607
2.78100	604
2.78467	600
2.78833	595
2.79200	593
2.79567	591
2.79933	591
2.80300	591
2.80667	591
2.81033	588
2.81400	584
2.81767	582
2.82133	581
2.82500	580
2.82867	581
2.83233	585
2.83600	598
2.83967	630
2.84333	694
2.84700	812
2.85067	1012
2.85433	1317
2.85800	1741
2.86167	2272
2.86533	2890
2.86900	3556
2.87267	4213
2.87633	4807
2.88000	5290
2.88367	5628
2.88733	5806
2.89100	5823
2.89467	5703
2.89833	5475
2.90200	5169
2.90567	4814
2.90933	4436
2.91300	4056
2.91667	3686
2.92033	3337
2.92400	3013
2.92767	2717
2.93133	2449
2.93500	2209
2.93867	1996
2.94233	1807
2.94600	1643
2.94967	1501
2.95333	1379
2.95700	1273
2.96067	1180
2.96433	1099
2.96800	1029
2.97167	969
2.97533	915
2.97900	869
2.98267	830
2.98633	797
2.99000	768
2.99367	742
2.99733	721
3.00100	702
3.00467	687
3.00833	674
3.01200	664
3.01567	655
3.01933	648
3.02300	642
3.02667	634
3.03033	628
3.03400	623
3.03767	619
3.04133	615
3.04500	613
3.04867	613
3.05233	612
3.05600	613
3.05967	614
3.06333	613
3.06700	612
3.07067	611
3.07433	609
3.07800	608
3.08167	606
3.08533	604
3.08900	602
3.09267	602
3.09633	603
3.10000	604
3.10367	601
3.10733	597
3.11100	594
3.11467	592
3.11833	591
3.12200	593
3.12567	595
3.12933	595
3.13300	593
3.13667	592
3.14033	590
3.14400	590
3.14767	589
3.15133	588
3.15500	586
3.15867	584
3.16233	583
3.16600	584
3.16967	583
3.17333	584
3.17700	584
3.18067	583
3.18433	580
3.18800	577
3.19167	575
3.19533	575
3.19900	577
3.20267	579
3.20633	579
3.21000	578
3.21367	577
3.21733	576
3.22100	576
3.22467	575
3.22833	573
3.23200	571
3.23567	570
3.23933	570
3.24300	570
3.24667	569
3.25033	567
3.25400	565
3.25767	563
3.26133	560
3.26500	557
3.26867	557
3.27233	556
3.27600	559
3.27967	559
3.28333	557
3.28700	555
3.29067	554
3.29433	551
3.29800	549
3.30167	548
3.30533	547
3.30900	546
3.31267	543
3.31633	539
3.32000	536
3.32367	535
3.32733	533
3.33100	531
3.33467	526
3.33833	522
3.34200	520
3.34567	518
3.34933	517
3.35300	516
3.35667	514
3.36033	512
3.36400	511
3.36767	512
3.37133	510
3.37500	507
3.37867	505
3.38233	501
3.38600	498
3.38967	494
3.39333	492
3.39700	492
3.40067	492
3.40433	489
3.40800	487
3.41167	484
3.41533	482
3.41900	479
3.42267	477
3.42633	476
3.43000	474
3.43367	473
3.43733	473
3.44100	472
3.44467	469
3.44833	467
3.45200	462
3.45567	460
3.45933	460
3.46300	459
3.46667	458
3.47033	458
3.47400	456
3.47767	454
3.48133	451
3.48500	450
3.48867	449
3.49233	449
3.49600	445
3.49967	442
3.50333	439
3.50700	438
3.51067	437
3.51433	435
3.51800	435
3.52167	435
3.52533	433
3.52900	430
3.53267	428
3.53633	425
3.54000	423
3.54367	422
3.54733	419
3.55100	417
3.55467	418
3.55833	419
3.56200	418
3.56567	417
3.56933	414
3.57300	412
3.57667	409
3.58033	405
3.58400	402
3.58767	402
3.59133	402
3.59500	400
3.59867	400
3.60233	400
3.60600	399
3.60967	399
3.61333	397
3.61700	395
3.62067	391
3.62433	389
3.62800	389
3.63167	388
3.63533	385
3.63900	384
3.64267	384
3.64633	385
3.65000	384
3.65367	383
3.65733	381
3.66100	378
3.66467	378
3.66833	379
3.67200	378
3.67567	376
3.67933	373
3.68300	372
3.68667	371
3.69033	369
3.69400	368
3.69767	366
3.70133	364
3.70500	364
3.70867	363
3.71233	363
3.71600	364
3.71967	366
3.72333	367
3.72700	366
3.73067	365
3.73433	362
3.73800	359
3.74167	357
3.74533	356
3.74900	357
3.75267	358
3.75633	357
3.76000	356
3.76367	356
3.76733	354
3.77100	353
3.77467	353
3.77833	351
3.78200	349
3.78567	348
3.78933	347
3.79300	346
3.79667	345
3.80033	344
3.80400	341
3.80767	339
3.81133	337
3.81500	335
3.81867	331
3.82233	330
3.82600	330
3.82967	330
3.83333	329
3.83700	328
3.84067	326
3.84433	325
3.84800	324
3.85167	323
3.85533	321
3.85900	319
3.86267	317
3.86633	317
3.87000	318
3.87367	318
3.87733	316
3.88100	316
3.88467	313
3.88833	312
3.89200	311
3.89567	310
3.89933	309
3.90300	308
3.90667	306
3.91033	305
3.91400	304
3.91767	304
3.92133	302
3.92500	299
3.92867	296
3.93233	294
3.93600	292
3.93967	290
3.94333	289
3.94700	288
3.95067	287
3.95433	287
3.95800	288
3.96167	289
3.96533	288
3.96900	285
3.97267	280
3.97633	277
3.98000	274
3.98367	275
3.98733	276
3.99100	276
3.99467	274
3.99833	271

[Status Trace (Column Oven Temperature)]
Interval(msec)	1000
# of Points	240
Start Time(min)	0.016
End Time(min)	4.000
Intensity Units	
Intensity Multiplier	1
R.Time (min)	Intensity
0.01638	35.06
0.03305	35.06
0.04972	35.04
0.06638	35.03
0.08305	35.02
0.09972	35.02
0.11638	35.02
0.13305	35.01
0.14972	35.02
0.16638	35.02
0.18305	35.02
0.19972	35.01
0.21638	35.01
0.23305	35.01
0.24972	35.01
0.26638	35.01
0.28305	35.01
0.29972	35.00
0.31638	35.00
0.33305	35.01
0.34972	35.01
0.36638	35.01
0.38305	35.02
0.39972	35.03
0.41638	35.02
0.43305	35.01
0.44972	35.01
0.46638	35.00
0.48305	35.00
0.49972	35.00
0.51638	35.00
0.53305	35.00
0.54972	35.01
0.56638	35.01
0.58305	35.02
0.59972	35.01
0.61638	35.02
0.63305	35.02
0.64972	35.02
0.66638	35.03
0.68305	35.02
0.69972	35.01
0.71638	35.01
0.73305	35.01
0.74972	34.99
0.76638	34.98
0.78305	34.99
0.79972	34.99
0.81638	35.02
0.83305	35.03
0.84972	35.05
0.86638	35.07
0.88305	35.09
0.89972	35.10
0.91638	35.10
0.93305	35.10
0.94972	35.08
0.96638	35.05
0.98305	35.02
0.99972	35.00
1.01638	35.00
1.03305	35.00
1.04972	35.02
1.06638	35.03
1.08305	35.04
1.09972	35.03
1.11638	35.04
1.13305	35.03
1.14972	35.02
1.16638	35.02
1.18305	35.01
1.19972	35.00
1.21638	35.00
1.23305	34.99
1.24972	34.99
1.26638	34.99
1.28305	35.00
1.29972	35.00
1.31638	35.00
1.33305	35.00
1.34972	35.01
1.36638	35.01
1.38305	35.02
1.39972	35.02
1.41638	35.01
1.43305	34.99
1.44972	34.98
1.46638	34.98
1.48305	34.98
1.49972	34.99
1.51638	35.00
1.53305	35.00
1.54972	34.99
1.56638	34.98
1.58305	34.99
1.59972	35.01
1.61638	35.09
1.63305	35.23
1.64972	35.45
1.66638	35.74
1.68305	36.11
1.69972	36.48
1.71638	36.81
1.73305	37.16
1.74972	37.49
1.76638	37.82
1.78305	38.16
1.79972	38.48
1.81638	38.82
1.83305	39.15
1.84972	39.49
1.86638	39.80
1.88305	40.12
1.89972	40.44
1.91638	40.77
1.93305	41.09
1.94972	41.43
1.96638	41.76
1.98305	42.07
1.99972	42.39
2.01638	42.72
2.03305	43.02
2.04972	43.34
2.06638	43.66
2.08305	44.00
2.09972	44.32
2.11638	44.66
2.13305	44.98
2.14972	45.31
2.16638	45.63
2.18305	45.97
2.19972	46.31
2.21638	46.64
2.23305	46.98
2.24972	47.30
2.26638	47.65
2.28305	47.96
2.29972	48.34
2.31638	48.67
2.33305	48.99
2.34972	49.29
2.36638	49.53
2.38305	49.63
2.39972	49.65
2.41638	49.65
2.43305	49.66
2.44972	49.65
2.46638	49.66
2.48305	49.67
2.49972	49.69
2.51638	49.72
2.53305	49.73
2.54972	49.76
2.56638	49.77
2.58305	49.78
2.59972	49.78
2.61638	49.80
2.63305	49.81
2.64972	49.82
2.66638	49.84
2.68305	49.83
2.69972	49.85
2.71638	49.85
2.73305	49.85
2.74972	49.85
2.76638	49.87
2.78305	49.87
2.79972	49.85
2.81638	49.85
2.83305	49.88
2.84972	49.89
2.86638	49.89
2.88305	49.89
2.89972	49.89
2.91638	49.90
2.93305	49.90
2.94972	49.93
2.96638	49.93
2.98305	49.94
2.99972	49.95
3.01638	49.96
3.03305	49.97
3.04972	49.98
3.06638	50.00
3.08305	50.00
3.09972	50.01
3.11638	50.01
3.13305	50.01
3.14972	50.01
3.16638	50.01
3.18305	50.03
3.19972	50.03
3.21638	50.04
3.23305	50.04
3.24972	50.05
3.26638	50.06
3.28305	50.06
3.29972	50.07
3.31638	50.07
3.33305	50.08
3.34972	50.07
3.36638	50.08
3.38305	50.08
3.39972	50.09
3.41638	50.10
3.43305	50.11
3.44972	50.12
3.46638	50.11
3.48305	50.11
3.49972	50.09
3.51638	50.07
3.53305	50.05
3.54972	50.04
3.56638	50.04
3.58305	50.04
3.59972	50.03
3.61638	50.04
3.63305	50.03
3.64972	50.03
3.66638	50.04
3.68305	50.04
3.69972	50.02
3.71638	50.02
3.73305	50.02
3.74972	50.02
3.76638	50.03
3.78305	50.04
3.79972	50.04
3.81638	50.04
3.83305	50.03
3.84972	50.03
3.86638	50.03
3.88305	50.03
3.89972	50.03
3.91638	50.02
3.93305	50.02
3.94972	50.03
3.96638	50.04
3.98305	50.05
3.99972	50.05

[Status Trace (Injection Unit Temperature)]
Interval(msec)	1000
# of Points	240
Start Time(min)	0.016
End Time(min)	4.000
Intensity Units	
Intensity Multiplier	1
R.Time (min)	Intensity
0.01638	99.98
0.03305	99.99
0.04972	99.98
0.06638	99.98
0.08305	99.98
0.09972	99.98
0.11638	99.98
0.13305	99.99
0.14972	99.99
0.16638	99.99
0.18305	99.99
0.19972	99.99
0.21638	99.99
0.23305	99.99
0.24972	99.99
0.26638	99.99
0.28305	99.99
0.29972	99.99
0.31638	99.99
0.33305	99.99
0.34972	99.99
0.36638	99.99
0.38305	99.99
0.39972	99.99
0.41638	99.99
0.43305	99.99
0.44972	99.99
0.46638	99.99
0.48305	99.99
0.49972	99.98
0.51638	99.98
0.53305	99.99
0.54972	99.99
0.56638	99.99
0.58305	99.99
0.59972	99.99
0.61638	99.99
0.63305	99.99
0.64972	99.99
0.66638	99.99
0.68305	99.98
0.69972	99.99
0.71638	99.99
0.73305	99.99
0.74972	99.99
0.76638	99.99
0.78305	99.99
0.79972	99.99
0.81638	99.99
0.83305	99.99
0.84972	99.99
0.86638	99.99
0.88305	99.99
0.89972	99.99
0.91638	99.99
0.93305	99.99
0.94972	99.99
0.96638	99.99
0.98305	99.99
0.99972	99.99
1.01638	99.99
1.03305	99.98
1.04972	99.99
1.06638	99.99
1.08305	99.99
1.09972	99.99
1.11638	99.99
1.13305	99.98
1.14972	99.98
1.16638	99.99
1.18305	99.98
1.19972	99.99
1.21638	99.99
1.23305	99.98
1.24972	99.99
1.26638	99.98
1.28305	99.99
1.29972	99.98
1.31638	99.99
1.33305	99.99
1.34972	99.98
1.36638	99.98
1.38305	99.98
1.39972	99.98
1.41638	99.99
1.43305	99.99
1.44972	99.98
1.46638	99.98
1.48305	99.99
1.49972	99.99
1.51638	99.99
1.53305	99.99
1.54972	99.99
1.56638	99.99
1.58305	99.99
1.59972	99.99
1.61638	99.99
1.63305	99.99
1.64972	99.98
1.66638	99.98
1.68305	99.99
1.69972	99.99
1.71638	99.99
1.73305	99.99
1.74972	99.99
1.76638	99.99
1.78305	99.99
1.79972	99.99
1.81638	99.99
1.83305	99.99
1.84972	99.99
1.86638	99.99
1.88305	99.98
1.89972	99.99
1.91638	99.98
1.93305	99.98
1.94972	99.98
1.96638	99.98
1.98305	99.98
1.99972	99.98
2.01638	99.98
2.03305	99.98
2.04972	99.97
2.06638	99.98
2.08305	99.98
2.09972	99.97
2.11638	99.97
2.13305	99.97
2.14972	99.97
2.16638	99.97
2.18305	99.97
2.19972	99.97
2.21638	99.97
2.23305	99.97
2.24972	99.97
2.26638	99.97
2.28305	99.97
2.29972	99.97
2.31638	99.96
2.33305	99.97
2.34972	99.97
2.36638	99.97
2.38305	99.97
2.39972	99.97
2.41638	99.97
2.43305	99.97
2.44972	99.97
2.46638	99.97
2.48305	99.98
2.49972	99.97
2.51638	99.97
2.53305	99.97
2.54972	99.97
2.56638	99.97
2.58305	99.98
2.59972	99.98
2.61638	99.97
2.63305	99.98
2.64972	99.98
2.66638	99.98
2.68305	99.98
2.69972	99.98
2.71638	99.98
2.73305	99.98
2.74972	99.99
2.76638	99.99
2.78305	99.99
2.79972	99.99
2.81638	99.99
2.83305	99.99
2.84972	100.00
2.86638	99.99
2.88305	100.00
2.89972	100.00
2.91638	100.00
2.93305	100.00
2.94972	100.01
2.96638	100.01
2.98305	100.01
2.99972	100.01
3.01638	100.01
3.03305	100.01
3.04972	100.01
3.06638	100.01
3.08305	100.02
3.09972	100.01
3.11638	100.02
3.13305	100.02
3.14972	100.02
3.16638	100.02
3.18305	100.02
3.19972	100.02
3.21638	100.02
3.23305	100.02
3.24972	100.03
3.26638	100.02
3.28305	100.03
3.29972	100.03
3.31638	100.03
3.33305	100.03
3.34972	100.03
3.36638	100.03
3.38305	100.03
3.39972	100.03
3.41638	100.03
3.43305	100.03
3.44972	100.03
3.46638	100.03
3.48305	100.03
3.49972	100.03
3.51638	100.03
3.53305	100.03
3.54972	100.04
3.56638	100.03
3.58305	100.03
3.59972	100.03
3.61638	100.03
3.63305	100.03
3.64972	100.04
3.66638	100.04
3.68305	100.04
3.69972	100.04
3.71638	100.04
3.73305	100.04
3.74972	100.04
3.76638	100.04
3.78305	100.04
3.79972	100.04
3.81638	100.04
3.83305	100.04
3.84972	100.04
3.86638	100.04
3.88305	100.04
3.89972	100.04
3.91638	100.04
3.93305	100.05
3.94972	100.04
3.96638	100.05
3.98305	100.05
3.99972	100.05

[Status Trace (Carrier Gas Pressure)]
Interval(msec)	1000
# of Points	240
Start Time(min)	0.016
End Time(min)	4.000
Intensity Units	
Intensity Multiplier	1
R.Time (min)	Intensity
0.01638	56.76
0.03305	55.87
0.04972	58.31
0.06638	59.89
0.08305	58.44
0.09972	57.97
0.11638	58.00
0.13305	58.01
0.14972	58.01
0.16638	58.00
0.18305	58.00
0.19972	58.00
0.21638	58.00
0.23305	58.00
0.24972	58.00
0.26638	58.00
0.28305	58.00
0.29972	58.00
0.31638	58.00
0.33305	58.00
0.34972	58.00
0.36638	58.00
0.38305	58.00
0.39972	58.00
0.41638	58.00
0.43305	58.00
0.44972	58.00
0.46638	58.00
0.48305	58.00
0.49972	58.00
0.51638	58.00
0.53305	58.00
0.54972	58.00
0.56638	58.00
0.58305	58.00
0.59972	58.00
0.61638	58.00
0.63305	58.00
0.64972	58.00
0.66638	58.00
0.68305	58.00
0.69972	58.00
0.71638	58.00
0.73305	58.00
0.74972	58.00
0.76638	58.00
0.78305	58.00
0.79972	58.00
0.81638	58.00
0.83305	58.00
0.84972	58.00
0.86638	58.00
0.88305	58.00
0.89972	58.00
0.91638	58.00
0.93305	58.00
0.94972	58.00
0.96638	58.00
0.98305	58.00
0.99972	58.00
1.01638	58.00
1.03305	58.00
1.04972	58.00
1.06638	58.00
1.08305	58.00
1.09972	58.00
1.11638	58.00
1.13305	58.00
1.14972	58.00
1.16638	58.00
1.18305	58.00
1.19972	58.00
1.21638	58.00
1.23305	58.00
1.24972	58.00
1.26638	58.00
1.28305	58.00
1.29972	58.00
1.31638	58.00
1.33305	58.00
1.34972	58.00
1.36638	58.00
1.38305	58.00
1.39972	58.00
1.41638	58.00
1.43305	58.00
1.44972	58.00
1.46638	58.00
1.48305	58.00
1.49972	58.00
1.51638	58.00
1.53305	58.00
1.54972	58.00
1.56638	58.00
1.58305	58.00
1.59972	58.00
1.61638	58.00
1.63305	58.00
1.64972	58.00
1.66638	58.01
1.68305	58.01
1.69972	58.00
1.71638	58.00
1.73305	58.00
1.74972	58.00
1.76638	58.00
1.78305	58.00
1.79972	58.00
1.81638	58.00
1.83305	58.00
1.84972	58.00
1.86638	58.00
1.88305	58.00
1.89972	58.00
1.91638	58.00
1.93305	58.00
1.94972	58.00
1.96638	58.00
1.98305	58.00
1.99972	58.00
2.01638	58.00
2.03305	58.00
2.04972	58.00
2.06638	58.00
2.08305	58.00
2.09972	58.00
2.11638	58.00
2.13305	58.00
2.14972	58.00
2.16638	58.00
2.18305	58.00
2.19972	58.00
2.21638	58.00
2.23305	58.00
2.24972	58.00
2.26638	58.00
2.28305	58.00
2.29972	58.00
2.31638	58.00
2.33305	58.00
2.34972	58.00
2.36638	58.00
2.38305	57.99
2.39972	57.99
2.41638	58.00
2.43305	58.00
2.44972	58.00
2.46638	58.00
2.48305	58.00
2.49972	58.00
2.51638	57.99
2.53305	57.99
2.54972	58.00
2.56638	58.00
2.58305	58.00
2.59972	58.00
2.61638	58.00
2.63305	58.00
2.64972	58.00
2.66638	58.00
2.68305	58.00
2.69972	58.00
2.71638	58.00
2.73305	58.00
2.74972	58.00
2.76638	58.00
2.78305	58.00
2.79972	58.00
2.81638	58.00
2.83305	58.00
2.84972	58.00
2.86638	58.00
2.88305	58.00
2.89972	58.00
2.91638	58.00
2.93305	58.00
2.94972	58.00
2.96638	58.00
2.98305	58.00
2.99972	58.00
3.01638	58.00
3.03305	58.00
3.04972	58.00
3.06638	58.00
3.08305	58.00
3.09972	58.00
3.11638	58.00
3.13305	58.00
3.14972	58.00
3.16638	58.00
3.18305	58.00
3.19972	58.00
3.21638	58.00
3.23305	58.00
3.24972	58.00
3.26638	58.00
3.28305	58.00
3.29972	58.00
3.31638	58.00
3.33305	58.00
3.34972	58.00
3.36638	58.00
3.38305	58.00
3.39972	58.00
3.41638	58.00
3.43305	58.00
3.44972	58.00
3.46638	58.00
3.48305	58.00
3.49972	58.00
3.51638	58.00
3.53305	58.00
3.54972	58.00
3.56638	58.00
3.58305	58.00
3.59972	58.00
3.61638	58.00
3.63305	58.00
3.64972	58.00
3.66638	58.00
3.68305	58.00
3.69972	58.00
3.71638	58.00
3.73305	58.00
3.74972	58.00
3.76638	58.00
3.78305	58.00
3.79972	58.00
3.81638	58.00
3.83305	58.00
3.84972	58.00
3.86638	58.00
3.88305	58.00
3.89972	58.00
3.91638	58.00
3.93305	58.00
3.94972	58.00
3.96638	58.00
3.98305	58.00
3.99972	58.00

[Status Trace (Carrier Gas Flow)]
Interval(msec)	1000
# of Points	240
Start Time(min)	0.016
End Time(min)	4.000
Intensity Units	
Intensity Multiplier	1
R.Time (min)	Intensity
0.01638	33.76
0.03305	34.54
0.04972	34.55
0.06638	34.49
0.08305	34.52
0.09972	34.52
0.11638	34.52
0.13305	34.52
0.14972	34.52
0.16638	34.52
0.18305	34.52
0.19972	34.51
0.21638	34.52
0.23305	34.52
0.24972	34.51
0.26638	34.52
0.28305	34.52
0.29972	34.51
0.31638	34.52
0.33305	34.52
0.34972	34.52
0.36638	34.52
0.38305	34.52
0.39972	34.52
0.41638	34.52
0.43305	34.52
0.44972	34.53
0.46638	34.52
0.48305	34.52
0.49972	34.52
0.51638	34.52
0.53305	34.52
0.54972	34.51
0.56638	34.52
0.58305	34.52
0.59972	34.52
0.61638	34.52
0.63305	34.52
0.64972	34.52
0.66638	34.52
0.68305	34.52
0.69972	34.52
0.71638	34.52
0.73305	34.52
0.74972	34.52
0.76638	34.52
0.78305	34.52
0.79972	34.52
0.81638	34.52
0.83305	34.52
0.84972	34.52
0.86638	34.52
0.88305	34.52
0.89972	34.52
0.91638	34.52
0.93305	34.52
0.94972	34.52
0.96638	34.52
0.98305	34.51
0.99972	34.52
1.01638	34.52
1.03305	34.52
1.04972	34.52
1.06638	34.51
1.08305	34.52
1.09972	34.52
1.11638	34.52
1.13305	34.52
1.14972	34.52
1.16638	34.51
1.18305	34.53
1.19972	34.52
1.21638	34.51
1.23305	34.52
1.24972	34.53
1.26638	34.53
1.28305	34.52
1.29972	34.52
1.31638	34.52
1.33305	34.52
1.34972	34.51
1.36638	34.52
1.38305	34.52
1.39972	34.51
1.41638	34.52
1.43305	34.52
1.44972	34.52
1.46638	34.51
1.48305	34.52
1.49972	34.52
1.51638	34.52
1.53305	34.51
1.54972	34.52
1.56638	34.52
1.58305	34.51
1.59972	34.51
1.61638	34.53
1.63305	34.52
1.64972	34.52
1.66638	34.52
1.68305	34.52
1.69972	34.51
1.71638	34.52
1.73305	34.52
1.74972	34.52
1.76638	34.52
1.78305	34.52
1.79972	34.53
1.81638	34.52
1.83305	34.51
1.84972	34.52
1.86638	34.52
1.88305	34.52
1.89972	34.51
1.91638	34.52
1.93305	34.52
1.94972	34.52
1.96638	34.52
1.98305	34.52
1.99972	34.52
2.01638	34.52
2.03305	34.52
2.04972	34.52
2.06638	34.51
2.08305	34.51
2.09972	34.52
2.11638	34.52
2.13305	34.52
2.14972	34.52
2.16638	34.52
2.18305	34.52
2.19972	34.51
2.21638	34.52
2.23305	34.52
2.24972	34.52
2.26638	34.52
2.28305	34.52
2.29972	34.52
2.31638	34.52
2.33305	34.51
2.34972	34.52
2.36638	34.52
2.38305	34.52
2.39972	34.52
2.41638	34.52
2.43305	34.52
2.44972	34.52
2.46638	34.52
2.48305	34.52
2.49972	34.52
2.51638	34.52
2.53305	34.52
2.54972	34.51
2.56638	34.52
2.58305	34.52
2.59972	34.52
2.61638	34.52
2.63305	34.51
2.64972	34.52
2.66638	34.53
2.68305	34.51
2.69972	34.52
2.71638	34.52
2.73305	34.53
2.74972	34.52
2.76638	34.52
2.78305	34.51
2.79972	34.52
2.81638	34.51
2.83305	34.51
2.84972	34.52
2.86638	34.51
2.88305	34.52
2.89972	34.52
2.91638	34.52
2.93305	34.51
2.94972	34.52
2.96638	34.53
2.98305	34.52
2.99972	34.51
3.01638	34.52
3.03305	34.52
3.04972	34.52
3.06638	34.52
3.08305	34.51
3.09972	34.51
3.11638	34.51
3.13305	34.52
3.14972	34.52
3.16638	34.52
3.18305	34.52
3.19972	34.52
3.21638	34.52
3.23305	34.52
3.24972	34.52
3.26638	34.52
3.28305	34.52
3.29972	34.52
3.31638	34.52
3.33305	34.52
3.34972	34.51
3.36638	34.51
3.38305	34.51
3.39972	34.52
3.41638	34.52
3.43305	34.51
3.44972	34.53
3.46638	34.52
3.48305	34.51
3.49972	34.51
3.51638	34.52
3.53305	34.52
3.54972	34.52
3.56638	34.52
3.58305	34.51
3.59972	34.52
3.61638	34.52
3.63305	34.52
3.64972	34.52
3.66638	34.52
3.68305	34.53
3.69972	34.51
3.71638	34.53
3.73305	34.51
3.74972	34.51
3.76638	34.53
3.78305	34.52
3.79972	34.52
3.81638	34.52
3.83305	34.53
3.84972	34.51
3.86638	34.53
3.88305	34.51
3.89972	34.52
3.91638	34.52
3.93305	34.52
3.94972	34.52
3.96638	34.51
3.98305	34.51
3.99972	34.52

[Status Trace (Column Flow)]
Interval(msec)	1000
# of Points	240
Start Time(min)	0.016
End Time(min)	4.000
Intensity Units	
Intensity Multiplier	1
R.Time (min)	Intensity
0.01638	5.39
0.03305	5.28
0.04972	5.57
0.06638	5.75
0.08305	5.58
0.09972	5.53
0.11638	5.53
0.13305	5.53
0.14972	5.53
0.16638	5.53
0.18305	5.53
0.19972	5.53
0.21638	5.53
0.23305	5.53
0.24972	5.53
0.26638	5.53
0.28305	5.53
0.29972	5.53
0.31638	5.53
0.33305	5.53
0.34972	5.53
0.36638	5.53
0.38305	5.53
0.39972	5.53
0.41638	5.53
0.43305	5.53
0.44972	5.53
0.46638	5.53
0.48305	5.53
0.49972	5.53
0.51638	5.53
0.53305	5.53
0.54972	5.53
0.56638	5.53
0.58305	5.53
0.59972	5.53
0.61638	5.53
0.63305	5.53
0.64972	5.53
0.66638	5.53
0.68305	5.53
0.69972	5.53
0.71638	5.53
0.73305	5.53
0.74972	5.53
0.76638	5.53
0.78305	5.53
0.79972	5.53
0.81638	5.53
0.83305	5.53
0.84972	5.53
0.86638	5.53
0.88305	5.53
0.89972	5.53
0.91638	5.53
0.93305	5.53
0.94972	5.53
0.96638	5.53
0.98305	5.53
0.99972	5.53
1.01638	5.53
1.03305	5.53
1.04972	5.53
1.06638	5.53
1.08305	5.53
1.09972	5.53
1.11638	5.53
1.13305	5.53
1.14972	5.53
1.16638	5.53
1.18305	5.53
1.19972	5.53
1.21638	5.53
1.23305	5.53
1.24972	5.53
1.26638	5.53
1.28305	5.53
1.29972	5.53
1.31638	5.53
1.33305	5.53
1.34972	5.53
1.36638	5.53
1.38305	5.53
1.39972	5.53
1.41638	5.53
1.43305	5.53
1.44972	5.53
1.46638	5.53
1.48305	5.53
1.49972	5.53
1.51638	5.53
1.53305	5.53
1.54972	5.53
1.56638	5.53
1.58305	5.53
1.59972	5.53
1.61638	5.53
1.63305	5.53
1.64972	5.52
1.66638	5.51
1.68305	5.50
1.69972	5.49
1.71638	5.48
1.73305	5.47
1.74972	5.45
1.76638	5.44
1.78305	5.43
1.79972	5.42
1.81638	5.41
1.83305	5.40
1.84972	5.39
1.86638	5.38
1.88305	5.37
1.89972	5.37
1.91638	5.36
1.93305	5.35
1.94972	5.34
1.96638	5.33
1.98305	5.32
1.99972	5.31
2.01638	5.30
2.03305	5.29
2.04972	5.28
2.06638	5.27
2.08305	5.26
2.09972	5.25
2.11638	5.24
2.13305	5.23
2.14972	5.22
2.16638	5.21
2.18305	5.20
2.19972	5.19
2.21638	5.18
2.23305	5.17
2.24972	5.16
2.26638	5.15
2.28305	5.15
2.29972	5.14
2.31638	5.13
2.33305	5.12
2.34972	5.11
2.36638	5.10
2.38305	5.10
2.39972	5.10
2.41638	5.10
2.43305	5.10
2.44972	5.10
2.46638	5.10
2.48305	5.10
2.49972	5.10
2.51638	5.10
2.53305	5.10
2.54972	5.10
2.56638	5.09
2.58305	5.09
2.59972	5.09
2.61638	5.09
2.63305	5.09
2.64972	5.09
2.66638	5.09
2.68305	5.09
2.69972	5.09
2.71638	5.09
2.73305	5.09
2.74972	5.09
2.76638	5.09
2.78305	5.09
2.79972	5.09
2.81638	5.09
2.83305	5.09
2.84972	5.09
2.86638	5.09
2.88305	5.09
2.89972	5.09
2.91638	5.09
2.93305	5.09
2.94972	5.09
2.96638	5.09
2.98305	5.09
2.99972	5.09
3.01638	5.09
3.03305	5.09
3.04972	5.09
3.06638	5.09
3.08305	5.09
3.09972	5.09
3.11638	5.09
3.13305	5.09
3.14972	5.09
3.16638	5.09
3.18305	5.09
3.19972	5.09
3.21638	5.09
3.23305	5.09
3.24972	5.09
3.26638	5.09
3.28305	5.09
3.29972	5.09
3.31638	5.09
3.33305	5.09
3.34972	5.09
3.36638	5.09
3.38305	5.09
3.39972	5.09
3.41638	5.09
3.43305	5.09
3.44972	5.08
3.46638	5.09
3.48305	5.09
3.49972	5.09
3.51638	5.09
3.53305	5.09
3.54972	5.09
3.56638	5.09
3.58305	5.09
3.59972	5.09
3.61638	5.09
3.63305	5.09
3.64972	5.09
3.66638	5.09
3.68305	5.09
3.69972	5.09
3.71638	5.09
3.73305	5.09
3.74972	5.09
3.76638	5.09
3.78305	5.09
3.79972	5.09
3.81638	5.09
3.83305	5.09
3.84972	5.09
3.86638	5.09
3.88305	5.09
3.89972	5.09
3.91638	5.09
3.93305	5.09
3.94972	5.09
3.96638	5.09
3.98305	5.09
3.99972	5.09

[Status Trace (Linear Velocity)]
Interval(msec)	1000
# of Points	240
Start Time(min)	0.016
End Time(min)	4.000
Intensity Units	
Intensity Multiplier	1
R.Time (min)	Intensity
0.01638	38.20
0.03305	37.61
0.04972	39.22
0.06638	40.25
0.08305	39.30
0.09972	39.00
0.11638	39.02
0.13305	39.02
0.14972	39.02
0.16638	39.02
0.18305	39.02
0.19972	39.02
0.21638	39.02
0.23305	39.02
0.24972	39.02
0.26638	39.02
0.28305	39.02
0.29972	39.02
0.31638	39.02
0.33305	39.02
0.34972	39.02
0.36638	39.02
0.38305	39.02
0.39972	39.02
0.41638	39.02
0.43305	39.02
0.44972	39.02
0.46638	39.02
0.48305	39.02
0.49972	39.02
0.51638	39.02
0.53305	39.02
0.54972	39.02
0.56638	39.02
0.58305	39.02
0.59972	39.02
0.61638	39.02
0.63305	39.02
0.64972	39.02
0.66638	39.02
0.68305	39.02
0.69972	39.02
0.71638	39.02
0.73305	39.02
0.74972	39.02
0.76638	39.02
0.78305	39.02
0.79972	39.02
0.81638	39.02
0.83305	39.02
0.84972	39.01
0.86638	39.01
0.88305	39.01
0.89972	39.01
0.91638	39.01
0.93305	39.01
0.94972	39.01
0.96638	39.01
0.98305	39.02
0.99972	39.02
1.01638	39.02
1.03305	39.02
1.04972	39.02
1.06638	39.02
1.08305	39.01
1.09972	39.02
1.11638	39.02
1.13305	39.02
1.14972	39.02
1.16638	39.02
1.18305	39.02
1.19972	39.02
1.21638	39.02
1.23305	39.02
1.24972	39.02
1.26638	39.02
1.28305	39.02
1.29972	39.02
1.31638	39.02
1.33305	39.02
1.34972	39.02
1.36638	39.02
1.38305	39.02
1.39972	39.02
1.41638	39.02
1.43305	39.02
1.44972	39.02
1.46638	39.02
1.48305	39.02
1.49972	39.02
1.51638	39.02
1.53305	39.02
1.54972	39.02
1.56638	39.02
1.58305	39.02
1.59972	39.02
1.61638	39.01
1.63305	39.00
1.64972	38.98
1.66638	38.95
1.68305	38.92
1.69972	38.88
1.71638	38.85
1.73305	38.81
1.74972	38.78
1.76638	38.75
1.78305	38.72
1.79972	38.69
1.81638	38.66
1.83305	38.62
1.84972	38.59
1.86638	38.56
1.88305	38.53
1.89972	38.50
1.91638	38.47
1.93305	38.44
1.94972	38.41
1.96638	38.38
1.98305	38.35
1.99972	38.32
2.01638	38.29
2.03305	38.26
2.04972	38.23
2.06638	38.21
2.08305	38.17
2.09972	38.14
2.11638	38.11
2.13305	38.09
2.14972	38.05
2.16638	38.03
2.18305	38.00
2.19972	37.96
2.21638	37.93
2.23305	37.91
2.24972	37.87
2.26638	37.85
2.28305	37.82
2.29972	37.78
2.31638	37.75
2.33305	37.72
2.34972	37.70
2.36638	37.68
2.38305	37.66
2.39972	37.66
2.41638	37.66
2.43305	37.66
2.44972	37.66
2.46638	37.66
2.48305	37.66
2.49972	37.66
2.51638	37.65
2.53305	37.65
2.54972	37.66
2.56638	37.66
2.58305	37.65
2.59972	37.65
2.61638	37.65
2.63305	37.65
2.64972	37.65
2.66638	37.65
2.68305	37.65
2.69972	37.65
2.71638	37.65
2.73305	37.65
2.74972	37.65
2.76638	37.65
2.78305	37.65
2.79972	37.65
2.81638	37.65
2.83305	37.65
2.84972	37.64
2.86638	37.64
2.88305	37.64
2.89972	37.64
2.91638	37.64
2.93305	37.64
2.94972	37.64
2.96638	37.64
2.98305	37.64
2.99972	37.64
3.01638	37.64
3.03305	37.64
3.04972	37.64
3.06638	37.64
3.08305	37.64
3.09972	37.63
3.11638	37.63
3.13305	37.63
3.14972	37.63
3.16638	37.63
3.18305	37.63
3.19972	37.63
3.21638	37.63
3.23305	37.63
3.24972	37.63
3.26638	37.63
3.28305	37.63
3.29972	37.63
3.31638	37.63
3.33305	37.63
3.34972	37.63
3.36638	37.63
3.38305	37.63
3.39972	37.63
3.41638	37.63
3.43305	37.63
3.44972	37.62
3.46638	37.62
3.48305	37.63
3.49972	37.63
3.51638	37.63
3.53305	37.63
3.54972	37.63
3.56638	37.63
3.58305	37.63
3.59972	37.63
3.61638	37.63
3.63305	37.63
3.64972	37.63
3.66638	37.63
3.68305	37.63
3.69972	37.63
3.71638	37.63
3.73305	37.63
3.74972	37.63
3.76638	37.63
3.78305	37.63
3.79972	37.63
3.81638	37.63
3.83305	37.63
3.84972	37.63
3.86638	37.63
3.88305	37.63
3.89972	37.63
3.91638	37.63
3.93305	37.63
3.94972	37.63
3.96638	37.63
3.98305	37.63
3.99972	37.63

