[Header]
Application Name	LabSolutions
Version	5.110
Data File Name	C:\Users\User\Desktop\GC Analyses\Jack\UIC Prairie Sampling\9.30.22\220930_068.gcd
Output Date	1/4/2023
Output Time	2:27:56 PM

[File Information]
Type	Data File
Generated	12/1/2022 3:29:34 PM
Generated by	System Administrator
Modified	12/1/2022 3:33:59 PM
Modified by	System Administrator

[Sample Information]
Operator Name	System Administrator
Acquired	12/1/2022 3:29:59 PM
Sample Type	1:Standard
Level	1
Sample Name	220930_UICPrairie
Sample ID	220930_UICPrairie
ISTD Amount1	1
ISTD Amount2	1
ISTD Amount3	1
ISTD Amount4	1
ISTD Amount5	1
ISTD Amount6	1
ISTD Amount7	1
ISTD Amount8	1
ISTD Amount9	1
ISTD Amount10	1
ISTD Amount11	1
ISTD Amount12	1
ISTD Amount13	1
ISTD Amount14	1
ISTD Amount15	1
ISTD Amount16	1
ISTD Amount17	1
ISTD Amount18	1
ISTD Amount19	1
ISTD Amount20	1
ISTD Amount21	1
ISTD Amount22	1
ISTD Amount23	1
ISTD Amount24	1
ISTD Amount25	1
ISTD Amount26	1
ISTD Amount27	1
ISTD Amount28	1
ISTD Amount29	1
ISTD Amount30	1
ISTD Amount31	1
ISTD Amount32	1
Sample Amount	1
Dilution Factor	1
Vial#	1
Injection Volume	1
Injection Count	1
Bar Code	

[Original Files]
Data File	C:\Users\User\Desktop\GC Analyses\Jack\UIC Prairie Sampling\9.30.22\220930_068.gcd
Method File	C:\LabSolutions\Data\GHG_4min_2022\ghg3_togas_w_acet_4 min_new_int.gcm
Batch File	
Report Format File	c:\LabSolutions\System\DEFAULT.lsr

[File Description]


[Configuration]
Instrument Name	C0B7VH3-Instrument1
Instrument #	1
Line #	1
# of Detectors	3
Detector ID	DET#1	DET#2	DET#3
Detector Name	FID	PTCD	ECD
# of Channels	1	1	1

[Peak Table(Ch1)]
# of Peaks	3
Peak#	R.Time	I.Time	F.Time	Area	Height	A/H	Conc.	Mark	ID#	Name	k'	Plate #	Plate Ht.	Tailing	Resolution	Sep.Factor	Area Ratio	Height Ratio	Conc. %	Norm Conc.
1	1.479	1.435	1.538	13264	5880	2.256	100.000	   	1	CO	0.000	8266	18.146	1.205	0.000	0.000	0	0	16.667	16.667
2	1.571	1.538	1.633	5135	2519	2.039	100.000	 V 	2	CH4	0.062	10890	13.774	0.000	1.463	0.000	0	0	16.667	16.667
3	2.000	1.952	2.462	1193180	566799	2.105	400.000	   	3	CO2	0.352	17304	8.669	1.222	7.089	5.680	0	0	66.667	66.667

[Peak Table(Ch2)]
# of Peaks	0

[Peak Table(Ch3)]
# of Peaks	3
Peak#	R.Time	I.Time	F.Time	Area	Height	A/H	Conc.	Mark	ID#	Name	k'	Plate #	Plate Ht.	Tailing	Resolution	Sep.Factor	Area Ratio	Height Ratio	Conc. %	Norm Conc.
1	2.572	1.853	2.656	7472	614	12.176	0.000	   			0.000	1647	91.084	0.000	0.000	0.000	0	0	0.000	0.000
2	2.733	2.656	2.821	3371	385	8.765	0.108	 V 	1	N2O	0.063	166	905.871	0.000	0.292	0.000	0	0	10.788	10.788
3	2.887	2.821	3.745	27876	5531	5.040	0.892	 V 	1	N2O	0.123	12277	12.218	0.000	0.323	1.955	0	0	89.212	89.212

[Compound Results(Ch1)]
# of IDs	6
ID#	Name	R.Time	Area	Height	Conc.	Curve	3rd	2nd	1st	Constant	Area Ratio	Height Ratio	Conc. %	Norm Conc.
1	CO	1.479	13264	5880	100.000	Linear	0.000000e+00	0.000000e+00	1.326428e+002	0.000000e+00	0	0	16.667	16.667
2	CH4	1.571	5135	2519	100.000	Linear	0.000000e+00	0.000000e+00	5.135108e+001	0.000000e+00	0	0	16.667	16.667
3	CO2	2.000	1193180	566799	400.000	Linear	0.000000e+00	0.000000e+00	2.982950e+003	0.000000e+00	0	0	66.667	66.667
4	Ethylene	0.000	0	0	0.000	Linear	0.000000e+00	0.000000e+00	0.000000e+00	0.000000e+00	0	0	0.000	0.000
5	Acetylene	0.000	0	0	0.000	Linear	0.000000e+00	0.000000e+00	0.000000e+00	0.000000e+00	0	0	0.000	0.000
6	Ethane	0.000	0	0	0.000	Linear	0.000000e+00	0.000000e+00	0.000000e+00	0.000000e+00	0	0	0.000	0.000

[Compound Results(Ch2)]
# of IDs	5
ID#	Name	R.Time	Area	Height	Conc.	Curve	3rd	2nd	1st	Constant	Area Ratio	Height Ratio	Conc. %	Norm Conc.
1	Hydrogen	0.000	0	0	0.000	Linear	0.000000e+00	0.000000e+00	0.000000e+00	0.000000e+00	0	0	0.000	0.000
2	Oxygen	0.000	0	0	0.000	Linear	0.000000e+00	0.000000e+00	0.000000e+00	0.000000e+00	0	0	0.000	0.000
3	Nitrogen	0.000	0	0	0.000	Linear	0.000000e+00	0.000000e+00	0.000000e+00	0.000000e+00	0	0	0.000	0.000
4	Methane	0.000	0	0	0.000	Linear	0.000000e+00	0.000000e+00	0.000000e+00	0.000000e+00	0	0	0.000	0.000
5	Carbon Monoxide	0.000	0	0	0.000	Linear	0.000000e+00	0.000000e+00	0.000000e+00	0.000000e+00	0	0	0.000	0.000

[Compound Results(Ch3)]
# of IDs	2
ID#	Name	R.Time	Area	Height	Conc.	Curve	3rd	2nd	1st	Constant	Area Ratio	Height Ratio	Conc. %	Norm Conc.
1	N2O	2.887	31247	5916	1.000	Linear	0.000000e+00	0.000000e+00	3.124745e+004	0.000000e+00	0	0	100.000	100.000
2	SF6	0.000	0	0	0.000	Linear	0.000000e+00	0.000000e+00	0.000000e+00	0.000000e+00	0	0	0.000	0.000

[Group Results(Ch1)]
# of Groups	0

[Group Results(Ch2)]
# of Groups	0

[Group Results(Ch3)]
# of Groups	0

[Chromatogram (Ch1)]
Interval(msec)	220
# of Points	1091
Start Time(min)	0.002
End Time(min)	3.998
R.Time (min)	Intensity
0.00167	-12
0.00533	-12
0.00900	-11
0.01267	-11
0.01633	-12
0.02000	-18
0.02367	-22
0.02733	-22
0.03100	-21
0.03467	-21
0.03833	-22
0.04200	-22
0.04567	-17
0.04933	-12
0.05300	-9
0.05667	-9
0.06033	-12
0.06400	-16
0.06767	-20
0.07133	-21
0.07500	-25
0.07867	-29
0.08233	-32
0.08600	-31
0.08967	-29
0.09333	-25
0.09700	-22
0.10067	-21
0.10433	-20
0.10800	-18
0.11167	-18
0.11533	-18
0.11900	-18
0.12267	-17
0.12633	-19
0.13000	-21
0.13367	-19
0.13733	-14
0.14100	-8
0.14467	-2
0.14833	-0
0.15200	-4
0.15567	-10
0.15933	-17
0.16300	-23
0.16667	-29
0.17033	-38
0.17400	-48
0.17767	-54
0.18133	-54
0.18500	-51
0.18867	-49
0.19233	-48
0.19600	-45
0.19967	-41
0.20333	-36
0.20700	-28
0.21067	-20
0.21433	-15
0.21800	-12
0.22167	-13
0.22533	-16
0.22900	-22
0.23267	-29
0.23633	-36
0.24000	-44
0.24367	-51
0.24733	-55
0.25100	-56
0.25467	-54
0.25833	-49
0.26200	-42
0.26567	-37
0.26933	-34
0.27300	-32
0.27667	-27
0.28033	-23
0.28400	-20
0.28767	-20
0.29133	-22
0.29500	-26
0.29867	-30
0.30233	-31
0.30600	-32
0.30967	-35
0.31333	-37
0.31700	-38
0.32067	-37
0.32433	-34
0.32800	-31
0.33167	-29
0.33533	-32
0.33900	-37
0.34267	-41
0.34633	-44
0.35000	-47
0.35367	-46
0.35733	-46
0.36100	-45
0.36467	-44
0.36833	-46
0.37200	-51
0.37567	-55
0.37933	-56
0.38300	-56
0.38667	-56
0.39033	-57
0.39400	-58
0.39767	-60
0.40133	-61
0.40500	-58
0.40867	-50
0.41233	-44
0.41600	-42
0.41967	-42
0.42333	-45
0.42700	-50
0.43067	-52
0.43433	-50
0.43800	-49
0.44167	-50
0.44533	-54
0.44900	-60
0.45267	-64
0.45633	-64
0.46000	-61
0.46367	-59
0.46733	-57
0.47100	-52
0.47467	-45
0.47833	-40
0.48200	-37
0.48567	-36
0.48933	-34
0.49300	-32
0.49667	-35
0.50033	-42
0.50400	-48
0.50767	-52
0.51133	-55
0.51500	-58
0.51867	-56
0.52233	-52
0.52600	-50
0.52967	-52
0.53333	-55
0.53700	-60
0.54067	-61
0.54433	-59
0.54800	-59
0.55167	-62
0.55533	-63
0.55900	-62
0.56267	-59
0.56633	-59
0.57000	-60
0.57367	-61
0.57733	-62
0.58100	-63
0.58467	-63
0.58833	-60
0.59200	-56
0.59567	-55
0.59933	-57
0.60300	-60
0.60667	-64
0.61033	-65
0.61400	-66
0.61767	-67
0.62133	-71
0.62500	-76
0.62867	-79
0.63233	-84
0.63600	-88
0.63967	-90
0.64333	-89
0.64700	-84
0.65067	-76
0.65433	-67
0.65800	-60
0.66167	-62
0.66533	-65
0.66900	-71
0.67267	-76
0.67633	-80
0.68000	-83
0.68367	-87
0.68733	-91
0.69100	-91
0.69467	-88
0.69833	-84
0.70200	-80
0.70567	-75
0.70933	-69
0.71300	-67
0.71667	-70
0.72033	-73
0.72400	-67
0.72767	-59
0.73133	-53
0.73500	-48
0.73867	-47
0.74233	-44
0.74600	-39
0.74967	-36
0.75333	-35
0.75700	-38
0.76067	-44
0.76433	-50
0.76800	-56
0.77167	-62
0.77533	-71
0.77900	-76
0.78267	-78
0.78633	-79
0.79000	-82
0.79367	-82
0.79733	-79
0.80100	-76
0.80467	-71
0.80833	-69
0.81200	-69
0.81567	-68
0.81933	-66
0.82300	-64
0.82667	-64
0.83033	-65
0.83400	-63
0.83767	-60
0.84133	-58
0.84500	-58
0.84867	-59
0.85233	-60
0.85600	-60
0.85967	-56
0.86333	-52
0.86700	-50
0.87067	-50
0.87433	-55
0.87800	-57
0.88167	-57
0.88533	-51
0.88900	-45
0.89267	-40
0.89633	-36
0.90000	-37
0.90367	-45
0.90733	-55
0.91100	-65
0.91467	-74
0.91833	-79
0.92200	-77
0.92567	-75
0.92933	-73
0.93300	-73
0.93667	-72
0.94033	-70
0.94400	-73
0.94767	-77
0.95133	-80
0.95500	-81
0.95867	-77
0.96233	-72
0.96600	-70
0.96967	-70
0.97333	-69
0.97700	-65
0.98067	-59
0.98433	-54
0.98800	-53
0.99167	-54
0.99533	-56
0.99900	-59
1.00267	-63
1.00633	-66
1.01000	-67
1.01367	-65
1.01733	-62
1.02100	-61
1.02467	-64
1.02833	-65
1.03200	-60
1.03567	-51
1.03933	-45
1.04300	-44
1.04667	-50
1.05033	-55
1.05400	-61
1.05767	-71
1.06133	-82
1.06500	-87
1.06867	-89
1.07233	-88
1.07600	-85
1.07967	-75
1.08333	-65
1.08700	-59
1.09067	-57
1.09433	-58
1.09800	-59
1.10167	-59
1.10533	-60
1.10900	-59
1.11267	-61
1.11633	-62
1.12000	-64
1.12367	-65
1.12733	-68
1.13100	-72
1.13467	-79
1.13833	-88
1.14200	-94
1.14567	-94
1.14933	-91
1.15300	-86
1.15667	-85
1.16033	-90
1.16400	-94
1.16767	-96
1.17133	-95
1.17500	-94
1.17867	-93
1.18233	-90
1.18600	-82
1.18967	-74
1.19333	-69
1.19700	-69
1.20067	-70
1.20433	-73
1.20800	-79
1.21167	-84
1.21533	-87
1.21900	-87
1.22267	-86
1.22633	-89
1.23000	-93
1.23367	-97
1.23733	-98
1.24100	-98
1.24467	-94
1.24833	-91
1.25200	-84
1.25567	-77
1.25933	-69
1.26300	-65
1.26667	-63
1.27033	-63
1.27400	-69
1.27767	-80
1.28133	-96
1.28500	-107
1.28867	-111
1.29233	-108
1.29600	-100
1.29967	-96
1.30333	-96
1.30700	-98
1.31067	-99
1.31433	-98
1.31800	-96
1.32167	-96
1.32533	-96
1.32900	-96
1.33267	-97
1.33633	-99
1.34000	-105
1.34367	-108
1.34733	-108
1.35100	-106
1.35467	-102
1.35833	-98
1.36200	-97
1.36567	-100
1.36933	-99
1.37300	-96
1.37667	-92
1.38033	-94
1.38400	-98
1.38767	-104
1.39133	-108
1.39500	-108
1.39867	-106
1.40233	-104
1.40600	-102
1.40967	-98
1.41333	-95
1.41700	-96
1.42067	-101
1.42433	-104
1.42800	-103
1.43167	-100
1.43533	-97
1.43900	-84
1.44267	-21
1.44633	145
1.45000	436
1.45367	930
1.45733	1729
1.46100	2758
1.46467	3802
1.46833	4690
1.47200	5342
1.47567	5720
1.47933	5783
1.48300	5500
1.48667	4902
1.49033	4105
1.49400	3258
1.49767	2478
1.50133	1829
1.50500	1321
1.50867	939
1.51233	660
1.51600	459
1.51967	320
1.52333	225
1.52700	159
1.53067	112
1.53433	78
1.53800	60
1.54167	78
1.54533	192
1.54900	462
1.55267	875
1.55633	1345
1.56000	1779
1.56367	2122
1.56733	2347
1.57100	2421
1.57467	2316
1.57833	2039
1.58200	1653
1.58567	1244
1.58933	879
1.59300	590
1.59667	376
1.60033	226
1.60400	125
1.60767	58
1.61133	12
1.61500	-23
1.61867	-51
1.62233	-73
1.62600	-85
1.62967	-93
1.63333	-98
1.63700	-102
1.64067	-106
1.64433	-110
1.64800	-114
1.65167	-121
1.65533	-125
1.65900	-124
1.66267	-121
1.66633	-116
1.67000	-113
1.67367	-115
1.67733	-119
1.68100	-119
1.68467	-119
1.68833	-118
1.69200	-118
1.69567	-120
1.69933	-122
1.70300	-124
1.70667	-124
1.71033	-123
1.71400	-121
1.71767	-118
1.72133	-117
1.72500	-119
1.72867	-120
1.73233	-117
1.73600	-112
1.73967	-109
1.74333	-108
1.74700	-112
1.75067	-120
1.75433	-129
1.75800	-137
1.76167	-144
1.76533	-150
1.76900	-154
1.77267	-156
1.77633	-155
1.78000	-152
1.78367	-146
1.78733	-138
1.79100	-132
1.79467	-131
1.79833	-129
1.80200	-129
1.80567	-133
1.80933	-143
1.81300	-154
1.81667	-163
1.82033	-168
1.82400	-166
1.82767	-160
1.83133	-151
1.83500	-140
1.83867	-132
1.84233	-129
1.84600	-130
1.84967	-133
1.85333	-134
1.85700	-132
1.86067	-126
1.86433	-121
1.86800	-118
1.87167	-116
1.87533	-116
1.87900	-118
1.88267	-120
1.88633	-125
1.89000	-129
1.89367	-131
1.89733	-133
1.90100	-135
1.90467	-134
1.90833	-132
1.91200	-130
1.91567	-127
1.91933	-124
1.92300	-122
1.92667	-123
1.93033	-121
1.93400	-117
1.93767	-115
1.94133	-117
1.94500	-122
1.94867	-124
1.95233	-122
1.95600	-83
1.95967	167
1.96333	1423
1.96700	6326
1.97067	20952
1.97433	54701
1.97800	115948
1.98167	204758
1.98533	309887
1.98900	413325
1.99267	498082
1.99633	551704
2.00000	566704
2.00367	542042
2.00733	484036
2.01100	405236
2.01467	320387
2.01833	241602
2.02200	175760
2.02567	124774
2.02933	87382
2.03300	60970
2.03667	42762
2.04033	30381
2.04400	22011
2.04767	16346
2.05133	12483
2.05500	9812
2.05867	7932
2.06233	6579
2.06600	5584
2.06967	4834
2.07333	4249
2.07700	3783
2.08067	3407
2.08433	3099
2.08800	2842
2.09167	2622
2.09533	2431
2.09900	2264
2.10267	2119
2.10633	1990
2.11000	1873
2.11367	1763
2.11733	1665
2.12100	1585
2.12467	1518
2.12833	1453
2.13200	1387
2.13567	1324
2.13933	1266
2.14300	1213
2.14667	1163
2.15033	1113
2.15400	1067
2.15767	1025
2.16133	991
2.16500	956
2.16867	922
2.17233	888
2.17600	857
2.17967	829
2.18333	805
2.18700	782
2.19067	760
2.19433	737
2.19800	713
2.20167	693
2.20533	676
2.20900	661
2.21267	644
2.21633	626
2.22000	607
2.22367	586
2.22733	566
2.23100	551
2.23467	540
2.23833	531
2.24200	522
2.24567	513
2.24933	503
2.25300	493
2.25667	481
2.26033	471
2.26400	463
2.26767	454
2.27133	442
2.27500	428
2.27867	414
2.28233	401
2.28600	389
2.28967	378
2.29333	368
2.29700	363
2.30067	361
2.30433	359
2.30800	356
2.31167	351
2.31533	343
2.31900	333
2.32267	322
2.32633	311
2.33000	300
2.33367	289
2.33733	281
2.34100	275
2.34467	275
2.34833	278
2.35200	282
2.35567	286
2.35933	286
2.36300	280
2.36667	271
2.37033	261
2.37400	250
2.37767	239
2.38133	226
2.38500	217
2.38867	213
2.39233	216
2.39600	224
2.39967	229
2.40333	228
2.40700	223
2.41067	218
2.41433	213
2.41800	207
2.42167	202
2.42533	195
2.42900	189
2.43267	185
2.43633	183
2.44000	184
2.44367	189
2.44733	193
2.45100	194
2.45467	191
2.45833	184
2.46200	174
2.46567	161
2.46933	152
2.47300	149
2.47667	150
2.48033	155
2.48400	160
2.48767	161
2.49133	161
2.49500	164
2.49867	169
2.50233	173
2.50600	178
2.50967	182
2.51333	183
2.51700	183
2.52067	180
2.52433	173
2.52800	160
2.53167	147
2.53533	139
2.53900	133
2.54267	127
2.54633	118
2.55000	111
2.55367	109
2.55733	111
2.56100	113
2.56467	117
2.56833	123
2.57200	128
2.57567	129
2.57933	129
2.58300	128
2.58667	125
2.59033	123
2.59400	122
2.59767	122
2.60133	123
2.60500	122
2.60867	120
2.61233	115
2.61600	106
2.61967	95
2.62333	88
2.62700	85
2.63067	87
2.63433	89
2.63800	89
2.64167	92
2.64533	96
2.64900	101
2.65267	105
2.65633	105
2.66000	98
2.66367	86
2.66733	79
2.67100	78
2.67467	80
2.67833	79
2.68200	75
2.68567	73
2.68933	78
2.69300	86
2.69667	91
2.70033	93
2.70400	90
2.70767	84
2.71133	77
2.71500	73
2.71867	69
2.72233	66
2.72600	64
2.72967	68
2.73333	77
2.73700	85
2.74067	88
2.74433	85
2.74800	77
2.75167	69
2.75533	65
2.75900	64
2.76267	63
2.76633	63
2.77000	64
2.77367	64
2.77733	65
2.78100	66
2.78467	64
2.78833	63
2.79200	62
2.79567	62
2.79933	64
2.80300	69
2.80667	72
2.81033	76
2.81400	79
2.81767	79
2.82133	76
2.82500	69
2.82867	63
2.83233	58
2.83600	53
2.83967	47
2.84333	45
2.84700	45
2.85067	45
2.85433	46
2.85800	48
2.86167	49
2.86533	50
2.86900	51
2.87267	53
2.87633	55
2.88000	60
2.88367	68
2.88733	74
2.89100	78
2.89467	77
2.89833	73
2.90200	68
2.90567	66
2.90933	64
2.91300	61
2.91667	61
2.92033	60
2.92400	60
2.92767	61
2.93133	61
2.93500	61
2.93867	64
2.94233	70
2.94600	74
2.94967	73
2.95333	71
2.95700	73
2.96067	75
2.96433	77
2.96800	76
2.97167	72
2.97533	68
2.97900	63
2.98267	61
2.98633	64
2.99000	69
2.99367	78
2.99733	87
3.00100	91
3.00467	89
3.00833	86
3.01200	84
3.01567	87
3.01933	89
3.02300	88
3.02667	85
3.03033	76
3.03400	64
3.03767	53
3.04133	46
3.04500	44
3.04867	47
3.05233	51
3.05600	54
3.05967	53
3.06333	48
3.06700	44
3.07067	42
3.07433	40
3.07800	41
3.08167	47
3.08533	55
3.08900	61
3.09267	62
3.09633	58
3.10000	53
3.10367	46
3.10733	42
3.11100	41
3.11467	43
3.11833	50
3.12200	57
3.12567	62
3.12933	63
3.13300	59
3.13667	53
3.14033	50
3.14400	52
3.14767	54
3.15133	54
3.15500	51
3.15867	47
3.16233	44
3.16600	41
3.16967	41
3.17333	42
3.17700	43
3.18067	45
3.18433	49
3.18800	49
3.19167	44
3.19533	39
3.19900	40
3.20267	44
3.20633	48
3.21000	49
3.21367	47
3.21733	45
3.22100	46
3.22467	51
3.22833	55
3.23200	55
3.23567	49
3.23933	44
3.24300	41
3.24667	41
3.25033	41
3.25400	41
3.25767	41
3.26133	42
3.26500	43
3.26867	45
3.27233	49
3.27600	50
3.27967	50
3.28333	48
3.28700	46
3.29067	43
3.29433	42
3.29800	42
3.30167	41
3.30533	40
3.30900	42
3.31267	46
3.31633	51
3.32000	53
3.32367	52
3.32733	51
3.33100	54
3.33467	54
3.33833	49
3.34200	40
3.34567	30
3.34933	26
3.35300	27
3.35667	29
3.36033	31
3.36400	37
3.36767	42
3.37133	44
3.37500	42
3.37867	37
3.38233	32
3.38600	29
3.38967	26
3.39333	22
3.39700	17
3.40067	14
3.40433	12
3.40800	10
3.41167	9
3.41533	15
3.41900	22
3.42267	29
3.42633	31
3.43000	29
3.43367	26
3.43733	22
3.44100	14
3.44467	6
3.44833	2
3.45200	1
3.45567	4
3.45933	10
3.46300	17
3.46667	25
3.47033	32
3.47400	40
3.47767	46
3.48133	47
3.48500	45
3.48867	35
3.49233	26
3.49600	16
3.49967	8
3.50333	2
3.50700	-1
3.51067	-1
3.51433	-0
3.51800	-1
3.52167	-4
3.52533	-7
3.52900	-10
3.53267	-11
3.53633	-12
3.54000	-11
3.54367	-9
3.54733	-8
3.55100	-2
3.55467	10
3.55833	17
3.56200	18
3.56567	14
3.56933	10
3.57300	7
3.57667	6
3.58033	9
3.58400	12
3.58767	16
3.59133	18
3.59500	20
3.59867	21
3.60233	19
3.60600	18
3.60967	17
3.61333	15
3.61700	11
3.62067	8
3.62433	5
3.62800	4
3.63167	3
3.63533	-1
3.63900	-8
3.64267	-14
3.64633	-19
3.65000	-23
3.65367	-22
3.65733	-18
3.66100	-17
3.66467	-16
3.66833	-13
3.67200	-5
3.67567	-0
3.67933	-0
3.68300	-5
3.68667	-12
3.69033	-14
3.69400	-10
3.69767	-4
3.70133	2
3.70500	9
3.70867	15
3.71233	17
3.71600	19
3.71967	21
3.72333	20
3.72700	16
3.73067	10
3.73433	4
3.73800	-1
3.74167	-3
3.74533	-2
3.74900	-3
3.75267	-2
3.75633	-0
3.76000	-1
3.76367	-9
3.76733	-20
3.77100	-30
3.77467	-35
3.77833	-33
3.78200	-25
3.78567	-15
3.78933	-5
3.79300	1
3.79667	2
3.80033	-1
3.80400	-5
3.80767	-6
3.81133	-4
3.81500	0
3.81867	1
3.82233	-0
3.82600	-2
3.82967	-5
3.83333	-9
3.83700	-15
3.84067	-19
3.84433	-24
3.84800	-26
3.85167	-27
3.85533	-27
3.85900	-27
3.86267	-25
3.86633	-22
3.87000	-18
3.87367	-17
3.87733	-20
3.88100	-21
3.88467	-22
3.88833	-21
3.89200	-20
3.89567	-18
3.89933	-17
3.90300	-18
3.90667	-20
3.91033	-24
3.91400	-26
3.91767	-28
3.92133	-28
3.92500	-25
3.92867	-24
3.93233	-27
3.93600	-28
3.93967	-28
3.94333	-28
3.94700	-26
3.95067	-27
3.95433	-26
3.95800	-20
3.96167	-14
3.96533	-8
3.96900	-3
3.97267	-2
3.97633	-2
3.98000	-3
3.98367	-5
3.98733	-9
3.99100	-10
3.99467	-8
3.99833	-5

[Chromatogram (Ch2)]
Interval(msec)	220
# of Points	1091
Start Time(min)	0.002
End Time(min)	3.998
R.Time (min)	Intensity
0.00167	-1
0.00533	-1
0.00900	-1
0.01267	-1
0.01633	-1
0.02000	-1
0.02367	-1
0.02733	-1
0.03100	-1
0.03467	-1
0.03833	-1
0.04200	-1
0.04567	-2
0.04933	-2
0.05300	-2
0.05667	-2
0.06033	-2
0.06400	-2
0.06767	-2
0.07133	-2
0.07500	-2
0.07867	-2
0.08233	-2
0.08600	-2
0.08967	-2
0.09333	-1
0.09700	-1
0.10067	-1
0.10433	-1
0.10800	-1
0.11167	-1
0.11533	-1
0.11900	-0
0.12267	-0
0.12633	-1
0.13000	-1
0.13367	-1
0.13733	-1
0.14100	-1
0.14467	-1
0.14833	-1
0.15200	-1
0.15567	-1
0.15933	-1
0.16300	-1
0.16667	-1
0.17033	-1
0.17400	-1
0.17767	-1
0.18133	-1
0.18500	-2
0.18867	-2
0.19233	-2
0.19600	-1
0.19967	-1
0.20333	-1
0.20700	-1
0.21067	-1
0.21433	-1
0.21800	-1
0.22167	-2
0.22533	-2
0.22900	-2
0.23267	-3
0.23633	-3
0.24000	-4
0.24367	-4
0.24733	-4
0.25100	-4
0.25467	-4
0.25833	-4
0.26200	-4
0.26567	-4
0.26933	-4
0.27300	-4
0.27667	-4
0.28033	-3
0.28400	-3
0.28767	-3
0.29133	-3
0.29500	-3
0.29867	-3
0.30233	-3
0.30600	-3
0.30967	-3
0.31333	-3
0.31700	-3
0.32067	-3
0.32433	-4
0.32800	-4
0.33167	-4
0.33533	-5
0.33900	-5
0.34267	-5
0.34633	-5
0.35000	-5
0.35367	-5
0.35733	-5
0.36100	-5
0.36467	-5
0.36833	-5
0.37200	-5
0.37567	-4
0.37933	-4
0.38300	-4
0.38667	-4
0.39033	-4
0.39400	-4
0.39767	-4
0.40133	-4
0.40500	-4
0.40867	-4
0.41233	-4
0.41600	-4
0.41967	-4
0.42333	-5
0.42700	-4
0.43067	-5
0.43433	-5
0.43800	-5
0.44167	-5
0.44533	-4
0.44900	-4
0.45267	-4
0.45633	-4
0.46000	-4
0.46367	-4
0.46733	-4
0.47100	-4
0.47467	-4
0.47833	-4
0.48200	-4
0.48567	-4
0.48933	-4
0.49300	-4
0.49667	-4
0.50033	-4
0.50400	-4
0.50767	-4
0.51133	-4
0.51500	-4
0.51867	-4
0.52233	-4
0.52600	-4
0.52967	-4
0.53333	-4
0.53700	-3
0.54067	-3
0.54433	-3
0.54800	-3
0.55167	-3
0.55533	-2
0.55900	-2
0.56267	-2
0.56633	-2
0.57000	-2
0.57367	-2
0.57733	-2
0.58100	-2
0.58467	-2
0.58833	-2
0.59200	-2
0.59567	-3
0.59933	-3
0.60300	-3
0.60667	-3
0.61033	-3
0.61400	-3
0.61767	-3
0.62133	-3
0.62500	-3
0.62867	-4
0.63233	-4
0.63600	-4
0.63967	-4
0.64333	-4
0.64700	-4
0.65067	-4
0.65433	-4
0.65800	-4
0.66167	-4
0.66533	-4
0.66900	-4
0.67267	-4
0.67633	-4
0.68000	-4
0.68367	-4
0.68733	-4
0.69100	-4
0.69467	-4
0.69833	-4
0.70200	-4
0.70567	-4
0.70933	-3
0.71300	-3
0.71667	-3
0.72033	-3
0.72400	-3
0.72767	-3
0.73133	-3
0.73500	-3
0.73867	-3
0.74233	-3
0.74600	-3
0.74967	-3
0.75333	-3
0.75700	-3
0.76067	-3
0.76433	-2
0.76800	-2
0.77167	-2
0.77533	-2
0.77900	-2
0.78267	-2
0.78633	-2
0.79000	-2
0.79367	-2
0.79733	-2
0.80100	-2
0.80467	-3
0.80833	-3
0.81200	-3
0.81567	-4
0.81933	-4
0.82300	-4
0.82667	-4
0.83033	-4
0.83400	-4
0.83767	-4
0.84133	-4
0.84500	-4
0.84867	-4
0.85233	-4
0.85600	-4
0.85967	-4
0.86333	-4
0.86700	-4
0.87067	-5
0.87433	-5
0.87800	-5
0.88167	-5
0.88533	-5
0.88900	-5
0.89267	-5
0.89633	-5
0.90000	-5
0.90367	-5
0.90733	-4
0.91100	-4
0.91467	-4
0.91833	-4
0.92200	-4
0.92567	-4
0.92933	-4
0.93300	-4
0.93667	-4
0.94033	-5
0.94400	-5
0.94767	-5
0.95133	-5
0.95500	-5
0.95867	-5
0.96233	-5
0.96600	-5
0.96967	-5
0.97333	-5
0.97700	-5
0.98067	-5
0.98433	-4
0.98800	-4
0.99167	-4
0.99533	-4
0.99900	-5
1.00267	-5
1.00633	-5
1.01000	-5
1.01367	-5
1.01733	-5
1.02100	-5
1.02467	-5
1.02833	-5
1.03200	-5
1.03567	-6
1.03933	-6
1.04300	-5
1.04667	-5
1.05033	-5
1.05400	-5
1.05767	-5
1.06133	-5
1.06500	-4
1.06867	-4
1.07233	-4
1.07600	-4
1.07967	-3
1.08333	-3
1.08700	-3
1.09067	-3
1.09433	-3
1.09800	-3
1.10167	-3
1.10533	-3
1.10900	-3
1.11267	-3
1.11633	-3
1.12000	-3
1.12367	-3
1.12733	-3
1.13100	-3
1.13467	-3
1.13833	-3
1.14200	-3
1.14567	-3
1.14933	-3
1.15300	-4
1.15667	-4
1.16033	-4
1.16400	-4
1.16767	-4
1.17133	-5
1.17500	-5
1.17867	-5
1.18233	-5
1.18600	-5
1.18967	-5
1.19333	-5
1.19700	-5
1.20067	-5
1.20433	-6
1.20800	-6
1.21167	-6
1.21533	-5
1.21900	-5
1.22267	-5
1.22633	-4
1.23000	-4
1.23367	-3
1.23733	-3
1.24100	-3
1.24467	-3
1.24833	-3
1.25200	-3
1.25567	-3
1.25933	-4
1.26300	-4
1.26667	-5
1.27033	-5
1.27400	-6
1.27767	-6
1.28133	-6
1.28500	-6
1.28867	-6
1.29233	-6
1.29600	-6
1.29967	-6
1.30333	-5
1.30700	-5
1.31067	-5
1.31433	-5
1.31800	-5
1.32167	-4
1.32533	-4
1.32900	-4
1.33267	-5
1.33633	-5
1.34000	-5
1.34367	-5
1.34733	-5
1.35100	-5
1.35467	-5
1.35833	-5
1.36200	-5
1.36567	-5
1.36933	-5
1.37300	-5
1.37667	-5
1.38033	-5
1.38400	-5
1.38767	-5
1.39133	-5
1.39500	-5
1.39867	-5
1.40233	-5
1.40600	-5
1.40967	-5
1.41333	-5
1.41700	-4
1.42067	-4
1.42433	-4
1.42800	-3
1.43167	-3
1.43533	-3
1.43900	-3
1.44267	-3
1.44633	-3
1.45000	-3
1.45367	-3
1.45733	-3
1.46100	-4
1.46467	-4
1.46833	-4
1.47200	-4
1.47567	-4
1.47933	-4
1.48300	-4
1.48667	-4
1.49033	-4
1.49400	-4
1.49767	-5
1.50133	-5
1.50500	-5
1.50867	-5
1.51233	-5
1.51600	-5
1.51967	-5
1.52333	-5
1.52700	-5
1.53067	-5
1.53433	-6
1.53800	-6
1.54167	-6
1.54533	-5
1.54900	-5
1.55267	-6
1.55633	-6
1.56000	-6
1.56367	-6
1.56733	-6
1.57100	-6
1.57467	-6
1.57833	-7
1.58200	-7
1.58567	-7
1.58933	-7
1.59300	-7
1.59667	-8
1.60033	-9
1.60400	-10
1.60767	-11
1.61133	-13
1.61500	-14
1.61867	-16
1.62233	-19
1.62600	-21
1.62967	-24
1.63333	-28
1.63700	-31
1.64067	-35
1.64433	-38
1.64800	-42
1.65167	-45
1.65533	-49
1.65900	-52
1.66267	-55
1.66633	-59
1.67000	-64
1.67367	-68
1.67733	-73
1.68100	-79
1.68467	-84
1.68833	-88
1.69200	-92
1.69567	-96
1.69933	-99
1.70300	-102
1.70667	-104
1.71033	-106
1.71400	-108
1.71767	-109
1.72133	-111
1.72500	-112
1.72867	-114
1.73233	-115
1.73600	-116
1.73967	-117
1.74333	-117
1.74700	-117
1.75067	-117
1.75433	-117
1.75800	-117
1.76167	-118
1.76533	-118
1.76900	-119
1.77267	-120
1.77633	-120
1.78000	-121
1.78367	-122
1.78733	-122
1.79100	-123
1.79467	-123
1.79833	-124
1.80200	-124
1.80567	-124
1.80933	-124
1.81300	-125
1.81667	-125
1.82033	-125
1.82400	-125
1.82767	-125
1.83133	-125
1.83500	-125
1.83867	-124
1.84233	-124
1.84600	-124
1.84967	-124
1.85333	-124
1.85700	-124
1.86067	-124
1.86433	-124
1.86800	-125
1.87167	-125
1.87533	-125
1.87900	-125
1.88267	-125
1.88633	-125
1.89000	-125
1.89367	-125
1.89733	-125
1.90100	-124
1.90467	-124
1.90833	-123
1.91200	-122
1.91567	-121
1.91933	-120
1.92300	-120
1.92667	-120
1.93033	-120
1.93400	-120
1.93767	-120
1.94133	-120
1.94500	-120
1.94867	-120
1.95233	-119
1.95600	-119
1.95967	-118
1.96333	-118
1.96700	-119
1.97067	-119
1.97433	-119
1.97800	-119
1.98167	-120
1.98533	-120
1.98900	-119
1.99267	-119
1.99633	-119
2.00000	-118
2.00367	-118
2.00733	-117
2.01100	-118
2.01467	-118
2.01833	-118
2.02200	-118
2.02567	-118
2.02933	-117
2.03300	-117
2.03667	-116
2.04033	-116
2.04400	-116
2.04767	-116
2.05133	-116
2.05500	-115
2.05867	-114
2.06233	-113
2.06600	-113
2.06967	-112
2.07333	-112
2.07700	-111
2.08067	-111
2.08433	-111
2.08800	-112
2.09167	-112
2.09533	-112
2.09900	-112
2.10267	-112
2.10633	-111
2.11000	-111
2.11367	-110
2.11733	-110
2.12100	-109
2.12467	-108
2.12833	-107
2.13200	-107
2.13567	-106
2.13933	-106
2.14300	-105
2.14667	-104
2.15033	-103
2.15400	-102
2.15767	-102
2.16133	-101
2.16500	-101
2.16867	-101
2.17233	-101
2.17600	-101
2.17967	-102
2.18333	-102
2.18700	-103
2.19067	-103
2.19433	-103
2.19800	-103
2.20167	-102
2.20533	-102
2.20900	-101
2.21267	-101
2.21633	-100
2.22000	-99
2.22367	-98
2.22733	-97
2.23100	-97
2.23467	-97
2.23833	-97
2.24200	-96
2.24567	-96
2.24933	-96
2.25300	-96
2.25667	-96
2.26033	-95
2.26400	-95
2.26767	-94
2.27133	-94
2.27500	-93
2.27867	-93
2.28233	-93
2.28600	-93
2.28967	-92
2.29333	-92
2.29700	-92
2.30067	-92
2.30433	-93
2.30800	-93
2.31167	-92
2.31533	-92
2.31900	-92
2.32267	-92
2.32633	-91
2.33000	-90
2.33367	-89
2.33733	-88
2.34100	-88
2.34467	-87
2.34833	-86
2.35200	-86
2.35567	-86
2.35933	-86
2.36300	-86
2.36667	-86
2.37033	-85
2.37400	-84
2.37767	-82
2.38133	-79
2.38500	-76
2.38867	-72
2.39233	-68
2.39600	-64
2.39967	-59
2.40333	-54
2.40700	-50
2.41067	-45
2.41433	-41
2.41800	-37
2.42167	-34
2.42533	-31
2.42900	-28
2.43267	-26
2.43633	-23
2.44000	-21
2.44367	-18
2.44733	-16
2.45100	-14
2.45467	-13
2.45833	-11
2.46200	-10
2.46567	-9
2.46933	-7
2.47300	-5
2.47667	-4
2.48033	-2
2.48400	-1
2.48767	0
2.49133	2
2.49500	3
2.49867	4
2.50233	5
2.50600	6
2.50967	6
2.51333	7
2.51700	7
2.52067	7
2.52433	8
2.52800	8
2.53167	9
2.53533	10
2.53900	11
2.54267	11
2.54633	11
2.55000	11
2.55367	10
2.55733	10
2.56100	10
2.56467	9
2.56833	9
2.57200	10
2.57567	10
2.57933	11
2.58300	11
2.58667	12
2.59033	13
2.59400	14
2.59767	14
2.60133	15
2.60500	15
2.60867	16
2.61233	16
2.61600	15
2.61967	15
2.62333	15
2.62700	15
2.63067	15
2.63433	16
2.63800	16
2.64167	16
2.64533	17
2.64900	17
2.65267	17
2.65633	18
2.66000	18
2.66367	18
2.66733	19
2.67100	19
2.67467	19
2.67833	20
2.68200	20
2.68567	20
2.68933	20
2.69300	21
2.69667	21
2.70033	21
2.70400	21
2.70767	22
2.71133	22
2.71500	22
2.71867	21
2.72233	21
2.72600	21
2.72967	21
2.73333	21
2.73700	21
2.74067	22
2.74433	22
2.74800	22
2.75167	22
2.75533	22
2.75900	22
2.76267	22
2.76633	22
2.77000	22
2.77367	22
2.77733	22
2.78100	22
2.78467	22
2.78833	22
2.79200	22
2.79567	22
2.79933	22
2.80300	22
2.80667	23
2.81033	23
2.81400	23
2.81767	23
2.82133	23
2.82500	24
2.82867	24
2.83233	25
2.83600	25
2.83967	26
2.84333	26
2.84700	26
2.85067	26
2.85433	25
2.85800	24
2.86167	22
2.86533	18
2.86900	12
2.87267	3
2.87633	-8
2.88000	-24
2.88367	-43
2.88733	-66
2.89100	-93
2.89467	-124
2.89833	-158
2.90200	-196
2.90567	-237
2.90933	-281
2.91300	-327
2.91667	-375
2.92033	-424
2.92400	-474
2.92767	-525
2.93133	-576
2.93500	-628
2.93867	-679
2.94233	-729
2.94600	-779
2.94967	-829
2.95333	-881
2.95700	-938
2.96067	-999
2.96433	-1058
2.96800	-1101
2.97167	-1122
2.97533	-1116
2.97900	-1084
2.98267	-1032
2.98633	-965
2.99000	-889
2.99367	-808
2.99733	-727
3.00100	-647
3.00467	-572
3.00833	-503
3.01200	-439
3.01567	-382
3.01933	-330
3.02300	-284
3.02667	-244
3.03033	-209
3.03400	-178
3.03767	-152
3.04133	-129
3.04500	-109
3.04867	-92
3.05233	-78
3.05600	-66
3.05967	-55
3.06333	-45
3.06700	-37
3.07067	-30
3.07433	-24
3.07800	-19
3.08167	-15
3.08533	-11
3.08900	-8
3.09267	-5
3.09633	-3
3.10000	-1
3.10367	1
3.10733	3
3.11100	4
3.11467	6
3.11833	7
3.12200	8
3.12567	9
3.12933	9
3.13300	10
3.13667	10
3.14033	11
3.14400	11
3.14767	12
3.15133	12
3.15500	12
3.15867	13
3.16233	13
3.16600	13
3.16967	13
3.17333	14
3.17700	14
3.18067	14
3.18433	15
3.18800	15
3.19167	16
3.19533	16
3.19900	16
3.20267	17
3.20633	17
3.21000	17
3.21367	17
3.21733	17
3.22100	18
3.22467	18
3.22833	18
3.23200	18
3.23567	18
3.23933	18
3.24300	18
3.24667	18
3.25033	18
3.25400	18
3.25767	18
3.26133	18
3.26500	18
3.26867	19
3.27233	19
3.27600	18
3.27967	18
3.28333	18
3.28700	18
3.29067	18
3.29433	18
3.29800	18
3.30167	19
3.30533	19
3.30900	19
3.31267	19
3.31633	20
3.32000	20
3.32367	20
3.32733	20
3.33100	20
3.33467	21
3.33833	21
3.34200	21
3.34567	21
3.34933	21
3.35300	21
3.35667	21
3.36033	21
3.36400	22
3.36767	22
3.37133	22
3.37500	22
3.37867	23
3.38233	23
3.38600	23
3.38967	24
3.39333	24
3.39700	24
3.40067	24
3.40433	24
3.40800	25
3.41167	25
3.41533	25
3.41900	25
3.42267	25
3.42633	25
3.43000	25
3.43367	26
3.43733	25
3.44100	26
3.44467	26
3.44833	26
3.45200	26
3.45567	26
3.45933	26
3.46300	26
3.46667	26
3.47033	26
3.47400	26
3.47767	26
3.48133	25
3.48500	25
3.48867	25
3.49233	25
3.49600	25
3.49967	25
3.50333	25
3.50700	25
3.51067	25
3.51433	25
3.51800	25
3.52167	24
3.52533	24
3.52900	24
3.53267	24
3.53633	24
3.54000	24
3.54367	24
3.54733	24
3.55100	24
3.55467	24
3.55833	24
3.56200	24
3.56567	24
3.56933	24
3.57300	24
3.57667	25
3.58033	25
3.58400	25
3.58767	25
3.59133	24
3.59500	24
3.59867	24
3.60233	24
3.60600	24
3.60967	24
3.61333	24
3.61700	24
3.62067	24
3.62433	24
3.62800	24
3.63167	24
3.63533	24
3.63900	24
3.64267	24
3.64633	24
3.65000	24
3.65367	24
3.65733	23
3.66100	23
3.66467	23
3.66833	23
3.67200	23
3.67567	23
3.67933	23
3.68300	23
3.68667	23
3.69033	23
3.69400	23
3.69767	23
3.70133	23
3.70500	23
3.70867	23
3.71233	23
3.71600	23
3.71967	24
3.72333	24
3.72700	24
3.73067	25
3.73433	25
3.73800	25
3.74167	25
3.74533	25
3.74900	25
3.75267	25
3.75633	25
3.76000	25
3.76367	25
3.76733	25
3.77100	25
3.77467	25
3.77833	25
3.78200	25
3.78567	25
3.78933	25
3.79300	25
3.79667	25
3.80033	25
3.80400	25
3.80767	25
3.81133	25
3.81500	25
3.81867	25
3.82233	25
3.82600	25
3.82967	25
3.83333	25
3.83700	25
3.84067	25
3.84433	25
3.84800	25
3.85167	26
3.85533	26
3.85900	26
3.86267	26
3.86633	26
3.87000	26
3.87367	26
3.87733	25
3.88100	25
3.88467	25
3.88833	25
3.89200	25
3.89567	25
3.89933	25
3.90300	25
3.90667	25
3.91033	25
3.91400	25
3.91767	24
3.92133	24
3.92500	24
3.92867	24
3.93233	24
3.93600	24
3.93967	24
3.94333	24
3.94700	24
3.95067	24
3.95433	24
3.95800	25
3.96167	25
3.96533	25
3.96900	25
3.97267	25
3.97633	25
3.98000	25
3.98367	25
3.98733	25
3.99100	25
3.99467	25
3.99833	25

[Chromatogram (Ch3)]
Interval(msec)	220
# of Points	1091
Start Time(min)	0.002
End Time(min)	3.998
R.Time (min)	Intensity
0.00167	0
0.00533	1
0.00900	3
0.01267	4
0.01633	6
0.02000	5
0.02367	3
0.02733	3
0.03100	3
0.03467	4
0.03833	5
0.04200	6
0.04567	7
0.04933	6
0.05300	6
0.05667	5
0.06033	5
0.06400	4
0.06767	3
0.07133	1
0.07500	-0
0.07867	-1
0.08233	-0
0.08600	3
0.08967	7
0.09333	9
0.09700	7
0.10067	6
0.10433	4
0.10800	0
0.11167	-2
0.11533	-1
0.11900	2
0.12267	0
0.12633	-2
0.13000	-1
0.13367	1
0.13733	3
0.14100	5
0.14467	6
0.14833	6
0.15200	5
0.15567	4
0.15933	3
0.16300	2
0.16667	2
0.17033	1
0.17400	2
0.17767	4
0.18133	5
0.18500	6
0.18867	6
0.19233	4
0.19600	4
0.19967	5
0.20333	3
0.20700	4
0.21067	8
0.21433	11
0.21800	11
0.22167	9
0.22533	6
0.22900	6
0.23267	7
0.23633	9
0.24000	9
0.24367	8
0.24733	7
0.25100	7
0.25467	6
0.25833	6
0.26200	6
0.26567	5
0.26933	6
0.27300	8
0.27667	9
0.28033	10
0.28400	12
0.28767	12
0.29133	8
0.29500	3
0.29867	0
0.30233	-1
0.30600	1
0.30967	3
0.31333	5
0.31700	5
0.32067	4
0.32433	3
0.32800	2
0.33167	1
0.33533	-0
0.33900	0
0.34267	2
0.34633	4
0.35000	5
0.35367	5
0.35733	5
0.36100	6
0.36467	6
0.36833	5
0.37200	4
0.37567	3
0.37933	4
0.38300	6
0.38667	4
0.39033	6
0.39400	8
0.39767	5
0.40133	4
0.40500	4
0.40867	5
0.41233	6
0.41600	6
0.41967	4
0.42333	2
0.42700	0
0.43067	0
0.43433	-1
0.43800	-1
0.44167	0
0.44533	4
0.44900	7
0.45267	9
0.45633	8
0.46000	5
0.46367	4
0.46733	5
0.47100	4
0.47467	1
0.47833	1
0.48200	4
0.48567	5
0.48933	5
0.49300	6
0.49667	7
0.50033	6
0.50400	6
0.50767	5
0.51133	6
0.51500	10
0.51867	12
0.52233	12
0.52600	12
0.52967	10
0.53333	7
0.53700	5
0.54067	4
0.54433	2
0.54800	-0
0.55167	1
0.55533	1
0.55900	-0
0.56267	-1
0.56633	2
0.57000	6
0.57367	8
0.57733	7
0.58100	6
0.58467	7
0.58833	7
0.59200	8
0.59567	7
0.59933	6
0.60300	5
0.60667	4
0.61033	3
0.61400	2
0.61767	1
0.62133	1
0.62500	2
0.62867	2
0.63233	5
0.63600	6
0.63967	6
0.64333	8
0.64700	10
0.65067	12
0.65433	13
0.65800	12
0.66167	11
0.66533	10
0.66900	10
0.67267	11
0.67633	9
0.68000	8
0.68367	9
0.68733	9
0.69100	9
0.69467	9
0.69833	8
0.70200	7
0.70567	8
0.70933	7
0.71300	9
0.71667	9
0.72033	8
0.72400	6
0.72767	4
0.73133	3
0.73500	2
0.73867	-0
0.74233	0
0.74600	3
0.74967	5
0.75333	6
0.75700	6
0.76067	5
0.76433	5
0.76800	7
0.77167	7
0.77533	8
0.77900	9
0.78267	11
0.78633	12
0.79000	12
0.79367	11
0.79733	11
0.80100	12
0.80467	14
0.80833	15
0.81200	16
0.81567	14
0.81933	11
0.82300	11
0.82667	13
0.83033	14
0.83400	14
0.83767	13
0.84133	12
0.84500	11
0.84867	9
0.85233	6
0.85600	4
0.85967	3
0.86333	2
0.86700	1
0.87067	3
0.87433	4
0.87800	4
0.88167	2
0.88533	0
0.88900	-0
0.89267	1
0.89633	4
0.90000	6
0.90367	7
0.90733	7
0.91100	7
0.91467	7
0.91833	5
0.92200	3
0.92567	2
0.92933	4
0.93300	6
0.93667	8
0.94033	10
0.94400	11
0.94767	10
0.95133	10
0.95500	11
0.95867	13
0.96233	12
0.96600	9
0.96967	6
0.97333	6
0.97700	7
0.98067	7
0.98433	9
0.98800	9
0.99167	7
0.99533	6
0.99900	5
1.00267	5
1.00633	5
1.01000	5
1.01367	3
1.01733	3
1.02100	3
1.02467	1
1.02833	2
1.03200	2
1.03567	2
1.03933	4
1.04300	6
1.04667	7
1.05033	6
1.05400	6
1.05767	7
1.06133	8
1.06500	7
1.06867	6
1.07233	5
1.07600	5
1.07967	5
1.08333	7
1.08700	6
1.09067	6
1.09433	5
1.09800	6
1.10167	6
1.10533	6
1.10900	5
1.11267	0
1.11633	-1
1.12000	1
1.12367	3
1.12733	2
1.13100	3
1.13467	5
1.13833	6
1.14200	5
1.14567	4
1.14933	3
1.15300	5
1.15667	7
1.16033	6
1.16400	6
1.16767	5
1.17133	3
1.17500	3
1.17867	2
1.18233	-0
1.18600	-1
1.18967	-1
1.19333	-0
1.19700	1
1.20067	3
1.20433	4
1.20800	5
1.21167	5
1.21533	4
1.21900	6
1.22267	6
1.22633	7
1.23000	7
1.23367	5
1.23733	3
1.24100	3
1.24467	3
1.24833	5
1.25200	5
1.25567	5
1.25933	6
1.26300	5
1.26667	4
1.27033	2
1.27400	2
1.27767	4
1.28133	4
1.28500	2
1.28867	4
1.29233	7
1.29600	9
1.29967	8
1.30333	7
1.30700	8
1.31067	8
1.31433	8
1.31800	7
1.32167	7
1.32533	5
1.32900	3
1.33267	3
1.33633	4
1.34000	4
1.34367	5
1.34733	7
1.35100	9
1.35467	10
1.35833	10
1.36200	8
1.36567	7
1.36933	8
1.37300	7
1.37667	6
1.38033	6
1.38400	7
1.38767	6
1.39133	3
1.39500	0
1.39867	2
1.40233	6
1.40600	6
1.40967	7
1.41333	8
1.41700	9
1.42067	9
1.42433	7
1.42800	7
1.43167	8
1.43533	10
1.43900	10
1.44267	9
1.44633	6
1.45000	5
1.45367	4
1.45733	0
1.46100	-2
1.46467	-2
1.46833	-2
1.47200	-1
1.47567	-0
1.47933	-1
1.48300	-0
1.48667	2
1.49033	4
1.49400	4
1.49767	1
1.50133	-1
1.50500	0
1.50867	4
1.51233	8
1.51600	8
1.51967	5
1.52333	4
1.52700	5
1.53067	6
1.53433	6
1.53800	8
1.54167	5
1.54533	2
1.54900	3
1.55267	1
1.55633	-2
1.56000	-5
1.56367	-7
1.56733	-8
1.57100	-8
1.57467	-9
1.57833	-9
1.58200	-7
1.58567	-4
1.58933	-1
1.59300	3
1.59667	5
1.60033	4
1.60400	3
1.60767	3
1.61133	2
1.61500	1
1.61867	-2
1.62233	-2
1.62600	-2
1.62967	-1
1.63333	-1
1.63700	-4
1.64067	-4
1.64433	-2
1.64800	0
1.65167	1
1.65533	5
1.65900	6
1.66267	5
1.66633	4
1.67000	6
1.67367	6
1.67733	8
1.68100	12
1.68467	14
1.68833	15
1.69200	16
1.69567	16
1.69933	15
1.70300	12
1.70667	11
1.71033	11
1.71400	11
1.71767	13
1.72133	15
1.72500	17
1.72867	18
1.73233	18
1.73600	18
1.73967	16
1.74333	17
1.74700	18
1.75067	15
1.75433	15
1.75800	15
1.76167	16
1.76533	16
1.76900	17
1.77267	18
1.77633	17
1.78000	17
1.78367	17
1.78733	18
1.79100	22
1.79467	25
1.79833	24
1.80200	21
1.80567	19
1.80933	19
1.81300	19
1.81667	20
1.82033	21
1.82400	21
1.82767	20
1.83133	19
1.83500	19
1.83867	21
1.84233	22
1.84600	23
1.84967	22
1.85333	22
1.85700	23
1.86067	22
1.86433	23
1.86800	22
1.87167	24
1.87533	29
1.87900	32
1.88267	32
1.88633	33
1.89000	33
1.89367	32
1.89733	29
1.90100	28
1.90467	29
1.90833	29
1.91200	28
1.91567	29
1.91933	32
1.92300	34
1.92667	35
1.93033	33
1.93400	32
1.93767	32
1.94133	33
1.94500	35
1.94867	35
1.95233	36
1.95600	34
1.95967	35
1.96333	37
1.96700	39
1.97067	41
1.97433	44
1.97800	44
1.98167	42
1.98533	38
1.98900	36
1.99267	36
1.99633	37
2.00000	38
2.00367	38
2.00733	39
2.01100	41
2.01467	43
2.01833	44
2.02200	44
2.02567	44
2.02933	43
2.03300	44
2.03667	43
2.04033	42
2.04400	45
2.04767	46
2.05133	45
2.05500	47
2.05867	49
2.06233	50
2.06600	51
2.06967	52
2.07333	53
2.07700	54
2.08067	54
2.08433	52
2.08800	54
2.09167	57
2.09533	59
2.09900	60
2.10267	58
2.10633	58
2.11000	60
2.11367	62
2.11733	62
2.12100	64
2.12467	65
2.12833	67
2.13200	68
2.13567	70
2.13933	69
2.14300	68
2.14667	67
2.15033	67
2.15400	67
2.15767	67
2.16133	67
2.16500	70
2.16867	72
2.17233	72
2.17600	69
2.17967	69
2.18333	71
2.18700	74
2.19067	77
2.19433	80
2.19800	82
2.20167	84
2.20533	84
2.20900	85
2.21267	85
2.21633	84
2.22000	83
2.22367	84
2.22733	85
2.23100	86
2.23467	87
2.23833	89
2.24200	89
2.24567	89
2.24933	89
2.25300	88
2.25667	88
2.26033	90
2.26400	93
2.26767	92
2.27133	92
2.27500	91
2.27867	92
2.28233	93
2.28600	95
2.28967	96
2.29333	97
2.29700	99
2.30067	102
2.30433	102
2.30800	100
2.31167	100
2.31533	101
2.31900	103
2.32267	104
2.32633	105
2.33000	105
2.33367	106
2.33733	107
2.34100	107
2.34467	108
2.34833	110
2.35200	111
2.35567	112
2.35933	113
2.36300	116
2.36667	119
2.37033	121
2.37400	122
2.37767	125
2.38133	125
2.38500	123
2.38867	120
2.39233	118
2.39600	118
2.39967	121
2.40333	123
2.40700	127
2.41067	130
2.41433	133
2.41800	137
2.42167	139
2.42533	137
2.42900	135
2.43267	133
2.43633	130
2.44000	132
2.44367	153
2.44733	209
2.45100	272
2.45467	321
2.45833	357
2.46200	386
2.46567	411
2.46933	432
2.47300	444
2.47667	454
2.48033	466
2.48400	483
2.48767	505
2.49133	529
2.49500	552
2.49867	574
2.50233	589
2.50600	596
2.50967	596
2.51333	593
2.51700	591
2.52067	587
2.52433	585
2.52800	590
2.53167	597
2.53533	604
2.53900	606
2.54267	610
2.54633	616
2.55000	623
2.55367	627
2.55733	634
2.56100	643
2.56467	649
2.56833	654
2.57200	656
2.57567	653
2.57933	647
2.58300	638
2.58667	627
2.59033	617
2.59400	606
2.59767	594
2.60133	581
2.60500	564
2.60867	547
2.61233	530
2.61600	510
2.61967	489
2.62333	465
2.62700	435
2.63067	407
2.63433	380
2.63800	355
2.64167	333
2.64533	317
2.64900	303
2.65267	293
2.65633	290
2.66000	291
2.66367	297
2.66733	302
2.67100	307
2.67467	312
2.67833	320
2.68200	326
2.68567	333
2.68933	341
2.69300	351
2.69667	363
2.70033	375
2.70400	384
2.70767	395
2.71133	405
2.71500	414
2.71867	420
2.72233	425
2.72600	427
2.72967	430
2.73333	432
2.73700	431
2.74067	431
2.74433	429
2.74800	427
2.75167	427
2.75533	427
2.75900	426
2.76267	423
2.76633	418
2.77000	413
2.77367	411
2.77733	408
2.78100	406
2.78467	403
2.78833	402
2.79200	404
2.79567	403
2.79933	400
2.80300	400
2.80667	398
2.81033	394
2.81400	392
2.81767	391
2.82133	390
2.82500	390
2.82867	397
2.83233	410
2.83600	440
2.83967	499
2.84333	609
2.84700	795
2.85067	1081
2.85433	1482
2.85800	1991
2.86167	2587
2.86533	3233
2.86900	3883
2.87267	4479
2.87633	4974
2.88000	5330
2.88367	5534
2.88733	5583
2.89100	5492
2.89467	5289
2.89833	5000
2.90200	4655
2.90567	4279
2.90933	3892
2.91300	3517
2.91667	3162
2.92033	2830
2.92400	2527
2.92767	2254
2.93133	2011
2.93500	1792
2.93867	1597
2.94233	1427
2.94600	1279
2.94967	1152
2.95333	1043
2.95700	947
2.96067	865
2.96433	795
2.96800	733
2.97167	677
2.97533	629
2.97900	589
2.98267	555
2.98633	524
2.99000	497
2.99367	476
2.99733	460
3.00100	445
3.00467	431
3.00833	418
3.01200	406
3.01567	395
3.01933	385
3.02300	378
3.02667	372
3.03033	368
3.03400	364
3.03767	363
3.04133	360
3.04500	353
3.04867	347
3.05233	343
3.05600	338
3.05967	335
3.06333	334
3.06700	334
3.07067	332
3.07433	329
3.07800	327
3.08167	326
3.08533	325
3.08900	325
3.09267	325
3.09633	323
3.10000	319
3.10367	314
3.10733	311
3.11100	311
3.11467	309
3.11833	303
3.12200	299
3.12567	297
3.12933	296
3.13300	294
3.13667	292
3.14033	289
3.14400	287
3.14767	280
3.15133	276
3.15500	274
3.15867	273
3.16233	272
3.16600	268
3.16967	264
3.17333	261
3.17700	260
3.18067	259
3.18433	258
3.18800	256
3.19167	254
3.19533	251
3.19900	250
3.20267	249
3.20633	244
3.21000	240
3.21367	235
3.21733	231
3.22100	230
3.22467	229
3.22833	229
3.23200	230
3.23567	229
3.23933	228
3.24300	226
3.24667	226
3.25033	224
3.25400	222
3.25767	220
3.26133	216
3.26500	212
3.26867	209
3.27233	208
3.27600	208
3.27967	208
3.28333	209
3.28700	207
3.29067	205
3.29433	203
3.29800	200
3.30167	200
3.30533	198
3.30900	195
3.31267	191
3.31633	189
3.32000	184
3.32367	180
3.32733	178
3.33100	174
3.33467	172
3.33833	171
3.34200	169
3.34567	166
3.34933	163
3.35300	160
3.35667	158
3.36033	157
3.36400	157
3.36767	156
3.37133	154
3.37500	152
3.37867	148
3.38233	145
3.38600	145
3.38967	145
3.39333	145
3.39700	144
3.40067	142
3.40433	139
3.40800	135
3.41167	133
3.41533	132
3.41900	131
3.42267	129
3.42633	130
3.43000	132
3.43367	131
3.43733	130
3.44100	129
3.44467	124
3.44833	119
3.45200	118
3.45567	118
3.45933	121
3.46300	123
3.46667	122
3.47033	120
3.47400	118
3.47767	114
3.48133	112
3.48500	112
3.48867	113
3.49233	113
3.49600	114
3.49967	113
3.50333	111
3.50700	110
3.51067	109
3.51433	106
3.51800	103
3.52167	102
3.52533	103
3.52900	103
3.53267	104
3.53633	105
3.54000	108
3.54367	108
3.54733	105
3.55100	103
3.55467	102
3.55833	99
3.56200	95
3.56567	94
3.56933	97
3.57300	99
3.57667	100
3.58033	99
3.58400	101
3.58767	101
3.59133	100
3.59500	99
3.59867	98
3.60233	96
3.60600	95
3.60967	94
3.61333	94
3.61700	93
3.62067	93
3.62433	92
3.62800	93
3.63167	92
3.63533	91
3.63900	92
3.64267	92
3.64633	92
3.65000	92
3.65367	91
3.65733	90
3.66100	91
3.66467	92
3.66833	90
3.67200	89
3.67567	89
3.67933	89
3.68300	87
3.68667	84
3.69033	82
3.69400	81
3.69767	82
3.70133	83
3.70500	84
3.70867	86
3.71233	89
3.71600	89
3.71967	88
3.72333	86
3.72700	84
3.73067	83
3.73433	84
3.73800	83
3.74167	79
3.74533	76
3.74900	77
3.75267	79
3.75633	82
3.76000	84
3.76367	83
3.76733	82
3.77100	79
3.77467	78
3.77833	79
3.78200	81
3.78567	81
3.78933	82
3.79300	81
3.79667	81
3.80033	80
3.80400	80
3.80767	81
3.81133	82
3.81500	81
3.81867	79
3.82233	75
3.82600	73
3.82967	73
3.83333	74
3.83700	75
3.84067	76
3.84433	75
3.84800	74
3.85167	75
3.85533	75
3.85900	74
3.86267	73
3.86633	71
3.87000	71
3.87367	72
3.87733	76
3.88100	76
3.88467	75
3.88833	75
3.89200	76
3.89567	77
3.89933	76
3.90300	73
3.90667	71
3.91033	69
3.91400	68
3.91767	65
3.92133	63
3.92500	62
3.92867	63
3.93233	62
3.93600	62
3.93967	62
3.94333	64
3.94700	65
3.95067	66
3.95433	69
3.95800	68
3.96167	67
3.96533	67
3.96900	68
3.97267	71
3.97633	71
3.98000	71
3.98367	72
3.98733	72
3.99100	71
3.99467	71
3.99833	72

[Status Trace (Column Oven Temperature)]
Interval(msec)	1000
# of Points	240
Start Time(min)	0.006
End Time(min)	3.990
Intensity Units	
Intensity Multiplier	1
R.Time (min)	Intensity
0.00623	34.99
0.02290	35.00
0.03957	35.00
0.05623	35.00
0.07290	35.00
0.08957	34.99
0.10623	34.99
0.12290	35.00
0.13957	34.99
0.15623	34.99
0.17290	34.98
0.18957	34.98
0.20623	34.98
0.22290	34.99
0.23957	34.99
0.25623	35.00
0.27290	34.99
0.28957	34.99
0.30623	34.99
0.32290	35.00
0.33957	35.00
0.35623	35.01
0.37290	35.01
0.38957	35.01
0.40623	35.01
0.42290	35.01
0.43957	35.01
0.45623	35.01
0.47290	35.01
0.48957	35.01
0.50623	35.01
0.52290	35.01
0.53957	35.00
0.55623	35.00
0.57290	34.99
0.58957	34.99
0.60623	34.99
0.62290	35.00
0.63957	35.00
0.65623	35.01
0.67290	35.00
0.68957	34.99
0.70623	34.99
0.72290	35.00
0.73957	34.99
0.75623	34.99
0.77290	34.99
0.78957	34.98
0.80623	34.98
0.82290	34.98
0.83957	34.98
0.85623	34.99
0.87290	34.99
0.88957	34.99
0.90623	34.99
0.92290	34.99
0.93957	34.99
0.95623	34.99
0.97290	35.00
0.98957	35.00
1.00623	35.00
1.02290	35.01
1.03957	35.01
1.05623	35.00
1.07290	35.00
1.08957	34.99
1.10623	35.00
1.12290	35.00
1.13957	35.00
1.15623	35.00
1.17290	35.00
1.18957	35.00
1.20623	34.99
1.22290	34.99
1.23957	34.98
1.25623	34.99
1.27290	34.98
1.28957	34.99
1.30623	34.99
1.32290	34.99
1.33957	35.00
1.35623	35.01
1.37290	35.02
1.38957	35.02
1.40623	35.01
1.42290	35.01
1.43957	35.00
1.45623	34.99
1.47290	34.99
1.48957	34.99
1.50623	34.99
1.52290	34.99
1.53957	35.00
1.55623	35.01
1.57290	35.02
1.58957	35.03
1.60623	35.08
1.62290	35.19
1.63957	35.37
1.65623	35.61
1.67290	35.92
1.68957	36.29
1.70623	36.63
1.72290	36.99
1.73957	37.32
1.75623	37.64
1.77290	37.97
1.78957	38.31
1.80623	38.65
1.82290	38.98
1.83957	39.31
1.85623	39.64
1.87290	39.97
1.88957	40.31
1.90623	40.62
1.92290	40.95
1.93957	41.28
1.95623	41.60
1.97290	41.93
1.98957	42.27
2.00623	42.59
2.02290	42.90
2.03957	43.24
2.05623	43.56
2.07290	43.88
2.08957	44.21
2.10623	44.54
2.12290	44.86
2.13957	45.18
2.15623	45.49
2.17290	45.82
2.18957	46.16
2.20623	46.49
2.22290	46.80
2.23957	47.13
2.25623	47.46
2.27290	47.79
2.28957	48.12
2.30623	48.47
2.32290	48.79
2.33957	49.11
2.35623	49.44
2.37290	49.66
2.38957	49.73
2.40623	49.71
2.42290	49.71
2.43957	49.72
2.45623	49.75
2.47290	49.75
2.48957	49.75
2.50623	49.77
2.52290	49.77
2.53957	49.79
2.55623	49.83
2.57290	49.84
2.58957	49.84
2.60623	49.82
2.62290	49.83
2.63957	49.83
2.65623	49.84
2.67290	49.84
2.68957	49.85
2.70623	49.85
2.72290	49.87
2.73957	49.86
2.75623	49.85
2.77290	49.85
2.78957	49.87
2.80623	49.87
2.82290	49.86
2.83957	49.86
2.85623	49.86
2.87290	49.86
2.88957	49.86
2.90623	49.87
2.92290	49.88
2.93957	49.90
2.95623	49.91
2.97290	49.92
2.98957	49.93
3.00623	49.95
3.02290	49.97
3.03957	49.99
3.05623	50.01
3.07290	50.01
3.08957	50.02
3.10623	50.03
3.12290	50.02
3.13957	50.03
3.15623	50.04
3.17290	50.04
3.18957	50.04
3.20623	50.04
3.22290	50.06
3.23957	50.06
3.25623	50.07
3.27290	50.08
3.28957	50.09
3.30623	50.10
3.32290	50.10
3.33957	50.10
3.35623	50.11
3.37290	50.10
3.38957	50.09
3.40623	50.07
3.42290	50.07
3.43957	50.05
3.45623	50.05
3.47290	50.05
3.48957	50.04
3.50623	50.03
3.52290	50.03
3.53957	50.03
3.55623	50.03
3.57290	50.04
3.58957	50.05
3.60623	50.05
3.62290	50.05
3.63957	50.06
3.65623	50.06
3.67290	50.06
3.68957	50.06
3.70623	50.06
3.72290	50.06
3.73957	50.05
3.75623	50.06
3.77290	50.06
3.78957	50.06
3.80623	50.05
3.82290	50.05
3.83957	50.05
3.85623	50.05
3.87290	50.05
3.88957	50.04
3.90623	50.04
3.92290	50.05
3.93957	50.05
3.95623	50.05
3.97290	50.05
3.98957	50.05

[Status Trace (Injection Unit Temperature)]
Interval(msec)	1000
# of Points	240
Start Time(min)	0.006
End Time(min)	3.990
Intensity Units	
Intensity Multiplier	1
R.Time (min)	Intensity
0.00623	99.98
0.02290	99.98
0.03957	99.98
0.05623	99.98
0.07290	99.98
0.08957	99.98
0.10623	99.98
0.12290	99.98
0.13957	99.98
0.15623	99.98
0.17290	99.98
0.18957	99.98
0.20623	99.98
0.22290	99.98
0.23957	99.99
0.25623	99.99
0.27290	99.99
0.28957	99.98
0.30623	99.98
0.32290	99.99
0.33957	99.99
0.35623	99.98
0.37290	99.99
0.38957	99.98
0.40623	99.99
0.42290	99.99
0.43957	99.99
0.45623	99.99
0.47290	99.99
0.48957	99.99
0.50623	99.98
0.52290	99.99
0.53957	99.99
0.55623	99.99
0.57290	99.99
0.58957	99.99
0.60623	99.99
0.62290	99.98
0.63957	99.99
0.65623	99.99
0.67290	99.99
0.68957	99.99
0.70623	99.99
0.72290	99.99
0.73957	99.99
0.75623	99.99
0.77290	99.99
0.78957	99.99
0.80623	99.98
0.82290	99.99
0.83957	99.99
0.85623	99.99
0.87290	99.99
0.88957	99.99
0.90623	99.99
0.92290	99.99
0.93957	99.99
0.95623	99.99
0.97290	99.99
0.98957	99.99
1.00623	99.99
1.02290	99.99
1.03957	99.98
1.05623	99.98
1.07290	99.99
1.08957	99.99
1.10623	99.99
1.12290	99.99
1.13957	99.99
1.15623	99.98
1.17290	99.99
1.18957	99.99
1.20623	99.99
1.22290	99.99
1.23957	99.99
1.25623	99.99
1.27290	99.99
1.28957	99.99
1.30623	99.99
1.32290	99.98
1.33957	99.99
1.35623	99.99
1.37290	99.99
1.38957	99.99
1.40623	99.98
1.42290	99.99
1.43957	99.99
1.45623	99.99
1.47290	99.99
1.48957	99.99
1.50623	99.99
1.52290	99.99
1.53957	99.99
1.55623	99.99
1.57290	99.99
1.58957	99.99
1.60623	99.99
1.62290	99.99
1.63957	99.99
1.65623	99.99
1.67290	99.99
1.68957	99.99
1.70623	99.99
1.72290	99.99
1.73957	99.99
1.75623	99.99
1.77290	99.99
1.78957	99.98
1.80623	99.99
1.82290	99.98
1.83957	99.99
1.85623	99.99
1.87290	99.98
1.88957	99.99
1.90623	99.98
1.92290	99.99
1.93957	99.98
1.95623	99.98
1.97290	99.98
1.98957	99.98
2.00623	99.98
2.02290	99.98
2.03957	99.98
2.05623	99.98
2.07290	99.98
2.08957	99.98
2.10623	99.97
2.12290	99.98
2.13957	99.98
2.15623	99.98
2.17290	99.97
2.18957	99.98
2.20623	99.98
2.22290	99.97
2.23957	99.98
2.25623	99.97
2.27290	99.98
2.28957	99.98
2.30623	99.97
2.32290	99.98
2.33957	99.98
2.35623	99.98
2.37290	99.98
2.38957	99.98
2.40623	99.98
2.42290	99.98
2.43957	99.98
2.45623	99.98
2.47290	99.98
2.48957	99.98
2.50623	99.98
2.52290	99.98
2.53957	99.98
2.55623	99.98
2.57290	99.98
2.58957	99.98
2.60623	99.99
2.62290	99.99
2.63957	99.99
2.65623	99.99
2.67290	99.99
2.68957	99.99
2.70623	99.99
2.72290	99.99
2.73957	99.99
2.75623	100.00
2.77290	99.99
2.78957	99.99
2.80623	100.00
2.82290	100.00
2.83957	100.00
2.85623	100.00
2.87290	100.00
2.88957	100.00
2.90623	100.00
2.92290	100.01
2.93957	100.01
2.95623	100.01
2.97290	100.01
2.98957	100.01
3.00623	100.01
3.02290	100.01
3.03957	100.01
3.05623	100.01
3.07290	100.01
3.08957	100.02
3.10623	100.01
3.12290	100.01
3.13957	100.01
3.15623	100.02
3.17290	100.02
3.18957	100.02
3.20623	100.02
3.22290	100.02
3.23957	100.02
3.25623	100.02
3.27290	100.03
3.28957	100.03
3.30623	100.03
3.32290	100.03
3.33957	100.03
3.35623	100.03
3.37290	100.03
3.38957	100.03
3.40623	100.04
3.42290	100.03
3.43957	100.04
3.45623	100.04
3.47290	100.04
3.48957	100.04
3.50623	100.03
3.52290	100.04
3.53957	100.04
3.55623	100.04
3.57290	100.04
3.58957	100.04
3.60623	100.04
3.62290	100.04
3.63957	100.04
3.65623	100.04
3.67290	100.04
3.68957	100.04
3.70623	100.04
3.72290	100.04
3.73957	100.05
3.75623	100.05
3.77290	100.04
3.78957	100.04
3.80623	100.05
3.82290	100.04
3.83957	100.05
3.85623	100.05
3.87290	100.05
3.88957	100.05
3.90623	100.05
3.92290	100.05
3.93957	100.05
3.95623	100.05
3.97290	100.05
3.98957	100.05

[Status Trace (Carrier Gas Pressure)]
Interval(msec)	1000
# of Points	240
Start Time(min)	0.006
End Time(min)	3.990
Intensity Units	
Intensity Multiplier	1
R.Time (min)	Intensity
0.00623	58.00
0.02290	55.62
0.03957	56.89
0.05623	58.94
0.07290	59.69
0.08957	58.13
0.10623	57.97
0.12290	58.01
0.13957	58.01
0.15623	58.01
0.17290	58.00
0.18957	58.00
0.20623	58.00
0.22290	58.00
0.23957	58.00
0.25623	58.00
0.27290	58.00
0.28957	58.00
0.30623	58.00
0.32290	58.00
0.33957	58.00
0.35623	58.00
0.37290	58.00
0.38957	58.00
0.40623	58.00
0.42290	58.00
0.43957	58.00
0.45623	58.00
0.47290	58.00
0.48957	58.00
0.50623	58.00
0.52290	58.00
0.53957	58.00
0.55623	58.00
0.57290	58.00
0.58957	58.00
0.60623	58.00
0.62290	58.00
0.63957	58.00
0.65623	58.00
0.67290	58.00
0.68957	58.00
0.70623	58.00
0.72290	58.00
0.73957	58.00
0.75623	58.00
0.77290	58.00
0.78957	58.00
0.80623	58.00
0.82290	58.00
0.83957	58.00
0.85623	58.00
0.87290	58.00
0.88957	58.00
0.90623	58.00
0.92290	58.00
0.93957	58.00
0.95623	58.00
0.97290	58.00
0.98957	58.00
1.00623	58.00
1.02290	58.00
1.03957	58.00
1.05623	58.00
1.07290	58.00
1.08957	58.00
1.10623	58.00
1.12290	58.00
1.13957	58.00
1.15623	58.00
1.17290	58.00
1.18957	58.00
1.20623	58.00
1.22290	58.00
1.23957	58.00
1.25623	58.00
1.27290	58.00
1.28957	58.00
1.30623	58.00
1.32290	58.00
1.33957	58.00
1.35623	58.00
1.37290	58.00
1.38957	58.00
1.40623	58.00
1.42290	58.00
1.43957	58.00
1.45623	58.00
1.47290	58.00
1.48957	58.00
1.50623	58.00
1.52290	58.00
1.53957	58.00
1.55623	58.00
1.57290	58.00
1.58957	58.00
1.60623	58.00
1.62290	58.00
1.63957	58.00
1.65623	58.00
1.67290	58.01
1.68957	58.00
1.70623	58.00
1.72290	58.00
1.73957	58.00
1.75623	58.00
1.77290	58.00
1.78957	58.00
1.80623	58.00
1.82290	58.00
1.83957	58.00
1.85623	58.00
1.87290	58.00
1.88957	58.00
1.90623	58.00
1.92290	58.00
1.93957	58.00
1.95623	58.00
1.97290	58.00
1.98957	58.00
2.00623	58.00
2.02290	58.00
2.03957	58.00
2.05623	58.00
2.07290	58.00
2.08957	58.00
2.10623	58.00
2.12290	58.00
2.13957	58.00
2.15623	58.00
2.17290	58.00
2.18957	58.00
2.20623	58.00
2.22290	58.00
2.23957	58.00
2.25623	58.00
2.27290	58.00
2.28957	58.00
2.30623	58.00
2.32290	58.00
2.33957	58.00
2.35623	58.00
2.37290	58.00
2.38957	57.99
2.40623	57.99
2.42290	58.00
2.43957	58.00
2.45623	58.00
2.47290	58.00
2.48957	58.00
2.50623	57.99
2.52290	57.99
2.53957	58.00
2.55623	58.00
2.57290	58.00
2.58957	58.00
2.60623	58.00
2.62290	58.00
2.63957	58.00
2.65623	58.00
2.67290	58.00
2.68957	58.00
2.70623	58.00
2.72290	58.00
2.73957	58.00
2.75623	58.00
2.77290	58.00
2.78957	58.00
2.80623	58.00
2.82290	58.00
2.83957	58.00
2.85623	58.00
2.87290	58.00
2.88957	58.00
2.90623	58.00
2.92290	58.00
2.93957	58.00
2.95623	58.00
2.97290	58.00
2.98957	58.00
3.00623	58.00
3.02290	58.00
3.03957	58.00
3.05623	58.00
3.07290	58.00
3.08957	58.00
3.10623	58.00
3.12290	58.00
3.13957	58.00
3.15623	58.00
3.17290	58.00
3.18957	58.00
3.20623	58.00
3.22290	58.00
3.23957	58.00
3.25623	58.00
3.27290	58.00
3.28957	58.00
3.30623	58.00
3.32290	58.00
3.33957	58.00
3.35623	58.00
3.37290	58.00
3.38957	58.00
3.40623	58.00
3.42290	58.00
3.43957	58.00
3.45623	58.00
3.47290	58.00
3.48957	58.00
3.50623	58.00
3.52290	58.00
3.53957	58.00
3.55623	58.00
3.57290	58.00
3.58957	58.00
3.60623	58.00
3.62290	58.00
3.63957	58.00
3.65623	58.00
3.67290	58.00
3.68957	58.00
3.70623	58.00
3.72290	58.00
3.73957	58.00
3.75623	58.00
3.77290	58.00
3.78957	58.00
3.80623	58.00
3.82290	58.00
3.83957	58.00
3.85623	58.00
3.87290	58.00
3.88957	58.00
3.90623	58.00
3.92290	58.00
3.93957	58.00
3.95623	58.00
3.97290	58.00
3.98957	58.00

[Status Trace (Carrier Gas Flow)]
Interval(msec)	1000
# of Points	240
Start Time(min)	0.006
End Time(min)	3.990
Intensity Units	
Intensity Multiplier	1
R.Time (min)	Intensity
0.00623	34.52
0.02290	34.54
0.03957	34.54
0.05623	34.55
0.07290	34.49
0.08957	34.51
0.10623	34.52
0.12290	34.52
0.13957	34.52
0.15623	34.52
0.17290	34.52
0.18957	34.52
0.20623	34.52
0.22290	34.52
0.23957	34.52
0.25623	34.52
0.27290	34.52
0.28957	34.52
0.30623	34.52
0.32290	34.52
0.33957	34.52
0.35623	34.52
0.37290	34.52
0.38957	34.52
0.40623	34.52
0.42290	34.52
0.43957	34.52
0.45623	34.52
0.47290	34.52
0.48957	34.52
0.50623	34.52
0.52290	34.52
0.53957	34.52
0.55623	34.52
0.57290	34.52
0.58957	34.52
0.60623	34.52
0.62290	34.52
0.63957	34.52
0.65623	34.52
0.67290	34.52
0.68957	34.52
0.70623	34.52
0.72290	34.52
0.73957	34.52
0.75623	34.52
0.77290	34.52
0.78957	34.52
0.80623	34.52
0.82290	34.52
0.83957	34.52
0.85623	34.52
0.87290	34.52
0.88957	34.52
0.90623	34.52
0.92290	34.52
0.93957	34.52
0.95623	34.52
0.97290	34.52
0.98957	34.52
1.00623	34.52
1.02290	34.52
1.03957	34.52
1.05623	34.52
1.07290	34.52
1.08957	34.52
1.10623	34.52
1.12290	34.52
1.13957	34.52
1.15623	34.52
1.17290	34.52
1.18957	34.52
1.20623	34.52
1.22290	34.52
1.23957	34.52
1.25623	34.52
1.27290	34.52
1.28957	34.52
1.30623	34.52
1.32290	34.52
1.33957	34.52
1.35623	34.52
1.37290	34.52
1.38957	34.52
1.40623	34.52
1.42290	34.52
1.43957	34.52
1.45623	34.52
1.47290	34.52
1.48957	34.52
1.50623	34.52
1.52290	34.52
1.53957	34.52
1.55623	34.52
1.57290	34.52
1.58957	34.52
1.60623	34.52
1.62290	34.52
1.63957	34.52
1.65623	34.52
1.67290	34.52
1.68957	34.52
1.70623	34.52
1.72290	34.52
1.73957	34.52
1.75623	34.52
1.77290	34.54
1.78957	34.51
1.80623	34.52
1.82290	34.52
1.83957	34.52
1.85623	34.52
1.87290	34.52
1.88957	34.52
1.90623	34.52
1.92290	34.52
1.93957	34.52
1.95623	34.52
1.97290	34.52
1.98957	34.52
2.00623	34.52
2.02290	34.52
2.03957	34.52
2.05623	34.52
2.07290	34.52
2.08957	34.52
2.10623	34.51
2.12290	34.52
2.13957	34.52
2.15623	34.50
2.17290	34.52
2.18957	34.52
2.20623	34.51
2.22290	34.53
2.23957	34.52
2.25623	34.51
2.27290	34.52
2.28957	34.52
2.30623	34.52
2.32290	34.52
2.33957	34.52
2.35623	34.52
2.37290	34.52
2.38957	34.52
2.40623	34.52
2.42290	34.51
2.43957	34.52
2.45623	34.52
2.47290	34.52
2.48957	34.52
2.50623	34.52
2.52290	34.52
2.53957	34.52
2.55623	34.52
2.57290	34.52
2.58957	34.52
2.60623	34.52
2.62290	34.52
2.63957	34.52
2.65623	34.52
2.67290	34.52
2.68957	34.52
2.70623	34.52
2.72290	34.52
2.73957	34.52
2.75623	34.52
2.77290	34.52
2.78957	34.52
2.80623	34.52
2.82290	34.52
2.83957	34.52
2.85623	34.52
2.87290	34.52
2.88957	34.52
2.90623	34.52
2.92290	34.52
2.93957	34.52
2.95623	34.52
2.97290	34.52
2.98957	34.52
3.00623	34.52
3.02290	34.52
3.03957	34.52
3.05623	34.52
3.07290	34.52
3.08957	34.52
3.10623	34.52
3.12290	34.52
3.13957	34.52
3.15623	34.52
3.17290	34.52
3.18957	34.52
3.20623	34.52
3.22290	34.52
3.23957	34.52
3.25623	34.52
3.27290	34.52
3.28957	34.52
3.30623	34.52
3.32290	34.52
3.33957	34.52
3.35623	34.52
3.37290	34.52
3.38957	34.52
3.40623	34.52
3.42290	34.52
3.43957	34.52
3.45623	34.52
3.47290	34.52
3.48957	34.52
3.50623	34.52
3.52290	34.52
3.53957	34.52
3.55623	34.52
3.57290	34.52
3.58957	34.52
3.60623	34.52
3.62290	34.52
3.63957	34.52
3.65623	34.52
3.67290	34.52
3.68957	34.52
3.70623	34.52
3.72290	34.52
3.73957	34.52
3.75623	34.52
3.77290	34.52
3.78957	34.52
3.80623	34.52
3.82290	34.52
3.83957	34.52
3.85623	34.52
3.87290	34.52
3.88957	34.52
3.90623	34.52
3.92290	34.52
3.93957	34.52
3.95623	34.52
3.97290	34.52
3.98957	34.52

[Status Trace (Column Flow)]
Interval(msec)	1000
# of Points	240
Start Time(min)	0.006
End Time(min)	3.990
Intensity Units	
Intensity Multiplier	1
R.Time (min)	Intensity
0.00623	5.56
0.02290	5.28
0.03957	5.43
0.05623	5.67
0.07290	5.76
0.08957	5.57
0.10623	5.55
0.12290	5.56
0.13957	5.56
0.15623	5.56
0.17290	5.56
0.18957	5.56
0.20623	5.56
0.22290	5.56
0.23957	5.56
0.25623	5.56
0.27290	5.56
0.28957	5.56
0.30623	5.56
0.32290	5.56
0.33957	5.56
0.35623	5.56
0.37290	5.56
0.38957	5.56
0.40623	5.56
0.42290	5.56
0.43957	5.56
0.45623	5.56
0.47290	5.56
0.48957	5.56
0.50623	5.56
0.52290	5.56
0.53957	5.56
0.55623	5.56
0.57290	5.56
0.58957	5.56
0.60623	5.56
0.62290	5.56
0.63957	5.56
0.65623	5.56
0.67290	5.56
0.68957	5.56
0.70623	5.56
0.72290	5.56
0.73957	5.56
0.75623	5.56
0.77290	5.56
0.78957	5.56
0.80623	5.56
0.82290	5.56
0.83957	5.56
0.85623	5.56
0.87290	5.56
0.88957	5.56
0.90623	5.56
0.92290	5.56
0.93957	5.56
0.95623	5.56
0.97290	5.56
0.98957	5.56
1.00623	5.56
1.02290	5.56
1.03957	5.56
1.05623	5.56
1.07290	5.56
1.08957	5.56
1.10623	5.56
1.12290	5.56
1.13957	5.56
1.15623	5.56
1.17290	5.56
1.18957	5.56
1.20623	5.56
1.22290	5.56
1.23957	5.56
1.25623	5.56
1.27290	5.56
1.28957	5.56
1.30623	5.56
1.32290	5.56
1.33957	5.56
1.35623	5.56
1.37290	5.56
1.38957	5.56
1.40623	5.56
1.42290	5.56
1.43957	5.56
1.45623	5.56
1.47290	5.56
1.48957	5.56
1.50623	5.56
1.52290	5.56
1.53957	5.56
1.55623	5.56
1.57290	5.56
1.58957	5.56
1.60623	5.55
1.62290	5.55
1.63957	5.54
1.65623	5.54
1.67290	5.53
1.68957	5.52
1.70623	5.51
1.72290	5.49
1.73957	5.48
1.75623	5.47
1.77290	5.46
1.78957	5.45
1.80623	5.44
1.82290	5.43
1.83957	5.42
1.85623	5.41
1.87290	5.40
1.88957	5.39
1.90623	5.38
1.92290	5.37
1.93957	5.36
1.95623	5.35
1.97290	5.34
1.98957	5.33
2.00623	5.32
2.02290	5.31
2.03957	5.30
2.05623	5.29
2.07290	5.28
2.08957	5.28
2.10623	5.27
2.12290	5.26
2.13957	5.25
2.15623	5.24
2.17290	5.23
2.18957	5.22
2.20623	5.21
2.22290	5.20
2.23957	5.19
2.25623	5.18
2.27290	5.17
2.28957	5.16
2.30623	5.15
2.32290	5.14
2.33957	5.13
2.35623	5.13
2.37290	5.12
2.38957	5.12
2.40623	5.12
2.42290	5.12
2.43957	5.12
2.45623	5.12
2.47290	5.12
2.48957	5.12
2.50623	5.12
2.52290	5.11
2.53957	5.12
2.55623	5.11
2.57290	5.11
2.58957	5.11
2.60623	5.11
2.62290	5.11
2.63957	5.11
2.65623	5.11
2.67290	5.11
2.68957	5.11
2.70623	5.11
2.72290	5.11
2.73957	5.11
2.75623	5.11
2.77290	5.11
2.78957	5.11
2.80623	5.11
2.82290	5.11
2.83957	5.11
2.85623	5.11
2.87290	5.11
2.88957	5.11
2.90623	5.11
2.92290	5.11
2.93957	5.11
2.95623	5.11
2.97290	5.11
2.98957	5.11
3.00623	5.11
3.02290	5.11
3.03957	5.11
3.05623	5.11
3.07290	5.11
3.08957	5.11
3.10623	5.11
3.12290	5.11
3.13957	5.11
3.15623	5.11
3.17290	5.11
3.18957	5.11
3.20623	5.11
3.22290	5.11
3.23957	5.11
3.25623	5.11
3.27290	5.11
3.28957	5.11
3.30623	5.11
3.32290	5.11
3.33957	5.11
3.35623	5.11
3.37290	5.11
3.38957	5.11
3.40623	5.11
3.42290	5.11
3.43957	5.11
3.45623	5.11
3.47290	5.11
3.48957	5.11
3.50623	5.11
3.52290	5.11
3.53957	5.11
3.55623	5.11
3.57290	5.11
3.58957	5.11
3.60623	5.11
3.62290	5.11
3.63957	5.11
3.65623	5.11
3.67290	5.11
3.68957	5.11
3.70623	5.11
3.72290	5.11
3.73957	5.11
3.75623	5.11
3.77290	5.11
3.78957	5.11
3.80623	5.11
3.82290	5.11
3.83957	5.11
3.85623	5.11
3.87290	5.11
3.88957	5.11
3.90623	5.11
3.92290	5.11
3.93957	5.11
3.95623	5.11
3.97290	5.11
3.98957	5.11

[Status Trace (Linear Velocity)]
Interval(msec)	1000
# of Points	240
Start Time(min)	0.006
End Time(min)	3.990
Intensity Units	
Intensity Multiplier	1
R.Time (min)	Intensity
0.00623	39.03
0.02290	37.46
0.03957	38.29
0.05623	39.64
0.07290	40.13
0.08957	39.11
0.10623	39.01
0.12290	39.03
0.13957	39.03
0.15623	39.03
0.17290	39.03
0.18957	39.03
0.20623	39.03
0.22290	39.03
0.23957	39.03
0.25623	39.03
0.27290	39.03
0.28957	39.03
0.30623	39.03
0.32290	39.03
0.33957	39.03
0.35623	39.02
0.37290	39.02
0.38957	39.02
0.40623	39.02
0.42290	39.02
0.43957	39.02
0.45623	39.02
0.47290	39.02
0.48957	39.02
0.50623	39.02
0.52290	39.02
0.53957	39.02
0.55623	39.02
0.57290	39.03
0.58957	39.03
0.60623	39.03
0.62290	39.03
0.63957	39.02
0.65623	39.02
0.67290	39.02
0.68957	39.03
0.70623	39.03
0.72290	39.03
0.73957	39.03
0.75623	39.03
0.77290	39.03
0.78957	39.03
0.80623	39.03
0.82290	39.03
0.83957	39.03
0.85623	39.03
0.87290	39.03
0.88957	39.03
0.90623	39.03
0.92290	39.03
0.93957	39.03
0.95623	39.03
0.97290	39.03
0.98957	39.02
1.00623	39.02
1.02290	39.02
1.03957	39.02
1.05623	39.02
1.07290	39.02
1.08957	39.03
1.10623	39.02
1.12290	39.02
1.13957	39.02
1.15623	39.02
1.17290	39.02
1.18957	39.02
1.20623	39.03
1.22290	39.03
1.23957	39.03
1.25623	39.03
1.27290	39.03
1.28957	39.03
1.30623	39.03
1.32290	39.03
1.33957	39.02
1.35623	39.02
1.37290	39.02
1.38957	39.02
1.40623	39.02
1.42290	39.02
1.43957	39.02
1.45623	39.03
1.47290	39.03
1.48957	39.03
1.50623	39.03
1.52290	39.03
1.53957	39.03
1.55623	39.02
1.57290	39.02
1.58957	39.02
1.60623	39.02
1.62290	39.01
1.63957	38.99
1.65623	38.97
1.67290	38.94
1.68957	38.90
1.70623	38.87
1.72290	38.84
1.73957	38.80
1.75623	38.78
1.77290	38.74
1.78957	38.71
1.80623	38.68
1.82290	38.65
1.83957	38.61
1.85623	38.59
1.87290	38.55
1.88957	38.52
1.90623	38.49
1.92290	38.46
1.93957	38.43
1.95623	38.40
1.97290	38.37
1.98957	38.34
2.00623	38.31
2.02290	38.28
2.03957	38.25
2.05623	38.22
2.07290	38.19
2.08957	38.16
2.10623	38.13
2.12290	38.10
2.13957	38.07
2.15623	38.05
2.17290	38.01
2.18957	37.98
2.20623	37.96
2.22290	37.93
2.23957	37.90
2.25623	37.87
2.27290	37.84
2.28957	37.81
2.30623	37.78
2.32290	37.75
2.33957	37.72
2.35623	37.69
2.37290	37.67
2.38957	37.66
2.40623	37.66
2.42290	37.67
2.43957	37.66
2.45623	37.66
2.47290	37.66
2.48957	37.66
2.50623	37.66
2.52290	37.65
2.53957	37.66
2.55623	37.66
2.57290	37.65
2.58957	37.65
2.60623	37.66
2.62290	37.66
2.63957	37.65
2.65623	37.65
2.67290	37.65
2.68957	37.65
2.70623	37.65
2.72290	37.65
2.73957	37.65
2.75623	37.65
2.77290	37.65
2.78957	37.65
2.80623	37.65
2.82290	37.65
2.83957	37.65
2.85623	37.65
2.87290	37.65
2.88957	37.65
2.90623	37.65
2.92290	37.65
2.93957	37.65
2.95623	37.65
2.97290	37.65
2.98957	37.65
3.00623	37.64
3.02290	37.64
3.03957	37.64
3.05623	37.64
3.07290	37.64
3.08957	37.64
3.10623	37.64
3.12290	37.64
3.13957	37.64
3.15623	37.64
3.17290	37.64
3.18957	37.64
3.20623	37.64
3.22290	37.64
3.23957	37.63
3.25623	37.63
3.27290	37.63
3.28957	37.63
3.30623	37.63
3.32290	37.63
3.33957	37.63
3.35623	37.63
3.37290	37.63
3.38957	37.63
3.40623	37.63
3.42290	37.63
3.43957	37.64
3.45623	37.64
3.47290	37.64
3.48957	37.64
3.50623	37.64
3.52290	37.64
3.53957	37.64
3.55623	37.64
3.57290	37.64
3.58957	37.64
3.60623	37.64
3.62290	37.64
3.63957	37.64
3.65623	37.64
3.67290	37.63
3.68957	37.63
3.70623	37.63
3.72290	37.63
3.73957	37.64
3.75623	37.64
3.77290	37.63
3.78957	37.64
3.80623	37.63
3.82290	37.64
3.83957	37.64
3.85623	37.64
3.87290	37.64
3.88957	37.64
3.90623	37.64
3.92290	37.64
3.93957	37.64
3.95623	37.64
3.97290	37.64
3.98957	37.64

