[Header]
Application Name	LabSolutions
Version	5.110
Data File Name	C:\Users\User\Desktop\GC Analyses\Jack\UIC Prairie Sampling\9.30.22\220930_038.gcd
Output Date	1/4/2023
Output Time	2:27:58 PM

[File Information]
Type	Data File
Generated	11/30/2022 11:26:47 AM
Generated by	System Administrator
Modified	11/30/2022 11:31:12 AM
Modified by	System Administrator

[Sample Information]
Operator Name	System Administrator
Acquired	11/30/2022 11:27:12 AM
Sample Type	1:Standard
Level	1
Sample Name	220930_UICPrairie
Sample ID	220930_UICPrairie
ISTD Amount1	1
ISTD Amount2	1
ISTD Amount3	1
ISTD Amount4	1
ISTD Amount5	1
ISTD Amount6	1
ISTD Amount7	1
ISTD Amount8	1
ISTD Amount9	1
ISTD Amount10	1
ISTD Amount11	1
ISTD Amount12	1
ISTD Amount13	1
ISTD Amount14	1
ISTD Amount15	1
ISTD Amount16	1
ISTD Amount17	1
ISTD Amount18	1
ISTD Amount19	1
ISTD Amount20	1
ISTD Amount21	1
ISTD Amount22	1
ISTD Amount23	1
ISTD Amount24	1
ISTD Amount25	1
ISTD Amount26	1
ISTD Amount27	1
ISTD Amount28	1
ISTD Amount29	1
ISTD Amount30	1
ISTD Amount31	1
ISTD Amount32	1
Sample Amount	1
Dilution Factor	1
Vial#	1
Injection Volume	1
Injection Count	1
Bar Code	

[Original Files]
Data File	C:\Users\User\Desktop\GC Analyses\Jack\UIC Prairie Sampling\9.30.22\220930_038.gcd
Method File	C:\LabSolutions\Data\GHG_4min_2022\ghg3_togas_w_acet_4 min_new_int.gcm
Batch File	
Report Format File	c:\LabSolutions\System\DEFAULT.lsr

[File Description]


[Configuration]
Instrument Name	C0B7VH3-Instrument1
Instrument #	1
Line #	1
# of Detectors	3
Detector ID	DET#1	DET#2	DET#3
Detector Name	FID	PTCD	ECD
# of Channels	1	1	1

[Peak Table(Ch1)]
# of Peaks	3
Peak#	R.Time	I.Time	F.Time	Area	Height	A/H	Conc.	Mark	ID#	Name	k'	Plate #	Plate Ht.	Tailing	Resolution	Sep.Factor	Area Ratio	Height Ratio	Conc. %	Norm Conc.
1	1.479	1.435	1.538	13219	5919	2.234	100.000	   	1	CO	0.000	8469	17.712	1.186	0.000	0.000	0	0	16.667	16.667
2	1.571	1.538	1.626	4599	2281	2.016	100.000	 V 	2	CH4	0.062	11018	13.614	0.000	1.477	0.000	0	0	16.667	16.667
3	2.000	1.952	2.425	1713565	818638	2.093	400.000	   	3	CO2	0.352	17592	8.527	1.206	7.139	5.680	0	0	66.667	66.667

[Peak Table(Ch2)]
# of Peaks	0

[Peak Table(Ch3)]
# of Peaks	5
Peak#	R.Time	I.Time	F.Time	Area	Height	A/H	Conc.	Mark	ID#	Name	k'	Plate #	Plate Ht.	Tailing	Resolution	Sep.Factor	Area Ratio	Height Ratio	Conc. %	Norm Conc.
1	2.458	2.341	2.499	1365	326	4.184	0.000	   			0.000	7453	20.125	0.000	0.000	0.000	0	0	0.000	0.000
2	2.521	2.499	2.557	668	217	3.076	0.000	 V 			0.025	2102	71.360	0.000	0.373	0.000	0	0	0.000	0.000
3	2.609	2.557	2.653	978	258	3.790	0.000	 V 			0.061	4652	32.242	0.000	0.472	2.412	0	0	0.000	0.000
4	2.887	2.671	3.166	25044	5423	4.618	1.000	   	1	N2O	0.175	12638	11.869	1.661	2.179	2.854	0	0	50.000	50.000
5	3.265	3.166	3.826	5861	227	25.833	1.000	 V 	2	SF6	0.328	80	1886.740	0.000	0.482	1.880	0	0	50.000	50.000

[Compound Results(Ch1)]
# of IDs	6
ID#	Name	R.Time	Area	Height	Conc.	Curve	3rd	2nd	1st	Constant	Area Ratio	Height Ratio	Conc. %	Norm Conc.
1	CO	1.479	13219	5919	100.000	Linear	0.000000e+00	0.000000e+00	1.321945e+002	0.000000e+00	0	0	16.667	16.667
2	CH4	1.571	4599	2281	100.000	Linear	0.000000e+00	0.000000e+00	4.599242e+001	0.000000e+00	0	0	16.667	16.667
3	CO2	2.000	1713565	818638	400.000	Linear	0.000000e+00	0.000000e+00	4.283912e+003	0.000000e+00	0	0	66.667	66.667
4	Ethylene	0.000	0	0	0.000	Linear	0.000000e+00	0.000000e+00	0.000000e+00	0.000000e+00	0	0	0.000	0.000
5	Acetylene	0.000	0	0	0.000	Linear	0.000000e+00	0.000000e+00	0.000000e+00	0.000000e+00	0	0	0.000	0.000
6	Ethane	0.000	0	0	0.000	Linear	0.000000e+00	0.000000e+00	0.000000e+00	0.000000e+00	0	0	0.000	0.000

[Compound Results(Ch2)]
# of IDs	5
ID#	Name	R.Time	Area	Height	Conc.	Curve	3rd	2nd	1st	Constant	Area Ratio	Height Ratio	Conc. %	Norm Conc.
1	Hydrogen	0.000	0	0	0.000	Linear	0.000000e+00	0.000000e+00	0.000000e+00	0.000000e+00	0	0	0.000	0.000
2	Oxygen	0.000	0	0	0.000	Linear	0.000000e+00	0.000000e+00	0.000000e+00	0.000000e+00	0	0	0.000	0.000
3	Nitrogen	0.000	0	0	0.000	Linear	0.000000e+00	0.000000e+00	0.000000e+00	0.000000e+00	0	0	0.000	0.000
4	Methane	0.000	0	0	0.000	Linear	0.000000e+00	0.000000e+00	0.000000e+00	0.000000e+00	0	0	0.000	0.000
5	Carbon Monoxide	0.000	0	0	0.000	Linear	0.000000e+00	0.000000e+00	0.000000e+00	0.000000e+00	0	0	0.000	0.000

[Compound Results(Ch3)]
# of IDs	2
ID#	Name	R.Time	Area	Height	Conc.	Curve	3rd	2nd	1st	Constant	Area Ratio	Height Ratio	Conc. %	Norm Conc.
1	N2O	2.887	25044	5423	1.000	Linear	0.000000e+00	0.000000e+00	2.504421e+004	0.000000e+00	0	0	50.000	50.000
2	SF6	3.265	5861	227	1.000	Linear	0.000000e+00	0.000000e+00	5.860692e+003	0.000000e+00	0	0	50.000	50.000

[Group Results(Ch1)]
# of Groups	0

[Group Results(Ch2)]
# of Groups	0

[Group Results(Ch3)]
# of Groups	0

[Chromatogram (Ch1)]
Interval(msec)	220
# of Points	1091
Start Time(min)	0.002
End Time(min)	3.998
R.Time (min)	Intensity
0.00167	20
0.00533	20
0.00900	21
0.01267	22
0.01633	27
0.02000	30
0.02367	28
0.02733	27
0.03100	29
0.03467	28
0.03833	26
0.04200	24
0.04567	22
0.04933	20
0.05300	19
0.05667	19
0.06033	21
0.06400	24
0.06767	26
0.07133	29
0.07500	31
0.07867	33
0.08233	36
0.08600	39
0.08967	39
0.09333	39
0.09700	37
0.10067	31
0.10433	21
0.10800	13
0.11167	11
0.11533	14
0.11900	17
0.12267	19
0.12633	18
0.13000	16
0.13367	12
0.13733	9
0.14100	9
0.14467	10
0.14833	15
0.15200	18
0.15567	18
0.15933	14
0.16300	11
0.16667	6
0.17033	2
0.17400	3
0.17767	11
0.18133	21
0.18500	28
0.18867	28
0.19233	24
0.19600	22
0.19967	19
0.20333	18
0.20700	18
0.21067	19
0.21433	18
0.21800	17
0.22167	16
0.22533	14
0.22900	12
0.23267	13
0.23633	19
0.24000	27
0.24367	38
0.24733	46
0.25100	47
0.25467	42
0.25833	33
0.26200	23
0.26567	10
0.26933	-2
0.27300	-9
0.27667	-13
0.28033	-14
0.28400	-10
0.28767	-3
0.29133	3
0.29500	9
0.29867	18
0.30233	27
0.30600	33
0.30967	31
0.31333	23
0.31700	12
0.32067	3
0.32433	-2
0.32800	-7
0.33167	-8
0.33533	-3
0.33900	1
0.34267	11
0.34633	15
0.35000	15
0.35367	14
0.35733	13
0.36100	12
0.36467	13
0.36833	13
0.37200	11
0.37567	10
0.37933	10
0.38300	11
0.38667	12
0.39033	13
0.39400	14
0.39767	14
0.40133	11
0.40500	4
0.40867	-5
0.41233	-9
0.41600	-8
0.41967	-4
0.42333	-0
0.42700	1
0.43067	-1
0.43433	-5
0.43800	-11
0.44167	-15
0.44533	-12
0.44900	-4
0.45267	2
0.45633	6
0.46000	8
0.46367	9
0.46733	10
0.47100	11
0.47467	11
0.47833	8
0.48200	5
0.48567	3
0.48933	1
0.49300	-3
0.49667	-11
0.50033	-19
0.50400	-22
0.50767	-18
0.51133	-13
0.51500	-13
0.51867	-17
0.52233	-21
0.52600	-21
0.52967	-17
0.53333	-12
0.53700	-8
0.54067	-9
0.54433	-12
0.54800	-14
0.55167	-16
0.55533	-19
0.55900	-23
0.56267	-29
0.56633	-32
0.57000	-32
0.57367	-28
0.57733	-25
0.58100	-23
0.58467	-22
0.58833	-21
0.59200	-17
0.59567	-15
0.59933	-17
0.60300	-17
0.60667	-17
0.61033	-18
0.61400	-18
0.61767	-18
0.62133	-16
0.62500	-16
0.62867	-17
0.63233	-16
0.63600	-13
0.63967	-12
0.64333	-16
0.64700	-22
0.65067	-28
0.65433	-29
0.65800	-28
0.66167	-29
0.66533	-33
0.66900	-37
0.67267	-37
0.67633	-34
0.68000	-33
0.68367	-34
0.68733	-33
0.69100	-29
0.69467	-21
0.69833	-14
0.70200	-8
0.70567	-6
0.70933	-10
0.71300	-17
0.71667	-26
0.72033	-34
0.72400	-41
0.72767	-44
0.73133	-42
0.73500	-36
0.73867	-31
0.74233	-26
0.74600	-24
0.74967	-24
0.75333	-23
0.75700	-25
0.76067	-27
0.76433	-31
0.76800	-39
0.77167	-46
0.77533	-48
0.77900	-46
0.78267	-42
0.78633	-38
0.79000	-36
0.79367	-35
0.79733	-32
0.80100	-29
0.80467	-28
0.80833	-30
0.81200	-35
0.81567	-39
0.81933	-40
0.82300	-38
0.82667	-36
0.83033	-36
0.83400	-38
0.83767	-39
0.84133	-35
0.84500	-30
0.84867	-25
0.85233	-20
0.85600	-21
0.85967	-23
0.86333	-25
0.86700	-26
0.87067	-25
0.87433	-21
0.87800	-20
0.88167	-20
0.88533	-25
0.88900	-33
0.89267	-43
0.89633	-50
0.90000	-49
0.90367	-44
0.90733	-38
0.91100	-37
0.91467	-42
0.91833	-47
0.92200	-51
0.92567	-51
0.92933	-48
0.93300	-42
0.93667	-34
0.94033	-26
0.94400	-19
0.94767	-17
0.95133	-18
0.95500	-19
0.95867	-20
0.96233	-24
0.96600	-32
0.96967	-42
0.97333	-50
0.97700	-55
0.98067	-57
0.98433	-53
0.98800	-48
0.99167	-42
0.99533	-38
0.99900	-38
1.00267	-40
1.00633	-43
1.01000	-44
1.01367	-43
1.01733	-43
1.02100	-44
1.02467	-48
1.02833	-51
1.03200	-49
1.03567	-45
1.03933	-44
1.04300	-44
1.04667	-44
1.05033	-45
1.05400	-47
1.05767	-49
1.06133	-52
1.06500	-55
1.06867	-57
1.07233	-54
1.07600	-48
1.07967	-42
1.08333	-38
1.08700	-33
1.09067	-31
1.09433	-32
1.09800	-40
1.10167	-51
1.10533	-60
1.10900	-64
1.11267	-65
1.11633	-65
1.12000	-62
1.12367	-60
1.12733	-57
1.13100	-55
1.13467	-55
1.13833	-55
1.14200	-57
1.14567	-58
1.14933	-58
1.15300	-54
1.15667	-51
1.16033	-52
1.16400	-53
1.16767	-51
1.17133	-49
1.17500	-49
1.17867	-50
1.18233	-51
1.18600	-52
1.18967	-51
1.19333	-47
1.19700	-44
1.20067	-40
1.20433	-38
1.20800	-38
1.21167	-40
1.21533	-41
1.21900	-45
1.22267	-52
1.22633	-59
1.23000	-61
1.23367	-64
1.23733	-65
1.24100	-64
1.24467	-60
1.24833	-59
1.25200	-59
1.25567	-55
1.25933	-49
1.26300	-45
1.26667	-44
1.27033	-47
1.27400	-53
1.27767	-60
1.28133	-67
1.28500	-74
1.28867	-81
1.29233	-83
1.29600	-80
1.29967	-76
1.30333	-74
1.30700	-72
1.31067	-72
1.31433	-74
1.31800	-77
1.32167	-79
1.32533	-80
1.32900	-80
1.33267	-78
1.33633	-74
1.34000	-72
1.34367	-70
1.34733	-67
1.35100	-62
1.35467	-56
1.35833	-52
1.36200	-50
1.36567	-52
1.36933	-54
1.37300	-58
1.37667	-64
1.38033	-74
1.38400	-82
1.38767	-84
1.39133	-80
1.39500	-76
1.39867	-71
1.40233	-65
1.40600	-61
1.40967	-64
1.41333	-73
1.41700	-82
1.42067	-88
1.42433	-92
1.42800	-95
1.43167	-93
1.43533	-88
1.43900	-68
1.44267	12
1.44633	204
1.45000	527
1.45367	1059
1.45733	1877
1.46100	2889
1.46467	3912
1.46833	4795
1.47200	5452
1.47567	5821
1.47933	5839
1.48300	5483
1.48667	4815
1.49033	3972
1.49400	3108
1.49767	2336
1.50133	1710
1.50500	1231
1.50867	878
1.51233	626
1.51600	451
1.51967	331
1.52333	246
1.52700	182
1.53067	130
1.53433	90
1.53800	68
1.54167	94
1.54533	226
1.54900	510
1.55267	913
1.55633	1349
1.56000	1736
1.56367	2024
1.56733	2194
1.57100	2219
1.57467	2077
1.57833	1794
1.58200	1432
1.58567	1070
1.58933	759
1.59300	514
1.59667	331
1.60033	200
1.60400	105
1.60767	38
1.61133	-6
1.61500	-32
1.61867	-43
1.62233	-48
1.62600	-52
1.62967	-54
1.63333	-55
1.63700	-59
1.64067	-68
1.64433	-77
1.64800	-82
1.65167	-83
1.65533	-80
1.65900	-76
1.66267	-73
1.66633	-70
1.67000	-68
1.67367	-70
1.67733	-80
1.68100	-92
1.68467	-99
1.68833	-102
1.69200	-103
1.69567	-103
1.69933	-102
1.70300	-98
1.70667	-95
1.71033	-94
1.71400	-93
1.71767	-89
1.72133	-83
1.72500	-80
1.72867	-78
1.73233	-82
1.73600	-92
1.73967	-104
1.74333	-112
1.74700	-114
1.75067	-111
1.75433	-107
1.75800	-98
1.76167	-91
1.76533	-88
1.76900	-86
1.77267	-86
1.77633	-89
1.78000	-96
1.78367	-104
1.78733	-110
1.79100	-108
1.79467	-105
1.79833	-99
1.80200	-96
1.80567	-97
1.80933	-101
1.81300	-102
1.81667	-99
1.82033	-94
1.82400	-92
1.82767	-91
1.83133	-93
1.83500	-95
1.83867	-96
1.84233	-95
1.84600	-93
1.84967	-91
1.85333	-89
1.85700	-90
1.86067	-94
1.86433	-97
1.86800	-103
1.87167	-108
1.87533	-107
1.87900	-103
1.88267	-99
1.88633	-98
1.89000	-97
1.89367	-98
1.89733	-95
1.90100	-91
1.90467	-90
1.90833	-90
1.91200	-93
1.91567	-96
1.91933	-98
1.92300	-98
1.92667	-96
1.93033	-92
1.93400	-86
1.93767	-77
1.94133	-68
1.94500	-64
1.94867	-63
1.95233	-61
1.95600	-8
1.95967	383
1.96333	2384
1.96700	10116
1.97067	32863
1.97433	84668
1.97800	177334
1.98167	309728
1.98533	464211
1.98900	614009
1.99267	733878
1.99633	805380
2.00000	818622
2.00367	774003
2.00733	683163
2.01100	565917
2.01467	443515
2.01833	332242
2.02200	240630
2.02567	170428
2.02933	119305
2.03300	83360
2.03667	58638
2.04033	41844
2.04400	30487
2.04767	22793
2.05133	17535
2.05500	13892
2.05867	11316
2.06233	9454
2.06600	8069
2.06967	7007
2.07333	6177
2.07700	5516
2.08067	4986
2.08433	4546
2.08800	4174
2.09167	3857
2.09533	3585
2.09900	3351
2.10267	3149
2.10633	2972
2.11000	2815
2.11367	2668
2.11733	2530
2.12100	2401
2.12467	2282
2.12833	2175
2.13200	2077
2.13567	1984
2.13933	1899
2.14300	1825
2.14667	1760
2.15033	1700
2.15400	1638
2.15767	1573
2.16133	1510
2.16500	1453
2.16867	1404
2.17233	1359
2.17600	1315
2.17967	1275
2.18333	1242
2.18700	1209
2.19067	1176
2.19433	1144
2.19800	1111
2.20167	1077
2.20533	1041
2.20900	1004
2.21267	967
2.21633	934
2.22000	908
2.22367	886
2.22733	867
2.23100	852
2.23467	838
2.23833	822
2.24200	802
2.24567	780
2.24933	757
2.25300	738
2.25667	723
2.26033	709
2.26400	697
2.26767	686
2.27133	677
2.27500	669
2.27867	658
2.28233	646
2.28600	634
2.28967	621
2.29333	605
2.29700	586
2.30067	566
2.30433	547
2.30800	531
2.31167	520
2.31533	514
2.31900	508
2.32267	499
2.32633	490
2.33000	482
2.33367	476
2.33733	472
2.34100	468
2.34467	463
2.34833	457
2.35200	449
2.35567	441
2.35933	434
2.36300	427
2.36667	418
2.37033	410
2.37400	403
2.37767	395
2.38133	387
2.38500	383
2.38867	386
2.39233	390
2.39600	393
2.39967	392
2.40333	392
2.40700	393
2.41067	394
2.41433	392
2.41800	388
2.42167	384
2.42533	378
2.42900	371
2.43267	366
2.43633	361
2.44000	357
2.44367	353
2.44733	350
2.45100	352
2.45467	355
2.45833	354
2.46200	346
2.46567	337
2.46933	331
2.47300	329
2.47667	329
2.48033	326
2.48400	322
2.48767	318
2.49133	319
2.49500	322
2.49867	321
2.50233	319
2.50600	317
2.50967	316
2.51333	313
2.51700	308
2.52067	302
2.52433	299
2.52800	295
2.53167	287
2.53533	278
2.53900	272
2.54267	271
2.54633	272
2.55000	276
2.55367	278
2.55733	277
2.56100	274
2.56467	271
2.56833	271
2.57200	274
2.57567	277
2.57933	276
2.58300	268
2.58667	257
2.59033	248
2.59400	239
2.59767	232
2.60133	232
2.60500	235
2.60867	237
2.61233	236
2.61600	231
2.61967	226
2.62333	222
2.62700	218
2.63067	217
2.63433	216
2.63800	218
2.64167	220
2.64533	222
2.64900	223
2.65267	221
2.65633	217
2.66000	213
2.66367	209
2.66733	206
2.67100	206
2.67467	205
2.67833	206
2.68200	207
2.68567	204
2.68933	197
2.69300	189
2.69667	181
2.70033	174
2.70400	171
2.70767	171
2.71133	174
2.71500	178
2.71867	180
2.72233	182
2.72600	183
2.72967	182
2.73333	179
2.73700	176
2.74067	170
2.74433	163
2.74800	156
2.75167	153
2.75533	153
2.75900	157
2.76267	164
2.76633	168
2.77000	168
2.77367	165
2.77733	160
2.78100	154
2.78467	151
2.78833	151
2.79200	152
2.79567	154
2.79933	158
2.80300	162
2.80667	166
2.81033	165
2.81400	157
2.81767	149
2.82133	147
2.82500	148
2.82867	150
2.83233	149
2.83600	147
2.83967	145
2.84333	145
2.84700	144
2.85067	137
2.85433	130
2.85800	126
2.86167	126
2.86533	127
2.86900	125
2.87267	122
2.87633	123
2.88000	125
2.88367	127
2.88733	127
2.89100	127
2.89467	129
2.89833	131
2.90200	133
2.90567	133
2.90933	133
2.91300	131
2.91667	130
2.92033	127
2.92400	120
2.92767	114
2.93133	111
2.93500	112
2.93867	113
2.94233	115
2.94600	119
2.94967	122
2.95333	121
2.95700	117
2.96067	112
2.96433	110
2.96800	110
2.97167	113
2.97533	114
2.97900	117
2.98267	117
2.98633	116
2.99000	114
2.99367	119
2.99733	127
3.00100	133
3.00467	138
3.00833	141
3.01200	142
3.01567	141
3.01933	141
3.02300	135
3.02667	127
3.03033	119
3.03400	113
3.03767	110
3.04133	107
3.04500	104
3.04867	104
3.05233	106
3.05600	106
3.05967	107
3.06333	109
3.06700	111
3.07067	112
3.07433	113
3.07800	109
3.08167	105
3.08533	103
3.08900	103
3.09267	102
3.09633	102
3.10000	105
3.10367	107
3.10733	103
3.11100	99
3.11467	97
3.11833	99
3.12200	101
3.12567	103
3.12933	105
3.13300	104
3.13667	99
3.14033	92
3.14400	84
3.14767	78
3.15133	78
3.15500	79
3.15867	80
3.16233	80
3.16600	79
3.16967	82
3.17333	91
3.17700	102
3.18067	109
3.18433	108
3.18800	103
3.19167	98
3.19533	95
3.19900	94
3.20267	94
3.20633	93
3.21000	92
3.21367	90
3.21733	87
3.22100	81
3.22467	77
3.22833	75
3.23200	74
3.23567	72
3.23933	69
3.24300	67
3.24667	67
3.25033	66
3.25400	67
3.25767	66
3.26133	64
3.26500	64
3.26867	66
3.27233	70
3.27600	70
3.27967	67
3.28333	68
3.28700	70
3.29067	73
3.29433	78
3.29800	82
3.30167	82
3.30533	79
3.30900	75
3.31267	69
3.31633	62
3.32000	56
3.32367	56
3.32733	60
3.33100	63
3.33467	68
3.33833	73
3.34200	73
3.34567	69
3.34933	64
3.35300	60
3.35667	59
3.36033	58
3.36400	55
3.36767	52
3.37133	52
3.37500	52
3.37867	52
3.38233	53
3.38600	55
3.38967	58
3.39333	61
3.39700	63
3.40067	65
3.40433	68
3.40800	70
3.41167	69
3.41533	72
3.41900	77
3.42267	82
3.42633	83
3.43000	79
3.43367	69
3.43733	59
3.44100	56
3.44467	61
3.44833	65
3.45200	60
3.45567	54
3.45933	48
3.46300	47
3.46667	48
3.47033	50
3.47400	50
3.47767	52
3.48133	56
3.48500	60
3.48867	62
3.49233	58
3.49600	51
3.49967	46
3.50333	42
3.50700	37
3.51067	30
3.51433	24
3.51800	21
3.52167	21
3.52533	21
3.52900	21
3.53267	24
3.53633	30
3.54000	37
3.54367	47
3.54733	54
3.55100	59
3.55467	62
3.55833	62
3.56200	61
3.56567	58
3.56933	55
3.57300	52
3.57667	49
3.58033	48
3.58400	47
3.58767	47
3.59133	47
3.59500	48
3.59867	52
3.60233	54
3.60600	55
3.60967	54
3.61333	52
3.61700	49
3.62067	44
3.62433	42
3.62800	43
3.63167	49
3.63533	54
3.63900	55
3.64267	53
3.64633	49
3.65000	44
3.65367	41
3.65733	41
3.66100	44
3.66467	49
3.66833	53
3.67200	52
3.67567	48
3.67933	43
3.68300	39
3.68667	36
3.69033	35
3.69400	35
3.69767	33
3.70133	31
3.70500	28
3.70867	23
3.71233	20
3.71600	19
3.71967	22
3.72333	24
3.72700	25
3.73067	27
3.73433	28
3.73800	28
3.74167	28
3.74533	29
3.74900	26
3.75267	22
3.75633	22
3.76000	25
3.76367	28
3.76733	29
3.77100	30
3.77467	26
3.77833	21
3.78200	18
3.78567	17
3.78933	16
3.79300	15
3.79667	16
3.80033	17
3.80400	18
3.80767	17
3.81133	17
3.81500	22
3.81867	25
3.82233	27
3.82600	24
3.82967	21
3.83333	21
3.83700	27
3.84067	33
3.84433	37
3.84800	36
3.85167	30
3.85533	21
3.85900	14
3.86267	10
3.86633	9
3.87000	9
3.87367	8
3.87733	10
3.88100	17
3.88467	26
3.88833	33
3.89200	36
3.89567	37
3.89933	33
3.90300	28
3.90667	24
3.91033	19
3.91400	15
3.91767	9
3.92133	4
3.92500	3
3.92867	6
3.93233	12
3.93600	17
3.93967	18
3.94333	15
3.94700	12
3.95067	7
3.95433	3
3.95800	-1
3.96167	-3
3.96533	-1
3.96900	-0
3.97267	1
3.97633	3
3.98000	1
3.98367	-3
3.98733	-8
3.99100	-11
3.99467	-12
3.99833	-12

[Chromatogram (Ch2)]
Interval(msec)	220
# of Points	1091
Start Time(min)	0.002
End Time(min)	3.998
R.Time (min)	Intensity
0.00167	-1
0.00533	-1
0.00900	-2
0.01267	-2
0.01633	-2
0.02000	-2
0.02367	-2
0.02733	-2
0.03100	-2
0.03467	-2
0.03833	-2
0.04200	-1
0.04567	-1
0.04933	-1
0.05300	-1
0.05667	-1
0.06033	-1
0.06400	-1
0.06767	-1
0.07133	-1
0.07500	-2
0.07867	-2
0.08233	-2
0.08600	-2
0.08967	-2
0.09333	-2
0.09700	-2
0.10067	-2
0.10433	-2
0.10800	-1
0.11167	-1
0.11533	-0
0.11900	0
0.12267	1
0.12633	1
0.13000	1
0.13367	1
0.13733	1
0.14100	1
0.14467	1
0.14833	1
0.15200	2
0.15567	2
0.15933	2
0.16300	3
0.16667	3
0.17033	3
0.17400	2
0.17767	2
0.18133	2
0.18500	2
0.18867	1
0.19233	1
0.19600	1
0.19967	1
0.20333	1
0.20700	1
0.21067	1
0.21433	0
0.21800	0
0.22167	0
0.22533	0
0.22900	0
0.23267	0
0.23633	0
0.24000	1
0.24367	1
0.24733	1
0.25100	1
0.25467	1
0.25833	1
0.26200	1
0.26567	1
0.26933	1
0.27300	1
0.27667	1
0.28033	0
0.28400	0
0.28767	0
0.29133	0
0.29500	-0
0.29867	-0
0.30233	-0
0.30600	-1
0.30967	-1
0.31333	-1
0.31700	-1
0.32067	-0
0.32433	-0
0.32800	-0
0.33167	-0
0.33533	-0
0.33900	-0
0.34267	-1
0.34633	-1
0.35000	-1
0.35367	-1
0.35733	-1
0.36100	-0
0.36467	-0
0.36833	-1
0.37200	-1
0.37567	-1
0.37933	-1
0.38300	-1
0.38667	-1
0.39033	-1
0.39400	-1
0.39767	-1
0.40133	-1
0.40500	-1
0.40867	-1
0.41233	-1
0.41600	-2
0.41967	-2
0.42333	-2
0.42700	-2
0.43067	-2
0.43433	-2
0.43800	-2
0.44167	-2
0.44533	-2
0.44900	-2
0.45267	-2
0.45633	-3
0.46000	-3
0.46367	-3
0.46733	-3
0.47100	-3
0.47467	-4
0.47833	-4
0.48200	-4
0.48567	-3
0.48933	-3
0.49300	-3
0.49667	-2
0.50033	-2
0.50400	-1
0.50767	-1
0.51133	-1
0.51500	-1
0.51867	-1
0.52233	-1
0.52600	-2
0.52967	-2
0.53333	-2
0.53700	-1
0.54067	-1
0.54433	-1
0.54800	-1
0.55167	-0
0.55533	-0
0.55900	0
0.56267	0
0.56633	0
0.57000	0
0.57367	0
0.57733	-0
0.58100	-1
0.58467	-1
0.58833	-1
0.59200	-1
0.59567	-1
0.59933	-1
0.60300	-1
0.60667	-1
0.61033	-1
0.61400	-1
0.61767	-1
0.62133	-1
0.62500	-1
0.62867	-1
0.63233	-2
0.63600	-2
0.63967	-2
0.64333	-2
0.64700	-2
0.65067	-2
0.65433	-2
0.65800	-2
0.66167	-2
0.66533	-2
0.66900	-1
0.67267	-1
0.67633	-1
0.68000	-1
0.68367	-1
0.68733	-1
0.69100	-1
0.69467	-1
0.69833	-1
0.70200	-1
0.70567	-1
0.70933	-1
0.71300	-1
0.71667	-1
0.72033	-1
0.72400	-1
0.72767	-1
0.73133	-1
0.73500	-2
0.73867	-2
0.74233	-2
0.74600	-2
0.74967	-2
0.75333	-2
0.75700	-2
0.76067	-2
0.76433	-2
0.76800	-2
0.77167	-2
0.77533	-2
0.77900	-2
0.78267	-2
0.78633	-2
0.79000	-2
0.79367	-2
0.79733	-2
0.80100	-2
0.80467	-2
0.80833	-2
0.81200	-2
0.81567	-2
0.81933	-2
0.82300	-2
0.82667	-2
0.83033	-2
0.83400	-2
0.83767	-2
0.84133	-2
0.84500	-2
0.84867	-2
0.85233	-3
0.85600	-3
0.85967	-3
0.86333	-3
0.86700	-3
0.87067	-3
0.87433	-3
0.87800	-3
0.88167	-3
0.88533	-3
0.88900	-3
0.89267	-3
0.89633	-3
0.90000	-3
0.90367	-3
0.90733	-3
0.91100	-3
0.91467	-4
0.91833	-4
0.92200	-4
0.92567	-4
0.92933	-3
0.93300	-3
0.93667	-3
0.94033	-3
0.94400	-3
0.94767	-3
0.95133	-4
0.95500	-3
0.95867	-3
0.96233	-3
0.96600	-3
0.96967	-3
0.97333	-3
0.97700	-2
0.98067	-2
0.98433	-2
0.98800	-2
0.99167	-2
0.99533	-2
0.99900	-2
1.00267	-2
1.00633	-2
1.01000	-2
1.01367	-2
1.01733	-2
1.02100	-2
1.02467	-1
1.02833	-1
1.03200	-1
1.03567	-1
1.03933	-1
1.04300	-1
1.04667	-2
1.05033	-2
1.05400	-3
1.05767	-3
1.06133	-3
1.06500	-3
1.06867	-3
1.07233	-3
1.07600	-3
1.07967	-4
1.08333	-4
1.08700	-4
1.09067	-4
1.09433	-4
1.09800	-3
1.10167	-3
1.10533	-3
1.10900	-3
1.11267	-3
1.11633	-3
1.12000	-3
1.12367	-3
1.12733	-3
1.13100	-2
1.13467	-2
1.13833	-2
1.14200	-2
1.14567	-1
1.14933	-1
1.15300	-1
1.15667	-1
1.16033	-1
1.16400	-1
1.16767	-1
1.17133	-1
1.17500	-1
1.17867	-1
1.18233	-1
1.18600	-1
1.18967	-1
1.19333	-1
1.19700	-1
1.20067	-1
1.20433	-1
1.20800	-1
1.21167	-1
1.21533	-1
1.21900	-1
1.22267	-1
1.22633	-1
1.23000	-1
1.23367	-1
1.23733	-1
1.24100	-1
1.24467	-1
1.24833	-1
1.25200	-1
1.25567	-1
1.25933	-1
1.26300	-2
1.26667	-2
1.27033	-2
1.27400	-2
1.27767	-2
1.28133	-2
1.28500	-2
1.28867	-2
1.29233	-2
1.29600	-2
1.29967	-2
1.30333	-2
1.30700	-3
1.31067	-3
1.31433	-3
1.31800	-3
1.32167	-3
1.32533	-3
1.32900	-3
1.33267	-3
1.33633	-3
1.34000	-3
1.34367	-3
1.34733	-3
1.35100	-3
1.35467	-3
1.35833	-3
1.36200	-3
1.36567	-3
1.36933	-3
1.37300	-3
1.37667	-2
1.38033	-2
1.38400	-2
1.38767	-2
1.39133	-2
1.39500	-2
1.39867	-2
1.40233	-2
1.40600	-2
1.40967	-2
1.41333	-2
1.41700	-2
1.42067	-2
1.42433	-2
1.42800	-2
1.43167	-3
1.43533	-3
1.43900	-3
1.44267	-3
1.44633	-3
1.45000	-3
1.45367	-3
1.45733	-3
1.46100	-3
1.46467	-3
1.46833	-3
1.47200	-2
1.47567	-2
1.47933	-2
1.48300	-2
1.48667	-2
1.49033	-1
1.49400	-1
1.49767	-2
1.50133	-2
1.50500	-1
1.50867	-1
1.51233	-1
1.51600	-1
1.51967	-1
1.52333	-2
1.52700	-2
1.53067	-2
1.53433	-2
1.53800	-3
1.54167	-3
1.54533	-3
1.54900	-4
1.55267	-4
1.55633	-4
1.56000	-4
1.56367	-4
1.56733	-3
1.57100	-3
1.57467	-3
1.57833	-3
1.58200	-3
1.58567	-3
1.58933	-3
1.59300	-3
1.59667	-4
1.60033	-5
1.60400	-5
1.60767	-7
1.61133	-8
1.61500	-10
1.61867	-13
1.62233	-15
1.62600	-18
1.62967	-21
1.63333	-25
1.63700	-28
1.64067	-32
1.64433	-36
1.64800	-40
1.65167	-44
1.65533	-48
1.65900	-51
1.66267	-55
1.66633	-59
1.67000	-64
1.67367	-69
1.67733	-73
1.68100	-78
1.68467	-83
1.68833	-88
1.69200	-92
1.69567	-95
1.69933	-98
1.70300	-100
1.70667	-102
1.71033	-104
1.71400	-105
1.71767	-107
1.72133	-108
1.72500	-108
1.72867	-109
1.73233	-109
1.73600	-110
1.73967	-111
1.74333	-112
1.74700	-113
1.75067	-113
1.75433	-114
1.75800	-114
1.76167	-115
1.76533	-115
1.76900	-115
1.77267	-115
1.77633	-116
1.78000	-116
1.78367	-117
1.78733	-117
1.79100	-118
1.79467	-118
1.79833	-119
1.80200	-119
1.80567	-120
1.80933	-120
1.81300	-121
1.81667	-121
1.82033	-120
1.82400	-120
1.82767	-120
1.83133	-120
1.83500	-120
1.83867	-120
1.84233	-121
1.84600	-121
1.84967	-121
1.85333	-121
1.85700	-121
1.86067	-121
1.86433	-121
1.86800	-121
1.87167	-121
1.87533	-121
1.87900	-120
1.88267	-120
1.88633	-120
1.89000	-120
1.89367	-120
1.89733	-121
1.90100	-121
1.90467	-120
1.90833	-120
1.91200	-120
1.91567	-120
1.91933	-119
1.92300	-119
1.92667	-119
1.93033	-118
1.93400	-118
1.93767	-118
1.94133	-118
1.94500	-118
1.94867	-118
1.95233	-117
1.95600	-117
1.95967	-116
1.96333	-115
1.96700	-115
1.97067	-114
1.97433	-114
1.97800	-114
1.98167	-114
1.98533	-114
1.98900	-113
1.99267	-113
1.99633	-113
2.00000	-113
2.00367	-113
2.00733	-113
2.01100	-112
2.01467	-112
2.01833	-112
2.02200	-111
2.02567	-111
2.02933	-111
2.03300	-111
2.03667	-111
2.04033	-111
2.04400	-110
2.04767	-110
2.05133	-109
2.05500	-109
2.05867	-109
2.06233	-109
2.06600	-108
2.06967	-108
2.07333	-107
2.07700	-107
2.08067	-107
2.08433	-107
2.08800	-107
2.09167	-106
2.09533	-106
2.09900	-105
2.10267	-105
2.10633	-104
2.11000	-103
2.11367	-103
2.11733	-102
2.12100	-101
2.12467	-101
2.12833	-100
2.13200	-100
2.13567	-101
2.13933	-101
2.14300	-101
2.14667	-101
2.15033	-101
2.15400	-101
2.15767	-101
2.16133	-101
2.16500	-101
2.16867	-102
2.17233	-101
2.17600	-101
2.17967	-101
2.18333	-101
2.18700	-101
2.19067	-100
2.19433	-100
2.19800	-99
2.20167	-98
2.20533	-97
2.20900	-96
2.21267	-96
2.21633	-96
2.22000	-96
2.22367	-96
2.22733	-97
2.23100	-97
2.23467	-97
2.23833	-97
2.24200	-98
2.24567	-98
2.24933	-98
2.25300	-97
2.25667	-96
2.26033	-96
2.26400	-95
2.26767	-94
2.27133	-93
2.27500	-92
2.27867	-91
2.28233	-91
2.28600	-90
2.28967	-90
2.29333	-90
2.29700	-91
2.30067	-91
2.30433	-91
2.30800	-91
2.31167	-91
2.31533	-90
2.31900	-89
2.32267	-88
2.32633	-87
2.33000	-86
2.33367	-85
2.33733	-84
2.34100	-83
2.34467	-83
2.34833	-82
2.35200	-82
2.35567	-81
2.35933	-80
2.36300	-79
2.36667	-79
2.37033	-78
2.37400	-76
2.37767	-74
2.38133	-72
2.38500	-69
2.38867	-65
2.39233	-62
2.39600	-58
2.39967	-54
2.40333	-50
2.40700	-46
2.41067	-41
2.41433	-37
2.41800	-33
2.42167	-29
2.42533	-25
2.42900	-22
2.43267	-20
2.43633	-17
2.44000	-15
2.44367	-13
2.44733	-11
2.45100	-9
2.45467	-8
2.45833	-6
2.46200	-4
2.46567	-3
2.46933	-2
2.47300	-1
2.47667	0
2.48033	1
2.48400	3
2.48767	4
2.49133	5
2.49500	6
2.49867	6
2.50233	7
2.50600	7
2.50967	7
2.51333	8
2.51700	8
2.52067	9
2.52433	10
2.52800	11
2.53167	12
2.53533	12
2.53900	13
2.54267	13
2.54633	14
2.55000	14
2.55367	15
2.55733	15
2.56100	15
2.56467	16
2.56833	16
2.57200	15
2.57567	15
2.57933	14
2.58300	14
2.58667	13
2.59033	13
2.59400	13
2.59767	13
2.60133	13
2.60500	14
2.60867	15
2.61233	15
2.61600	16
2.61967	16
2.62333	16
2.62700	17
2.63067	17
2.63433	17
2.63800	18
2.64167	18
2.64533	19
2.64900	19
2.65267	19
2.65633	19
2.66000	19
2.66367	19
2.66733	19
2.67100	19
2.67467	20
2.67833	20
2.68200	20
2.68567	21
2.68933	21
2.69300	21
2.69667	21
2.70033	21
2.70400	21
2.70767	21
2.71133	21
2.71500	22
2.71867	22
2.72233	22
2.72600	22
2.72967	22
2.73333	22
2.73700	22
2.74067	23
2.74433	23
2.74800	23
2.75167	23
2.75533	23
2.75900	23
2.76267	23
2.76633	23
2.77000	23
2.77367	23
2.77733	24
2.78100	24
2.78467	25
2.78833	25
2.79200	26
2.79567	26
2.79933	26
2.80300	26
2.80667	26
2.81033	25
2.81400	25
2.81767	25
2.82133	25
2.82500	25
2.82867	25
2.83233	25
2.83600	25
2.83967	25
2.84333	25
2.84700	25
2.85067	24
2.85433	23
2.85800	21
2.86167	18
2.86533	12
2.86900	4
2.87267	-8
2.87633	-23
2.88000	-42
2.88367	-64
2.88733	-90
2.89100	-121
2.89467	-155
2.89833	-192
2.90200	-232
2.90567	-275
2.90933	-320
2.91300	-367
2.91667	-416
2.92033	-465
2.92400	-515
2.92767	-565
2.93133	-616
2.93500	-666
2.93867	-715
2.94233	-764
2.94600	-813
2.94967	-865
2.95333	-922
2.95700	-984
2.96067	-1040
2.96433	-1080
2.96800	-1097
2.97167	-1087
2.97533	-1053
2.97900	-999
2.98267	-931
2.98633	-855
2.99000	-776
2.99367	-696
2.99733	-619
3.00100	-546
3.00467	-478
3.00833	-416
3.01200	-360
3.01567	-311
3.01933	-267
3.02300	-228
3.02667	-194
3.03033	-165
3.03400	-140
3.03767	-118
3.04133	-99
3.04500	-83
3.04867	-69
3.05233	-57
3.05600	-47
3.05967	-39
3.06333	-31
3.06700	-25
3.07067	-20
3.07433	-15
3.07800	-11
3.08167	-8
3.08533	-5
3.08900	-2
3.09267	-0
3.09633	2
3.10000	4
3.10367	5
3.10733	6
3.11100	8
3.11467	9
3.11833	10
3.12200	11
3.12567	12
3.12933	12
3.13300	13
3.13667	13
3.14033	14
3.14400	14
3.14767	15
3.15133	15
3.15500	16
3.15867	16
3.16233	17
3.16600	17
3.16967	17
3.17333	18
3.17700	18
3.18067	18
3.18433	18
3.18800	18
3.19167	18
3.19533	18
3.19900	18
3.20267	19
3.20633	19
3.21000	19
3.21367	19
3.21733	20
3.22100	20
3.22467	20
3.22833	20
3.23200	21
3.23567	21
3.23933	21
3.24300	21
3.24667	21
3.25033	21
3.25400	21
3.25767	21
3.26133	22
3.26500	22
3.26867	22
3.27233	22
3.27600	22
3.27967	22
3.28333	22
3.28700	22
3.29067	22
3.29433	22
3.29800	21
3.30167	21
3.30533	21
3.30900	21
3.31267	21
3.31633	22
3.32000	22
3.32367	22
3.32733	22
3.33100	23
3.33467	23
3.33833	24
3.34200	24
3.34567	25
3.34933	25
3.35300	25
3.35667	25
3.36033	26
3.36400	26
3.36767	26
3.37133	27
3.37500	27
3.37867	27
3.38233	27
3.38600	28
3.38967	28
3.39333	28
3.39700	28
3.40067	28
3.40433	29
3.40800	29
3.41167	29
3.41533	29
3.41900	29
3.42267	29
3.42633	29
3.43000	29
3.43367	29
3.43733	29
3.44100	29
3.44467	29
3.44833	29
3.45200	29
3.45567	29
3.45933	29
3.46300	29
3.46667	29
3.47033	29
3.47400	28
3.47767	28
3.48133	28
3.48500	27
3.48867	27
3.49233	27
3.49600	27
3.49967	27
3.50333	27
3.50700	27
3.51067	27
3.51433	27
3.51800	27
3.52167	27
3.52533	27
3.52900	27
3.53267	27
3.53633	27
3.54000	27
3.54367	27
3.54733	27
3.55100	27
3.55467	27
3.55833	27
3.56200	27
3.56567	26
3.56933	26
3.57300	26
3.57667	26
3.58033	26
3.58400	26
3.58767	26
3.59133	26
3.59500	26
3.59867	26
3.60233	26
3.60600	26
3.60967	26
3.61333	26
3.61700	26
3.62067	26
3.62433	26
3.62800	26
3.63167	26
3.63533	26
3.63900	25
3.64267	25
3.64633	25
3.65000	25
3.65367	25
3.65733	25
3.66100	25
3.66467	25
3.66833	25
3.67200	25
3.67567	25
3.67933	25
3.68300	25
3.68667	25
3.69033	25
3.69400	25
3.69767	25
3.70133	25
3.70500	25
3.70867	25
3.71233	25
3.71600	25
3.71967	25
3.72333	25
3.72700	25
3.73067	25
3.73433	24
3.73800	24
3.74167	24
3.74533	24
3.74900	24
3.75267	24
3.75633	24
3.76000	24
3.76367	24
3.76733	24
3.77100	24
3.77467	24
3.77833	24
3.78200	24
3.78567	24
3.78933	24
3.79300	24
3.79667	24
3.80033	24
3.80400	24
3.80767	24
3.81133	25
3.81500	25
3.81867	25
3.82233	25
3.82600	25
3.82967	25
3.83333	25
3.83700	25
3.84067	25
3.84433	25
3.84800	24
3.85167	24
3.85533	25
3.85900	25
3.86267	25
3.86633	24
3.87000	24
3.87367	24
3.87733	24
3.88100	24
3.88467	24
3.88833	24
3.89200	24
3.89567	23
3.89933	23
3.90300	23
3.90667	23
3.91033	23
3.91400	24
3.91767	24
3.92133	24
3.92500	25
3.92867	25
3.93233	25
3.93600	25
3.93967	25
3.94333	25
3.94700	25
3.95067	25
3.95433	25
3.95800	25
3.96167	25
3.96533	24
3.96900	24
3.97267	24
3.97633	24
3.98000	24
3.98367	24
3.98733	24
3.99100	24
3.99467	24
3.99833	24

[Chromatogram (Ch3)]
Interval(msec)	220
# of Points	1091
Start Time(min)	0.002
End Time(min)	3.998
R.Time (min)	Intensity
0.00167	-1
0.00533	-3
0.00900	-3
0.01267	-3
0.01633	-4
0.02000	-5
0.02367	-4
0.02733	-4
0.03100	-3
0.03467	-2
0.03833	-2
0.04200	-1
0.04567	-1
0.04933	0
0.05300	3
0.05667	5
0.06033	3
0.06400	2
0.06767	1
0.07133	1
0.07500	2
0.07867	5
0.08233	9
0.08600	12
0.08967	11
0.09333	11
0.09700	12
0.10067	11
0.10433	10
0.10800	7
0.11167	7
0.11533	8
0.11900	6
0.12267	3
0.12633	3
0.13000	2
0.13367	2
0.13733	1
0.14100	4
0.14467	6
0.14833	7
0.15200	6
0.15567	6
0.15933	5
0.16300	6
0.16667	8
0.17033	7
0.17400	6
0.17767	4
0.18133	4
0.18500	5
0.18867	7
0.19233	9
0.19600	12
0.19967	13
0.20333	12
0.20700	13
0.21067	12
0.21433	11
0.21800	10
0.22167	8
0.22533	8
0.22900	6
0.23267	7
0.23633	7
0.24000	7
0.24367	9
0.24733	8
0.25100	9
0.25467	9
0.25833	9
0.26200	8
0.26567	9
0.26933	10
0.27300	9
0.27667	10
0.28033	10
0.28400	8
0.28767	7
0.29133	6
0.29500	7
0.29867	6
0.30233	7
0.30600	7
0.30967	9
0.31333	12
0.31700	10
0.32067	10
0.32433	9
0.32800	9
0.33167	9
0.33533	11
0.33900	12
0.34267	10
0.34633	11
0.35000	13
0.35367	14
0.35733	14
0.36100	13
0.36467	12
0.36833	11
0.37200	9
0.37567	7
0.37933	6
0.38300	10
0.38667	15
0.39033	17
0.39400	18
0.39767	18
0.40133	18
0.40500	19
0.40867	19
0.41233	17
0.41600	16
0.41967	14
0.42333	15
0.42700	16
0.43067	17
0.43433	17
0.43800	16
0.44167	15
0.44533	14
0.44900	14
0.45267	14
0.45633	15
0.46000	15
0.46367	15
0.46733	14
0.47100	13
0.47467	12
0.47833	13
0.48200	15
0.48567	17
0.48933	18
0.49300	19
0.49667	19
0.50033	16
0.50400	17
0.50767	17
0.51133	18
0.51500	21
0.51867	22
0.52233	21
0.52600	19
0.52967	18
0.53333	17
0.53700	17
0.54067	18
0.54433	17
0.54800	16
0.55167	17
0.55533	18
0.55900	19
0.56267	23
0.56633	23
0.57000	21
0.57367	19
0.57733	18
0.58100	18
0.58467	18
0.58833	20
0.59200	20
0.59567	20
0.59933	22
0.60300	23
0.60667	22
0.61033	20
0.61400	17
0.61767	16
0.62133	15
0.62500	16
0.62867	16
0.63233	15
0.63600	16
0.63967	17
0.64333	15
0.64700	15
0.65067	16
0.65433	18
0.65800	17
0.66167	15
0.66533	14
0.66900	15
0.67267	16
0.67633	16
0.68000	16
0.68367	17
0.68733	16
0.69100	18
0.69467	19
0.69833	19
0.70200	15
0.70567	13
0.70933	14
0.71300	16
0.71667	17
0.72033	18
0.72400	20
0.72767	20
0.73133	19
0.73500	19
0.73867	20
0.74233	20
0.74600	18
0.74967	17
0.75333	16
0.75700	16
0.76067	17
0.76433	20
0.76800	20
0.77167	21
0.77533	22
0.77900	21
0.78267	19
0.78633	19
0.79000	20
0.79367	21
0.79733	19
0.80100	19
0.80467	18
0.80833	18
0.81200	19
0.81567	21
0.81933	23
0.82300	23
0.82667	22
0.83033	23
0.83400	25
0.83767	26
0.84133	25
0.84500	26
0.84867	24
0.85233	21
0.85600	20
0.85967	21
0.86333	22
0.86700	21
0.87067	21
0.87433	20
0.87800	19
0.88167	20
0.88533	22
0.88900	23
0.89267	22
0.89633	24
0.90000	25
0.90367	25
0.90733	25
0.91100	27
0.91467	27
0.91833	27
0.92200	28
0.92567	29
0.92933	30
0.93300	28
0.93667	26
0.94033	27
0.94400	29
0.94767	30
0.95133	31
0.95500	29
0.95867	27
0.96233	28
0.96600	29
0.96967	31
0.97333	32
0.97700	31
0.98067	30
0.98433	29
0.98800	28
0.99167	29
0.99533	30
0.99900	30
1.00267	30
1.00633	30
1.01000	30
1.01367	33
1.01733	36
1.02100	36
1.02467	37
1.02833	36
1.03200	34
1.03567	32
1.03933	28
1.04300	26
1.04667	25
1.05033	24
1.05400	24
1.05767	26
1.06133	26
1.06500	27
1.06867	28
1.07233	27
1.07600	24
1.07967	21
1.08333	20
1.08700	23
1.09067	26
1.09433	27
1.09800	28
1.10167	27
1.10533	27
1.10900	29
1.11267	31
1.11633	29
1.12000	29
1.12367	29
1.12733	29
1.13100	28
1.13467	27
1.13833	30
1.14200	31
1.14567	31
1.14933	30
1.15300	31
1.15667	32
1.16033	32
1.16400	30
1.16767	29
1.17133	30
1.17500	31
1.17867	32
1.18233	33
1.18600	37
1.18967	40
1.19333	42
1.19700	42
1.20067	40
1.20433	38
1.20800	35
1.21167	34
1.21533	34
1.21900	32
1.22267	32
1.22633	33
1.23000	34
1.23367	34
1.23733	35
1.24100	36
1.24467	36
1.24833	38
1.25200	40
1.25567	41
1.25933	42
1.26300	39
1.26667	35
1.27033	33
1.27400	32
1.27767	31
1.28133	32
1.28500	35
1.28867	38
1.29233	40
1.29600	41
1.29967	40
1.30333	39
1.30700	39
1.31067	39
1.31433	38
1.31800	38
1.32167	38
1.32533	38
1.32900	38
1.33267	40
1.33633	41
1.34000	41
1.34367	41
1.34733	38
1.35100	39
1.35467	38
1.35833	36
1.36200	35
1.36567	37
1.36933	39
1.37300	41
1.37667	40
1.38033	39
1.38400	39
1.38767	39
1.39133	38
1.39500	39
1.39867	41
1.40233	42
1.40600	42
1.40967	44
1.41333	45
1.41700	46
1.42067	44
1.42433	43
1.42800	41
1.43167	40
1.43533	38
1.43900	37
1.44267	36
1.44633	36
1.45000	35
1.45367	36
1.45733	36
1.46100	38
1.46467	39
1.46833	39
1.47200	39
1.47567	36
1.47933	36
1.48300	35
1.48667	34
1.49033	34
1.49400	33
1.49767	33
1.50133	32
1.50500	34
1.50867	35
1.51233	33
1.51600	31
1.51967	30
1.52333	29
1.52700	30
1.53067	30
1.53433	31
1.53800	30
1.54167	28
1.54533	28
1.54900	29
1.55267	31
1.55633	31
1.56000	31
1.56367	30
1.56733	30
1.57100	30
1.57467	29
1.57833	30
1.58200	35
1.58567	37
1.58933	38
1.59300	37
1.59667	36
1.60033	37
1.60400	36
1.60767	35
1.61133	33
1.61500	31
1.61867	31
1.62233	31
1.62600	32
1.62967	34
1.63333	36
1.63700	37
1.64067	37
1.64433	35
1.64800	35
1.65167	35
1.65533	33
1.65900	31
1.66267	32
1.66633	34
1.67000	37
1.67367	39
1.67733	39
1.68100	37
1.68467	38
1.68833	39
1.69200	40
1.69567	43
1.69933	43
1.70300	43
1.70667	46
1.71033	49
1.71400	47
1.71767	44
1.72133	44
1.72500	43
1.72867	44
1.73233	47
1.73600	48
1.73967	48
1.74333	48
1.74700	48
1.75067	46
1.75433	44
1.75800	45
1.76167	48
1.76533	48
1.76900	48
1.77267	50
1.77633	51
1.78000	53
1.78367	55
1.78733	56
1.79100	54
1.79467	51
1.79833	49
1.80200	49
1.80567	49
1.80933	50
1.81300	52
1.81667	54
1.82033	56
1.82400	55
1.82767	54
1.83133	54
1.83500	53
1.83867	52
1.84233	53
1.84600	55
1.84967	56
1.85333	55
1.85700	55
1.86067	57
1.86433	55
1.86800	53
1.87167	52
1.87533	54
1.87900	55
1.88267	56
1.88633	57
1.89000	58
1.89367	58
1.89733	57
1.90100	56
1.90467	55
1.90833	58
1.91200	58
1.91567	58
1.91933	59
1.92300	58
1.92667	60
1.93033	62
1.93400	62
1.93767	64
1.94133	66
1.94500	65
1.94867	62
1.95233	62
1.95600	62
1.95967	62
1.96333	61
1.96700	61
1.97067	63
1.97433	64
1.97800	65
1.98167	65
1.98533	64
1.98900	66
1.99267	68
1.99633	68
2.00000	66
2.00367	67
2.00733	68
2.01100	69
2.01467	69
2.01833	71
2.02200	73
2.02567	73
2.02933	71
2.03300	71
2.03667	70
2.04033	70
2.04400	71
2.04767	71
2.05133	72
2.05500	74
2.05867	76
2.06233	77
2.06600	77
2.06967	76
2.07333	77
2.07700	78
2.08067	79
2.08433	79
2.08800	80
2.09167	83
2.09533	85
2.09900	87
2.10267	88
2.10633	89
2.11000	89
2.11367	89
2.11733	87
2.12100	87
2.12467	88
2.12833	89
2.13200	90
2.13567	94
2.13933	97
2.14300	99
2.14667	101
2.15033	100
2.15400	99
2.15767	99
2.16133	99
2.16500	98
2.16867	98
2.17233	101
2.17600	104
2.17967	108
2.18333	111
2.18700	111
2.19067	110
2.19433	110
2.19800	110
2.20167	110
2.20533	110
2.20900	111
2.21267	116
2.21633	119
2.22000	119
2.22367	117
2.22733	119
2.23100	120
2.23467	116
2.23833	114
2.24200	116
2.24567	120
2.24933	124
2.25300	127
2.25667	130
2.26033	132
2.26400	133
2.26767	132
2.27133	130
2.27500	130
2.27867	131
2.28233	133
2.28600	135
2.28967	137
2.29333	140
2.29700	141
2.30067	144
2.30433	146
2.30800	148
2.31167	148
2.31533	149
2.31900	148
2.32267	148
2.32633	148
2.33000	150
2.33367	152
2.33733	152
2.34100	154
2.34467	154
2.34833	156
2.35200	157
2.35567	157
2.35933	158
2.36300	161
2.36667	163
2.37033	164
2.37400	165
2.37767	166
2.38133	165
2.38500	164
2.38867	163
2.39233	162
2.39600	162
2.39967	164
2.40333	167
2.40700	171
2.41067	175
2.41433	178
2.41800	181
2.42167	180
2.42533	178
2.42900	178
2.43267	178
2.43633	177
2.44000	176
2.44367	195
2.44733	242
2.45100	293
2.45467	320
2.45833	316
2.46200	296
2.46567	276
2.46933	260
2.47300	244
2.47667	225
2.48033	201
2.48400	175
2.48767	151
2.49133	130
2.49500	114
2.49867	106
2.50233	103
2.50600	106
2.50967	110
2.51333	116
2.51700	121
2.52067	120
2.52433	112
2.52800	102
2.53167	88
2.53533	74
2.53900	63
2.54267	51
2.54633	38
2.55000	30
2.55367	24
2.55733	18
2.56100	16
2.56467	16
2.56833	17
2.57200	17
2.57567	16
2.57933	18
2.58300	19
2.58667	22
2.59033	26
2.59400	30
2.59767	34
2.60133	37
2.60500	41
2.60867	38
2.61233	27
2.61600	7
2.61967	-20
2.62333	-53
2.62700	-89
2.63067	-125
2.63433	-161
2.63800	-196
2.64167	-226
2.64533	-250
2.64900	-268
2.65267	-282
2.65633	-290
2.66000	-293
2.66367	-293
2.66733	-291
2.67100	-286
2.67467	-280
2.67833	-271
2.68200	-262
2.68567	-253
2.68933	-244
2.69300	-233
2.69667	-222
2.70033	-212
2.70400	-202
2.70767	-192
2.71133	-181
2.71500	-174
2.71867	-168
2.72233	-160
2.72600	-151
2.72967	-142
2.73333	-136
2.73700	-131
2.74067	-127
2.74433	-122
2.74800	-114
2.75167	-107
2.75533	-101
2.75900	-96
2.76267	-90
2.76633	-85
2.77000	-80
2.77367	-77
2.77733	-74
2.78100	-69
2.78467	-64
2.78833	-59
2.79200	-56
2.79567	-54
2.79933	-48
2.80300	-39
2.80667	-34
2.81033	-33
2.81400	-31
2.81767	-26
2.82133	-20
2.82500	-13
2.82867	-6
2.83233	12
2.83600	51
2.83967	122
2.84333	247
2.84700	455
2.85067	763
2.85433	1181
2.85800	1704
2.86167	2311
2.86533	2959
2.86900	3598
2.87267	4178
2.87633	4649
2.88000	4981
2.88367	5156
2.88733	5176
2.89100	5059
2.89467	4834
2.89833	4530
2.90200	4179
2.90567	3804
2.90933	3423
2.91300	3054
2.91667	2703
2.92033	2377
2.92400	2080
2.92767	1813
2.93133	1574
2.93500	1364
2.93867	1180
2.94233	1020
2.94600	880
2.94967	758
2.95333	653
2.95700	558
2.96067	479
2.96433	410
2.96800	352
2.97167	299
2.97533	252
2.97900	210
2.98267	177
2.98633	151
2.99000	128
2.99367	110
2.99733	94
3.00100	80
3.00467	69
3.00833	61
3.01200	53
3.01567	45
3.01933	37
3.02300	28
3.02667	21
3.03033	17
3.03400	16
3.03767	14
3.04133	12
3.04500	12
3.04867	10
3.05233	8
3.05600	7
3.05967	6
3.06333	5
3.06700	5
3.07067	4
3.07433	4
3.07800	3
3.08167	2
3.08533	2
3.08900	-2
3.09267	-1
3.09633	2
3.10000	6
3.10367	7
3.10733	4
3.11100	1
3.11467	1
3.11833	2
3.12200	2
3.12567	3
3.12933	0
3.13300	-0
3.13667	2
3.14033	4
3.14400	5
3.14767	4
3.15133	1
3.15500	-2
3.15867	-1
3.16233	2
3.16600	3
3.16967	4
3.17333	6
3.17700	7
3.18067	9
3.18433	11
3.18800	12
3.19167	12
3.19533	14
3.19900	17
3.20267	18
3.20633	18
3.21000	18
3.21367	17
3.21733	19
3.22100	22
3.22467	25
3.22833	27
3.23200	30
3.23567	31
3.23933	32
3.24300	33
3.24667	36
3.25033	40
3.25400	42
3.25767	43
3.26133	46
3.26500	48
3.26867	47
3.27233	46
3.27600	45
3.27967	43
3.28333	41
3.28700	40
3.29067	40
3.29433	41
3.29800	43
3.30167	46
3.30533	49
3.30900	51
3.31267	52
3.31633	53
3.32000	53
3.32367	53
3.32733	54
3.33100	52
3.33467	48
3.33833	43
3.34200	43
3.34567	45
3.34933	47
3.35300	47
3.35667	46
3.36033	43
3.36400	42
3.36767	41
3.37133	42
3.37500	41
3.37867	39
3.38233	38
3.38600	39
3.38967	39
3.39333	41
3.39700	40
3.40067	37
3.40433	35
3.40800	35
3.41167	35
3.41533	35
3.41900	37
3.42267	38
3.42633	37
3.43000	36
3.43367	35
3.43733	35
3.44100	33
3.44467	29
3.44833	27
3.45200	27
3.45567	26
3.45933	26
3.46300	28
3.46667	28
3.47033	25
3.47400	22
3.47767	22
3.48133	21
3.48500	22
3.48867	22
3.49233	20
3.49600	18
3.49967	18
3.50333	16
3.50700	13
3.51067	12
3.51433	11
3.51800	11
3.52167	11
3.52533	11
3.52900	9
3.53267	7
3.53633	5
3.54000	5
3.54367	5
3.54733	6
3.55100	7
3.55467	6
3.55833	2
3.56200	-1
3.56567	-3
3.56933	-2
3.57300	-2
3.57667	-0
3.58033	3
3.58400	1
3.58767	-2
3.59133	-4
3.59500	-4
3.59867	-4
3.60233	-3
3.60600	-3
3.60967	-2
3.61333	-4
3.61700	-7
3.62067	-8
3.62433	-8
3.62800	-9
3.63167	-8
3.63533	-8
3.63900	-7
3.64267	-8
3.64633	-11
3.65000	-13
3.65367	-12
3.65733	-11
3.66100	-11
3.66467	-11
3.66833	-9
3.67200	-8
3.67567	-9
3.67933	-10
3.68300	-10
3.68667	-10
3.69033	-12
3.69400	-14
3.69767	-16
3.70133	-15
3.70500	-15
3.70867	-15
3.71233	-14
3.71600	-15
3.71967	-15
3.72333	-14
3.72700	-13
3.73067	-14
3.73433	-15
3.73800	-16
3.74167	-17
3.74533	-16
3.74900	-15
3.75267	-17
3.75633	-19
3.76000	-23
3.76367	-25
3.76733	-24
3.77100	-23
3.77467	-24
3.77833	-24
3.78200	-22
3.78567	-22
3.78933	-23
3.79300	-27
3.79667	-35
3.80033	-42
3.80400	-44
3.80767	-45
3.81133	-50
3.81500	-58
3.81867	-67
3.82233	-74
3.82600	-77
3.82967	-79
3.83333	-81
3.83700	-81
3.84067	-80
3.84433	-76
3.84800	-72
3.85167	-65
3.85533	-57
3.85900	-50
3.86267	-43
3.86633	-39
3.87000	-32
3.87367	-27
3.87733	-23
3.88100	-17
3.88467	-13
3.88833	-9
3.89200	-3
3.89567	3
3.89933	7
3.90300	13
3.90667	18
3.91033	25
3.91400	30
3.91767	36
3.92133	45
3.92500	50
3.92867	53
3.93233	57
3.93600	62
3.93967	69
3.94333	74
3.94700	78
3.95067	82
3.95433	88
3.95800	93
3.96167	95
3.96533	99
3.96900	103
3.97267	105
3.97633	105
3.98000	105
3.98367	107
3.98733	110
3.99100	113
3.99467	118
3.99833	118

[Status Trace (Column Oven Temperature)]
Interval(msec)	1000
# of Points	239
Start Time(min)	0.011
End Time(min)	3.977
Intensity Units	
Intensity Multiplier	1
R.Time (min)	Intensity
0.01057	35.07
0.02723	35.08
0.04390	35.07
0.06057	35.07
0.07723	35.07
0.09390	35.06
0.11057	35.06
0.12723	35.06
0.14390	35.05
0.16057	35.03
0.17723	35.02
0.19390	35.02
0.21057	35.01
0.22723	35.00
0.24390	35.00
0.26057	34.99
0.27723	34.99
0.29390	34.99
0.31057	34.99
0.32723	34.99
0.34390	34.98
0.36057	34.97
0.37723	34.97
0.39390	34.97
0.41057	34.98
0.42723	34.99
0.44390	34.99
0.46057	35.00
0.47723	34.99
0.49390	34.99
0.51057	35.00
0.52723	35.00
0.54390	34.99
0.56057	34.98
0.57723	34.98
0.59390	34.98
0.61057	34.98
0.62723	34.98
0.64390	34.98
0.66057	34.99
0.67723	34.98
0.69390	34.98
0.71057	34.98
0.72723	34.98
0.74390	34.98
0.76057	34.98
0.77723	34.98
0.79390	34.98
0.81057	34.97
0.82723	34.96
0.84390	34.96
0.86057	34.97
0.87723	34.97
0.89390	34.98
0.91057	34.98
0.92723	34.99
0.94390	34.99
0.96057	35.00
0.97723	35.00
0.99390	35.00
1.01057	34.99
1.02723	34.99
1.04390	34.99
1.06057	34.99
1.07723	35.00
1.09390	35.01
1.11057	35.01
1.12723	35.01
1.14390	35.01
1.16057	35.01
1.17723	35.00
1.19390	34.99
1.21057	34.99
1.22723	34.98
1.24390	34.98
1.26057	34.98
1.27723	34.98
1.29390	34.98
1.31057	34.98
1.32723	34.99
1.34390	34.99
1.36057	34.99
1.37723	34.99
1.39390	35.00
1.41057	35.00
1.42723	35.00
1.44390	35.00
1.46057	34.99
1.47723	34.99
1.49390	34.99
1.51057	35.00
1.52723	35.01
1.54390	35.02
1.56057	35.02
1.57723	35.00
1.59390	35.01
1.61057	35.08
1.62723	35.22
1.64390	35.41
1.66057	35.67
1.67723	36.02
1.69390	36.38
1.71057	36.73
1.72723	37.05
1.74390	37.40
1.76057	37.71
1.77723	38.04
1.79390	38.38
1.81057	38.71
1.82723	39.03
1.84390	39.37
1.86057	39.70
1.87723	40.02
1.89390	40.36
1.91057	40.69
1.92723	41.01
1.94390	41.34
1.96057	41.65
1.97723	41.97
1.99390	42.29
2.01057	42.62
2.02723	42.95
2.04390	43.28
2.06057	43.61
2.07723	43.94
2.09390	44.27
2.11057	44.58
2.12723	44.90
2.14390	45.23
2.16057	45.55
2.17723	45.90
2.19390	46.21
2.21057	46.53
2.22723	46.87
2.24390	47.25
2.26057	47.55
2.27723	47.86
2.29390	48.20
2.31057	48.54
2.32723	48.86
2.34390	49.19
2.36057	49.47
2.37723	49.63
2.39390	49.68
2.41057	49.67
2.42723	49.68
2.44390	49.68
2.46057	49.69
2.47723	49.70
2.49390	49.71
2.51057	49.73
2.52723	49.73
2.54390	49.73
2.56057	49.74
2.57723	49.76
2.59390	49.78
2.61057	49.79
2.62723	49.80
2.64390	49.80
2.66057	49.82
2.67723	49.82
2.69390	49.84
2.71057	49.85
2.72723	49.86
2.74390	49.87
2.76057	49.87
2.77723	49.87
2.79390	49.85
2.81057	49.87
2.82723	49.88
2.84390	49.89
2.86057	49.89
2.87723	49.90
2.89390	49.90
2.91057	49.92
2.92723	49.92
2.94390	49.92
2.96057	49.94
2.97723	49.95
2.99390	49.96
3.01057	49.97
3.02723	49.98
3.04390	49.99
3.06057	50.00
3.07723	50.02
3.09390	50.02
3.11057	50.03
3.12723	50.04
3.14390	50.05
3.16057	50.06
3.17723	50.07
3.19390	50.08
3.21057	50.08
3.22723	50.09
3.24390	50.09
3.26057	50.10
3.27723	50.10
3.29390	50.12
3.31057	50.12
3.32723	50.12
3.34390	50.11
3.36057	50.09
3.37723	50.07
3.39390	50.05
3.41057	50.03
3.42723	50.02
3.44390	50.00
3.46057	50.00
3.47723	49.98
3.49390	49.98
3.51057	49.98
3.52723	49.98
3.54390	49.98
3.56057	49.99
3.57723	49.99
3.59390	49.99
3.61057	49.99
3.62723	49.99
3.64390	50.00
3.66057	50.01
3.67723	50.01
3.69390	50.02
3.71057	50.02
3.72723	50.02
3.74390	50.02
3.76057	50.03
3.77723	50.03
3.79390	50.03
3.81057	50.03
3.82723	50.03
3.84390	50.04
3.86057	50.04
3.87723	50.05
3.89390	50.06
3.91057	50.05
3.92723	50.05
3.94390	50.05
3.96057	50.06
3.97723	50.06

[Status Trace (Injection Unit Temperature)]
Interval(msec)	1000
# of Points	239
Start Time(min)	0.011
End Time(min)	3.977
Intensity Units	
Intensity Multiplier	1
R.Time (min)	Intensity
0.01057	99.97
0.02723	99.98
0.04390	99.98
0.06057	99.98
0.07723	99.98
0.09390	99.98
0.11057	99.98
0.12723	99.98
0.14390	99.98
0.16057	99.98
0.17723	99.98
0.19390	99.98
0.21057	99.98
0.22723	99.98
0.24390	99.98
0.26057	99.98
0.27723	99.98
0.29390	99.98
0.31057	99.98
0.32723	99.99
0.34390	99.98
0.36057	99.98
0.37723	99.98
0.39390	99.99
0.41057	99.98
0.42723	99.98
0.44390	99.99
0.46057	99.98
0.47723	99.99
0.49390	99.99
0.51057	99.98
0.52723	99.99
0.54390	99.99
0.56057	99.98
0.57723	99.99
0.59390	99.99
0.61057	99.99
0.62723	99.98
0.64390	99.98
0.66057	99.99
0.67723	99.99
0.69390	99.99
0.71057	99.98
0.72723	99.98
0.74390	99.99
0.76057	99.98
0.77723	99.99
0.79390	99.97
0.81057	99.98
0.82723	99.98
0.84390	99.98
0.86057	99.98
0.87723	99.98
0.89390	99.98
0.91057	99.98
0.92723	99.99
0.94390	99.98
0.96057	99.98
0.97723	99.98
0.99390	99.98
1.01057	99.98
1.02723	99.98
1.04390	99.98
1.06057	99.98
1.07723	99.98
1.09390	99.98
1.11057	99.98
1.12723	99.98
1.14390	99.98
1.16057	99.98
1.17723	99.98
1.19390	99.98
1.21057	99.98
1.22723	99.98
1.24390	99.99
1.26057	99.98
1.27723	99.98
1.29390	99.98
1.31057	99.99
1.32723	99.99
1.34390	99.98
1.36057	99.98
1.37723	99.99
1.39390	99.98
1.41057	99.98
1.42723	99.98
1.44390	99.98
1.46057	99.99
1.47723	99.99
1.49390	99.99
1.51057	99.99
1.52723	99.99
1.54390	99.98
1.56057	99.98
1.57723	99.99
1.59390	99.99
1.61057	99.99
1.62723	99.99
1.64390	99.99
1.66057	99.98
1.67723	99.99
1.69390	99.99
1.71057	99.99
1.72723	99.99
1.74390	99.98
1.76057	99.98
1.77723	99.98
1.79390	99.99
1.81057	99.98
1.82723	99.99
1.84390	99.98
1.86057	99.98
1.87723	99.98
1.89390	99.98
1.91057	99.98
1.92723	99.98
1.94390	99.98
1.96057	99.98
1.97723	99.98
1.99390	99.98
2.01057	99.98
2.02723	99.98
2.04390	99.98
2.06057	99.98
2.07723	99.98
2.09390	99.98
2.11057	99.98
2.12723	99.98
2.14390	99.97
2.16057	99.98
2.17723	99.97
2.19390	99.98
2.21057	99.98
2.22723	99.98
2.24390	99.98
2.26057	99.98
2.27723	99.97
2.29390	99.98
2.31057	99.98
2.32723	99.97
2.34390	99.97
2.36057	99.97
2.37723	99.97
2.39390	99.97
2.41057	99.97
2.42723	99.97
2.44390	99.97
2.46057	99.97
2.47723	99.97
2.49390	99.98
2.51057	99.98
2.52723	99.97
2.54390	99.98
2.56057	99.98
2.57723	99.98
2.59390	99.98
2.61057	99.98
2.62723	99.98
2.64390	99.98
2.66057	99.98
2.67723	99.98
2.69390	99.98
2.71057	99.99
2.72723	99.99
2.74390	99.99
2.76057	99.99
2.77723	99.99
2.79390	99.99
2.81057	100.00
2.82723	99.99
2.84390	100.00
2.86057	100.00
2.87723	100.00
2.89390	100.00
2.91057	100.00
2.92723	100.00
2.94390	100.01
2.96057	100.01
2.97723	100.01
2.99390	100.01
3.01057	100.01
3.02723	100.01
3.04390	100.02
3.06057	100.02
3.07723	100.02
3.09390	100.02
3.11057	100.02
3.12723	100.02
3.14390	100.02
3.16057	100.02
3.17723	100.02
3.19390	100.02
3.21057	100.02
3.22723	100.03
3.24390	100.02
3.26057	100.03
3.27723	100.03
3.29390	100.03
3.31057	100.03
3.32723	100.03
3.34390	100.03
3.36057	100.03
3.37723	100.03
3.39390	100.03
3.41057	100.03
3.42723	100.03
3.44390	100.03
3.46057	100.03
3.47723	100.03
3.49390	100.03
3.51057	100.04
3.52723	100.04
3.54390	100.03
3.56057	100.03
3.57723	100.04
3.59390	100.04
3.61057	100.04
3.62723	100.04
3.64390	100.04
3.66057	100.04
3.67723	100.04
3.69390	100.04
3.71057	100.04
3.72723	100.04
3.74390	100.04
3.76057	100.04
3.77723	100.05
3.79390	100.04
3.81057	100.05
3.82723	100.05
3.84390	100.05
3.86057	100.05
3.87723	100.05
3.89390	100.05
3.91057	100.05
3.92723	100.05
3.94390	100.05
3.96057	100.05
3.97723	100.05

[Status Trace (Carrier Gas Pressure)]
Interval(msec)	1000
# of Points	239
Start Time(min)	0.011
End Time(min)	3.977
Intensity Units	
Intensity Multiplier	1
R.Time (min)	Intensity
0.01057	58.00
0.02723	55.08
0.04390	57.45
0.06057	59.43
0.07723	59.23
0.09390	58.02
0.11057	57.98
0.12723	58.01
0.14390	58.01
0.16057	58.00
0.17723	58.00
0.19390	58.00
0.21057	58.00
0.22723	58.00
0.24390	58.00
0.26057	58.00
0.27723	58.00
0.29390	58.00
0.31057	58.00
0.32723	58.00
0.34390	58.00
0.36057	58.00
0.37723	58.00
0.39390	58.00
0.41057	58.00
0.42723	58.00
0.44390	58.00
0.46057	58.00
0.47723	58.00
0.49390	58.00
0.51057	58.00
0.52723	58.00
0.54390	58.00
0.56057	58.00
0.57723	58.00
0.59390	58.00
0.61057	58.00
0.62723	58.00
0.64390	58.00
0.66057	58.00
0.67723	58.00
0.69390	58.00
0.71057	58.00
0.72723	58.00
0.74390	58.00
0.76057	58.00
0.77723	58.00
0.79390	58.00
0.81057	58.00
0.82723	58.00
0.84390	58.00
0.86057	58.00
0.87723	58.00
0.89390	58.00
0.91057	58.00
0.92723	58.00
0.94390	58.00
0.96057	58.00
0.97723	58.00
0.99390	58.00
1.01057	58.00
1.02723	58.00
1.04390	58.00
1.06057	58.00
1.07723	58.00
1.09390	58.00
1.11057	58.00
1.12723	58.00
1.14390	58.00
1.16057	58.00
1.17723	58.00
1.19390	58.00
1.21057	58.00
1.22723	58.00
1.24390	58.00
1.26057	58.00
1.27723	58.00
1.29390	58.00
1.31057	58.00
1.32723	58.00
1.34390	58.00
1.36057	58.00
1.37723	58.00
1.39390	58.00
1.41057	58.00
1.42723	58.00
1.44390	58.00
1.46057	58.00
1.47723	58.00
1.49390	58.00
1.51057	58.00
1.52723	58.00
1.54390	58.00
1.56057	58.00
1.57723	58.00
1.59390	58.00
1.61057	58.00
1.62723	58.00
1.64390	58.00
1.66057	58.00
1.67723	58.01
1.69390	58.00
1.71057	58.00
1.72723	58.00
1.74390	58.00
1.76057	58.00
1.77723	58.00
1.79390	58.00
1.81057	58.00
1.82723	58.00
1.84390	58.00
1.86057	58.00
1.87723	58.00
1.89390	58.00
1.91057	58.00
1.92723	58.00
1.94390	58.00
1.96057	58.00
1.97723	58.00
1.99390	58.00
2.01057	58.00
2.02723	58.00
2.04390	58.00
2.06057	58.00
2.07723	58.00
2.09390	58.00
2.11057	58.00
2.12723	58.00
2.14390	58.00
2.16057	58.00
2.17723	58.00
2.19390	58.00
2.21057	58.00
2.22723	58.00
2.24390	58.00
2.26057	58.00
2.27723	58.00
2.29390	58.00
2.31057	58.00
2.32723	58.00
2.34390	58.00
2.36057	58.00
2.37723	58.00
2.39390	57.99
2.41057	57.99
2.42723	58.00
2.44390	58.00
2.46057	58.00
2.47723	58.00
2.49390	58.00
2.51057	57.99
2.52723	57.98
2.54390	58.00
2.56057	58.00
2.57723	58.00
2.59390	58.00
2.61057	58.00
2.62723	58.00
2.64390	58.00
2.66057	58.00
2.67723	58.00
2.69390	58.00
2.71057	58.00
2.72723	58.00
2.74390	58.00
2.76057	58.00
2.77723	58.00
2.79390	58.00
2.81057	58.00
2.82723	58.00
2.84390	58.00
2.86057	58.00
2.87723	58.00
2.89390	58.00
2.91057	58.00
2.92723	58.00
2.94390	58.00
2.96057	58.00
2.97723	58.00
2.99390	58.00
3.01057	58.00
3.02723	58.00
3.04390	58.00
3.06057	58.00
3.07723	58.00
3.09390	58.00
3.11057	58.00
3.12723	58.00
3.14390	58.00
3.16057	58.00
3.17723	58.00
3.19390	58.00
3.21057	58.00
3.22723	58.00
3.24390	58.00
3.26057	58.00
3.27723	58.00
3.29390	58.00
3.31057	58.00
3.32723	58.00
3.34390	58.00
3.36057	58.00
3.37723	58.00
3.39390	58.00
3.41057	58.00
3.42723	58.00
3.44390	58.00
3.46057	58.00
3.47723	58.00
3.49390	58.00
3.51057	58.00
3.52723	58.00
3.54390	58.00
3.56057	58.00
3.57723	58.00
3.59390	58.00
3.61057	58.00
3.62723	58.00
3.64390	58.00
3.66057	58.00
3.67723	58.00
3.69390	58.00
3.71057	58.00
3.72723	58.00
3.74390	58.00
3.76057	58.00
3.77723	58.00
3.79390	58.00
3.81057	58.00
3.82723	58.00
3.84390	58.00
3.86057	58.00
3.87723	58.00
3.89390	58.00
3.91057	58.00
3.92723	58.00
3.94390	58.00
3.96057	58.00
3.97723	58.00

[Status Trace (Carrier Gas Flow)]
Interval(msec)	1000
# of Points	239
Start Time(min)	0.011
End Time(min)	3.977
Intensity Units	
Intensity Multiplier	1
R.Time (min)	Intensity
0.01057	34.52
0.02723	34.54
0.04390	34.55
0.06057	34.55
0.07723	34.49
0.09390	34.52
0.11057	34.52
0.12723	34.52
0.14390	34.52
0.16057	34.52
0.17723	34.52
0.19390	34.52
0.21057	34.52
0.22723	34.52
0.24390	34.52
0.26057	34.52
0.27723	34.52
0.29390	34.52
0.31057	34.52
0.32723	34.52
0.34390	34.52
0.36057	34.52
0.37723	34.52
0.39390	34.52
0.41057	34.52
0.42723	34.52
0.44390	34.52
0.46057	34.52
0.47723	34.52
0.49390	34.52
0.51057	34.52
0.52723	34.52
0.54390	34.52
0.56057	34.52
0.57723	34.52
0.59390	34.52
0.61057	34.52
0.62723	34.52
0.64390	34.52
0.66057	34.52
0.67723	34.52
0.69390	34.52
0.71057	34.52
0.72723	34.52
0.74390	34.52
0.76057	34.52
0.77723	34.52
0.79390	34.52
0.81057	34.52
0.82723	34.52
0.84390	34.52
0.86057	34.52
0.87723	34.52
0.89390	34.52
0.91057	34.52
0.92723	34.52
0.94390	34.51
0.96057	34.51
0.97723	34.52
0.99390	34.51
1.01057	34.52
1.02723	34.52
1.04390	34.52
1.06057	34.52
1.07723	34.52
1.09390	34.52
1.11057	34.52
1.12723	34.52
1.14390	34.52
1.16057	34.52
1.17723	34.52
1.19390	34.52
1.21057	34.52
1.22723	34.52
1.24390	34.52
1.26057	34.52
1.27723	34.52
1.29390	34.52
1.31057	34.52
1.32723	34.52
1.34390	34.51
1.36057	34.52
1.37723	34.52
1.39390	34.52
1.41057	34.52
1.42723	34.52
1.44390	34.52
1.46057	34.52
1.47723	34.52
1.49390	34.52
1.51057	34.52
1.52723	34.52
1.54390	34.52
1.56057	34.53
1.57723	34.51
1.59390	34.52
1.61057	34.52
1.62723	34.52
1.64390	34.52
1.66057	34.52
1.67723	34.52
1.69390	34.52
1.71057	34.52
1.72723	34.52
1.74390	34.52
1.76057	34.52
1.77723	34.52
1.79390	34.52
1.81057	34.52
1.82723	34.52
1.84390	34.52
1.86057	34.52
1.87723	34.52
1.89390	34.52
1.91057	34.53
1.92723	34.51
1.94390	34.52
1.96057	34.52
1.97723	34.52
1.99390	34.52
2.01057	34.52
2.02723	34.52
2.04390	34.52
2.06057	34.52
2.07723	34.52
2.09390	34.52
2.11057	34.52
2.12723	34.52
2.14390	34.52
2.16057	34.52
2.17723	34.52
2.19390	34.52
2.21057	34.52
2.22723	34.52
2.24390	34.52
2.26057	34.52
2.27723	34.52
2.29390	34.53
2.31057	34.52
2.32723	34.52
2.34390	34.52
2.36057	34.52
2.37723	34.52
2.39390	34.51
2.41057	34.52
2.42723	34.52
2.44390	34.52
2.46057	34.52
2.47723	34.51
2.49390	34.52
2.51057	34.52
2.52723	34.52
2.54390	34.52
2.56057	34.52
2.57723	34.52
2.59390	34.52
2.61057	34.52
2.62723	34.52
2.64390	34.52
2.66057	34.52
2.67723	34.52
2.69390	34.52
2.71057	34.52
2.72723	34.52
2.74390	34.52
2.76057	34.52
2.77723	34.52
2.79390	34.52
2.81057	34.52
2.82723	34.52
2.84390	34.52
2.86057	34.52
2.87723	34.52
2.89390	34.52
2.91057	34.52
2.92723	34.52
2.94390	34.52
2.96057	34.52
2.97723	34.52
2.99390	34.52
3.01057	34.52
3.02723	34.52
3.04390	34.52
3.06057	34.52
3.07723	34.52
3.09390	34.52
3.11057	34.52
3.12723	34.52
3.14390	34.52
3.16057	34.52
3.17723	34.52
3.19390	34.52
3.21057	34.52
3.22723	34.52
3.24390	34.52
3.26057	34.52
3.27723	34.52
3.29390	34.52
3.31057	34.52
3.32723	34.52
3.34390	34.52
3.36057	34.52
3.37723	34.52
3.39390	34.52
3.41057	34.52
3.42723	34.52
3.44390	34.52
3.46057	34.52
3.47723	34.52
3.49390	34.52
3.51057	34.52
3.52723	34.52
3.54390	34.52
3.56057	34.52
3.57723	34.52
3.59390	34.51
3.61057	34.52
3.62723	34.52
3.64390	34.52
3.66057	34.52
3.67723	34.52
3.69390	34.52
3.71057	34.52
3.72723	34.52
3.74390	34.52
3.76057	34.53
3.77723	34.52
3.79390	34.52
3.81057	34.53
3.82723	34.51
3.84390	34.52
3.86057	34.52
3.87723	34.52
3.89390	34.52
3.91057	34.52
3.92723	34.53
3.94390	34.52
3.96057	34.52
3.97723	34.52

[Status Trace (Column Flow)]
Interval(msec)	1000
# of Points	239
Start Time(min)	0.011
End Time(min)	3.977
Intensity Units	
Intensity Multiplier	1
R.Time (min)	Intensity
0.01057	5.51
0.02723	5.17
0.04390	5.44
0.06057	5.67
0.07723	5.65
0.09390	5.51
0.11057	5.50
0.12723	5.51
0.14390	5.51
0.16057	5.51
0.17723	5.51
0.19390	5.51
0.21057	5.51
0.22723	5.51
0.24390	5.51
0.26057	5.51
0.27723	5.51
0.29390	5.51
0.31057	5.51
0.32723	5.51
0.34390	5.51
0.36057	5.51
0.37723	5.51
0.39390	5.51
0.41057	5.51
0.42723	5.51
0.44390	5.51
0.46057	5.51
0.47723	5.51
0.49390	5.51
0.51057	5.51
0.52723	5.51
0.54390	5.51
0.56057	5.51
0.57723	5.51
0.59390	5.51
0.61057	5.51
0.62723	5.51
0.64390	5.51
0.66057	5.51
0.67723	5.51
0.69390	5.51
0.71057	5.51
0.72723	5.51
0.74390	5.51
0.76057	5.51
0.77723	5.51
0.79390	5.51
0.81057	5.51
0.82723	5.51
0.84390	5.51
0.86057	5.51
0.87723	5.51
0.89390	5.51
0.91057	5.51
0.92723	5.51
0.94390	5.51
0.96057	5.51
0.97723	5.51
0.99390	5.51
1.01057	5.51
1.02723	5.51
1.04390	5.51
1.06057	5.51
1.07723	5.51
1.09390	5.51
1.11057	5.51
1.12723	5.51
1.14390	5.51
1.16057	5.51
1.17723	5.51
1.19390	5.51
1.21057	5.51
1.22723	5.51
1.24390	5.51
1.26057	5.51
1.27723	5.51
1.29390	5.51
1.31057	5.51
1.32723	5.51
1.34390	5.51
1.36057	5.51
1.37723	5.51
1.39390	5.51
1.41057	5.51
1.42723	5.51
1.44390	5.51
1.46057	5.51
1.47723	5.51
1.49390	5.51
1.51057	5.51
1.52723	5.51
1.54390	5.51
1.56057	5.51
1.57723	5.51
1.59390	5.51
1.61057	5.51
1.62723	5.50
1.64390	5.50
1.66057	5.49
1.67723	5.48
1.69390	5.46
1.71057	5.45
1.72723	5.44
1.74390	5.43
1.76057	5.42
1.77723	5.41
1.79390	5.40
1.81057	5.39
1.82723	5.38
1.84390	5.37
1.86057	5.36
1.87723	5.35
1.89390	5.34
1.91057	5.33
1.92723	5.32
1.94390	5.31
1.96057	5.30
1.97723	5.29
1.99390	5.29
2.01057	5.28
2.02723	5.27
2.04390	5.26
2.06057	5.25
2.07723	5.24
2.09390	5.23
2.11057	5.22
2.12723	5.21
2.14390	5.20
2.16057	5.19
2.17723	5.18
2.19390	5.17
2.21057	5.16
2.22723	5.15
2.24390	5.14
2.26057	5.13
2.27723	5.13
2.29390	5.12
2.31057	5.11
2.32723	5.10
2.34390	5.09
2.36057	5.08
2.37723	5.08
2.39390	5.07
2.41057	5.07
2.42723	5.07
2.44390	5.07
2.46057	5.07
2.47723	5.07
2.49390	5.07
2.51057	5.07
2.52723	5.07
2.54390	5.07
2.56057	5.07
2.57723	5.07
2.59390	5.07
2.61057	5.07
2.62723	5.07
2.64390	5.07
2.66057	5.07
2.67723	5.07
2.69390	5.07
2.71057	5.07
2.72723	5.07
2.74390	5.07
2.76057	5.07
2.77723	5.07
2.79390	5.07
2.81057	5.07
2.82723	5.07
2.84390	5.07
2.86057	5.07
2.87723	5.07
2.89390	5.07
2.91057	5.07
2.92723	5.07
2.94390	5.07
2.96057	5.07
2.97723	5.07
2.99390	5.07
3.01057	5.07
3.02723	5.07
3.04390	5.07
3.06057	5.07
3.07723	5.06
3.09390	5.06
3.11057	5.06
3.12723	5.06
3.14390	5.06
3.16057	5.06
3.17723	5.06
3.19390	5.06
3.21057	5.06
3.22723	5.06
3.24390	5.06
3.26057	5.06
3.27723	5.06
3.29390	5.06
3.31057	5.06
3.32723	5.06
3.34390	5.06
3.36057	5.06
3.37723	5.06
3.39390	5.06
3.41057	5.06
3.42723	5.06
3.44390	5.07
3.46057	5.07
3.47723	5.07
3.49390	5.07
3.51057	5.07
3.52723	5.07
3.54390	5.07
3.56057	5.07
3.57723	5.07
3.59390	5.07
3.61057	5.07
3.62723	5.07
3.64390	5.07
3.66057	5.07
3.67723	5.07
3.69390	5.07
3.71057	5.06
3.72723	5.07
3.74390	5.07
3.76057	5.06
3.77723	5.06
3.79390	5.06
3.81057	5.06
3.82723	5.06
3.84390	5.06
3.86057	5.06
3.87723	5.06
3.89390	5.06
3.91057	5.06
3.92723	5.06
3.94390	5.06
3.96057	5.06
3.97723	5.06

[Status Trace (Linear Velocity)]
Interval(msec)	1000
# of Points	239
Start Time(min)	0.011
End Time(min)	3.977
Intensity Units	
Intensity Multiplier	1
R.Time (min)	Intensity
0.01057	39.01
0.02723	37.09
0.04390	38.64
0.06057	39.95
0.07723	39.81
0.09390	39.02
0.11057	39.00
0.12723	39.02
0.14390	39.01
0.16057	39.01
0.17723	39.01
0.19390	39.01
0.21057	39.01
0.22723	39.01
0.24390	39.01
0.26057	39.01
0.27723	39.02
0.29390	39.02
0.31057	39.02
0.32723	39.02
0.34390	39.02
0.36057	39.02
0.37723	39.01
0.39390	39.02
0.41057	39.02
0.42723	39.01
0.44390	39.01
0.46057	39.01
0.47723	39.01
0.49390	39.01
0.51057	39.01
0.52723	39.01
0.54390	39.01
0.56057	39.02
0.57723	39.02
0.59390	39.02
0.61057	39.02
0.62723	39.01
0.64390	39.02
0.66057	39.01
0.67723	39.02
0.69390	39.01
0.71057	39.01
0.72723	39.02
0.74390	39.02
0.76057	39.02
0.77723	39.02
0.79390	39.02
0.81057	39.02
0.82723	39.02
0.84390	39.02
0.86057	39.02
0.87723	39.02
0.89390	39.02
0.91057	39.02
0.92723	39.01
0.94390	39.01
0.96057	39.01
0.97723	39.01
0.99390	39.01
1.01057	39.01
1.02723	39.01
1.04390	39.01
1.06057	39.01
1.07723	39.01
1.09390	39.01
1.11057	39.01
1.12723	39.01
1.14390	39.01
1.16057	39.01
1.17723	39.01
1.19390	39.01
1.21057	39.01
1.22723	39.01
1.24390	39.01
1.26057	39.02
1.27723	39.01
1.29390	39.02
1.31057	39.01
1.32723	39.01
1.34390	39.02
1.36057	39.01
1.37723	39.01
1.39390	39.01
1.41057	39.01
1.42723	39.01
1.44390	39.01
1.46057	39.01
1.47723	39.01
1.49390	39.02
1.51057	39.01
1.52723	39.01
1.54390	39.01
1.56057	39.01
1.57723	39.01
1.59390	39.01
1.61057	39.01
1.62723	39.00
1.64390	38.98
1.66057	38.95
1.67723	38.92
1.69390	38.88
1.71057	38.85
1.72723	38.82
1.74390	38.78
1.76057	38.75
1.77723	38.72
1.79390	38.69
1.81057	38.66
1.82723	38.63
1.84390	38.60
1.86057	38.57
1.87723	38.54
1.89390	38.51
1.91057	38.47
1.92723	38.44
1.94390	38.41
1.96057	38.38
1.97723	38.36
1.99390	38.33
2.01057	38.30
2.02723	38.26
2.04390	38.24
2.06057	38.20
2.07723	38.17
2.09390	38.14
2.11057	38.12
2.12723	38.09
2.14390	38.06
2.16057	38.03
2.17723	38.00
2.19390	37.97
2.21057	37.94
2.22723	37.91
2.24390	37.88
2.26057	37.85
2.27723	37.82
2.29390	37.79
2.31057	37.76
2.32723	37.73
2.34390	37.70
2.36057	37.68
2.37723	37.66
2.39390	37.65
2.41057	37.66
2.42723	37.66
2.44390	37.66
2.46057	37.66
2.47723	37.66
2.49390	37.65
2.51057	37.65
2.52723	37.64
2.54390	37.65
2.56057	37.65
2.57723	37.65
2.59390	37.65
2.61057	37.65
2.62723	37.65
2.64390	37.65
2.66057	37.65
2.67723	37.64
2.69390	37.64
2.71057	37.64
2.72723	37.64
2.74390	37.64
2.76057	37.64
2.77723	37.64
2.79390	37.64
2.81057	37.64
2.82723	37.64
2.84390	37.64
2.86057	37.64
2.87723	37.64
2.89390	37.64
2.91057	37.64
2.92723	37.64
2.94390	37.64
2.96057	37.64
2.97723	37.63
2.99390	37.63
3.01057	37.63
3.02723	37.63
3.04390	37.63
3.06057	37.63
3.07723	37.63
3.09390	37.63
3.11057	37.63
3.12723	37.63
3.14390	37.63
3.16057	37.62
3.17723	37.62
3.19390	37.62
3.21057	37.62
3.22723	37.62
3.24390	37.62
3.26057	37.62
3.27723	37.62
3.29390	37.62
3.31057	37.62
3.32723	37.62
3.34390	37.62
3.36057	37.62
3.37723	37.62
3.39390	37.62
3.41057	37.63
3.42723	37.63
3.44390	37.63
3.46057	37.63
3.47723	37.63
3.49390	37.63
3.51057	37.63
3.52723	37.63
3.54390	37.63
3.56057	37.63
3.57723	37.63
3.59390	37.63
3.61057	37.63
3.62723	37.63
3.64390	37.63
3.66057	37.63
3.67723	37.63
3.69390	37.63
3.71057	37.63
3.72723	37.63
3.74390	37.63
3.76057	37.63
3.77723	37.63
3.79390	37.63
3.81057	37.63
3.82723	37.63
3.84390	37.63
3.86057	37.63
3.87723	37.63
3.89390	37.62
3.91057	37.62
3.92723	37.63
3.94390	37.62
3.96057	37.62
3.97723	37.62

