[Header]
Application Name	LabSolutions
Version	5.110
Data File Name	C:\Users\User\Desktop\GC Analyses\Jack\UIC Prairie Sampling\9.30.22\220930_051.gcd
Output Date	1/4/2023
Output Time	2:27:57 PM

[File Information]
Type	Data File
Generated	11/30/2022 1:23:25 PM
Generated by	System Administrator
Modified	11/30/2022 1:28:30 PM
Modified by	System Administrator

[Sample Information]
Operator Name	System Administrator
Acquired	11/30/2022 1:24:29 PM
Sample Type	1:Standard
Level	1
Sample Name	220930_UICPrairie
Sample ID	220930_UICPrairie
ISTD Amount1	1
ISTD Amount2	1
ISTD Amount3	1
ISTD Amount4	1
ISTD Amount5	1
ISTD Amount6	1
ISTD Amount7	1
ISTD Amount8	1
ISTD Amount9	1
ISTD Amount10	1
ISTD Amount11	1
ISTD Amount12	1
ISTD Amount13	1
ISTD Amount14	1
ISTD Amount15	1
ISTD Amount16	1
ISTD Amount17	1
ISTD Amount18	1
ISTD Amount19	1
ISTD Amount20	1
ISTD Amount21	1
ISTD Amount22	1
ISTD Amount23	1
ISTD Amount24	1
ISTD Amount25	1
ISTD Amount26	1
ISTD Amount27	1
ISTD Amount28	1
ISTD Amount29	1
ISTD Amount30	1
ISTD Amount31	1
ISTD Amount32	1
Sample Amount	1
Dilution Factor	1
Vial#	1
Injection Volume	1
Injection Count	1
Bar Code	

[Original Files]
Data File	C:\Users\User\Desktop\GC Analyses\Jack\UIC Prairie Sampling\9.30.22\220930_051.gcd
Method File	C:\LabSolutions\Data\GHG_4min_2022\ghg3_togas_w_acet_4 min_new_int.gcm
Batch File	
Report Format File	c:\LabSolutions\System\DEFAULT.lsr

[File Description]


[Configuration]
Instrument Name	C0B7VH3-Instrument1
Instrument #	1
Line #	1
# of Detectors	3
Detector ID	DET#1	DET#2	DET#3
Detector Name	FID	PTCD	ECD
# of Channels	1	1	1

[Peak Table(Ch1)]
# of Peaks	3
Peak#	R.Time	I.Time	F.Time	Area	Height	A/H	Conc.	Mark	ID#	Name	k'	Plate #	Plate Ht.	Tailing	Resolution	Sep.Factor	Area Ratio	Height Ratio	Conc. %	Norm Conc.
1	1.479	1.435	1.538	11770	5153	2.284	100.000	   	1	CO	0.000	8095	18.529	1.189	0.000	0.000	0	0	16.667	16.667
2	1.571	1.538	1.633	5014	2483	2.019	100.000	 V 	2	CH4	0.062	11135	13.470	1.088	1.463	0.000	0	0	16.667	16.667
3	2.000	1.952	2.422	1236917	589335	2.099	400.000	   	3	CO2	0.352	17476	8.583	1.213	7.146	5.680	0	0	66.667	66.667

[Peak Table(Ch2)]
# of Peaks	0

[Peak Table(Ch3)]
# of Peaks	4
Peak#	R.Time	I.Time	F.Time	Area	Height	A/H	Conc.	Mark	ID#	Name	k'	Plate #	Plate Ht.	Tailing	Resolution	Sep.Factor	Area Ratio	Height Ratio	Conc. %	Norm Conc.
1	2.510	2.440	2.521	997	309	3.225	0.000	   			0.000	1089	137.785	0.000	0.000	0.000	0	0	0.000	0.000
2	2.576	2.521	2.660	2169	388	5.586	0.000	 V 			0.026	1241	120.822	0.000	0.221	0.000	0	0	0.000	0.000
3	2.763	2.660	2.821	1164	171	6.824	0.053	 V 	1	N2O	0.101	1662	90.265	0.000	0.664	3.833	0	0	5.252	5.252
4	2.887	2.821	3.217	20994	5291	3.968	0.947	 V 	1	N2O	0.150	13167	11.392	1.564	0.671	1.493	0	0	94.748	94.748

[Compound Results(Ch1)]
# of IDs	6
ID#	Name	R.Time	Area	Height	Conc.	Curve	3rd	2nd	1st	Constant	Area Ratio	Height Ratio	Conc. %	Norm Conc.
1	CO	1.479	11770	5153	100.000	Linear	0.000000e+00	0.000000e+00	1.176997e+002	0.000000e+00	0	0	16.667	16.667
2	CH4	1.571	5014	2483	100.000	Linear	0.000000e+00	0.000000e+00	5.014024e+001	0.000000e+00	0	0	16.667	16.667
3	CO2	2.000	1236917	589335	400.000	Linear	0.000000e+00	0.000000e+00	3.092292e+003	0.000000e+00	0	0	66.667	66.667
4	Ethylene	0.000	0	0	0.000	Linear	0.000000e+00	0.000000e+00	0.000000e+00	0.000000e+00	0	0	0.000	0.000
5	Acetylene	0.000	0	0	0.000	Linear	0.000000e+00	0.000000e+00	0.000000e+00	0.000000e+00	0	0	0.000	0.000
6	Ethane	0.000	0	0	0.000	Linear	0.000000e+00	0.000000e+00	0.000000e+00	0.000000e+00	0	0	0.000	0.000

[Compound Results(Ch2)]
# of IDs	5
ID#	Name	R.Time	Area	Height	Conc.	Curve	3rd	2nd	1st	Constant	Area Ratio	Height Ratio	Conc. %	Norm Conc.
1	Hydrogen	0.000	0	0	0.000	Linear	0.000000e+00	0.000000e+00	0.000000e+00	0.000000e+00	0	0	0.000	0.000
2	Oxygen	0.000	0	0	0.000	Linear	0.000000e+00	0.000000e+00	0.000000e+00	0.000000e+00	0	0	0.000	0.000
3	Nitrogen	0.000	0	0	0.000	Linear	0.000000e+00	0.000000e+00	0.000000e+00	0.000000e+00	0	0	0.000	0.000
4	Methane	0.000	0	0	0.000	Linear	0.000000e+00	0.000000e+00	0.000000e+00	0.000000e+00	0	0	0.000	0.000
5	Carbon Monoxide	0.000	0	0	0.000	Linear	0.000000e+00	0.000000e+00	0.000000e+00	0.000000e+00	0	0	0.000	0.000

[Compound Results(Ch3)]
# of IDs	2
ID#	Name	R.Time	Area	Height	Conc.	Curve	3rd	2nd	1st	Constant	Area Ratio	Height Ratio	Conc. %	Norm Conc.
1	N2O	2.887	22157	5462	1.000	Linear	0.000000e+00	0.000000e+00	2.215743e+004	0.000000e+00	0	0	100.000	100.000
2	SF6	0.000	0	0	0.000	Linear	0.000000e+00	0.000000e+00	0.000000e+00	0.000000e+00	0	0	0.000	0.000

[Group Results(Ch1)]
# of Groups	0

[Group Results(Ch2)]
# of Groups	0

[Group Results(Ch3)]
# of Groups	0

[Chromatogram (Ch1)]
Interval(msec)	220
# of Points	1091
Start Time(min)	0.002
End Time(min)	3.998
R.Time (min)	Intensity
0.00167	5
0.00533	6
0.00900	6
0.01267	7
0.01633	7
0.02000	4
0.02367	1
0.02733	3
0.03100	8
0.03467	9
0.03833	5
0.04200	-0
0.04567	-2
0.04933	-1
0.05300	1
0.05667	1
0.06033	-1
0.06400	-2
0.06767	-3
0.07133	-3
0.07500	-3
0.07867	-3
0.08233	-1
0.08600	1
0.08967	6
0.09333	13
0.09700	19
0.10067	23
0.10433	24
0.10800	23
0.11167	18
0.11533	14
0.11900	7
0.12267	1
0.12633	-1
0.13000	1
0.13367	2
0.13733	3
0.14100	8
0.14467	12
0.14833	15
0.15200	13
0.15567	10
0.15933	12
0.16300	16
0.16667	18
0.17033	15
0.17400	12
0.17767	12
0.18133	12
0.18500	10
0.18867	9
0.19233	9
0.19600	9
0.19967	10
0.20333	13
0.20700	13
0.21067	8
0.21433	-0
0.21800	-5
0.22167	-4
0.22533	-4
0.22900	-4
0.23267	-3
0.23633	1
0.24000	2
0.24367	1
0.24733	-0
0.25100	-1
0.25467	-0
0.25833	2
0.26200	4
0.26567	5
0.26933	4
0.27300	2
0.27667	1
0.28033	-0
0.28400	-1
0.28767	-3
0.29133	-5
0.29500	-3
0.29867	2
0.30233	8
0.30600	10
0.30967	8
0.31333	5
0.31700	6
0.32067	9
0.32433	13
0.32800	20
0.33167	23
0.33533	20
0.33900	15
0.34267	9
0.34633	2
0.35000	-3
0.35367	-2
0.35733	-1
0.36100	-2
0.36467	-3
0.36833	-6
0.37200	-11
0.37567	-14
0.37933	-17
0.38300	-21
0.38667	-21
0.39033	-17
0.39400	-11
0.39767	-9
0.40133	-12
0.40500	-19
0.40867	-27
0.41233	-30
0.41600	-30
0.41967	-29
0.42333	-27
0.42700	-25
0.43067	-21
0.43433	-16
0.43800	-12
0.44167	-12
0.44533	-16
0.44900	-19
0.45267	-22
0.45633	-24
0.46000	-25
0.46367	-21
0.46733	-16
0.47100	-14
0.47467	-13
0.47833	-13
0.48200	-14
0.48567	-16
0.48933	-17
0.49300	-20
0.49667	-20
0.50033	-20
0.50400	-21
0.50767	-22
0.51133	-20
0.51500	-19
0.51867	-20
0.52233	-21
0.52600	-21
0.52967	-17
0.53333	-10
0.53700	-9
0.54067	-12
0.54433	-13
0.54800	-14
0.55167	-16
0.55533	-22
0.55900	-28
0.56267	-34
0.56633	-36
0.57000	-33
0.57367	-26
0.57733	-18
0.58100	-13
0.58467	-14
0.58833	-21
0.59200	-30
0.59567	-35
0.59933	-36
0.60300	-36
0.60667	-35
0.61033	-32
0.61400	-29
0.61767	-32
0.62133	-38
0.62500	-41
0.62867	-39
0.63233	-35
0.63600	-34
0.63967	-37
0.64333	-43
0.64700	-46
0.65067	-46
0.65433	-43
0.65800	-36
0.66167	-27
0.66533	-21
0.66900	-19
0.67267	-24
0.67633	-30
0.68000	-33
0.68367	-32
0.68733	-29
0.69100	-23
0.69467	-18
0.69833	-17
0.70200	-19
0.70567	-22
0.70933	-26
0.71300	-29
0.71667	-32
0.72033	-35
0.72400	-36
0.72767	-33
0.73133	-31
0.73500	-32
0.73867	-35
0.74233	-38
0.74600	-39
0.74967	-39
0.75333	-36
0.75700	-33
0.76067	-32
0.76433	-32
0.76800	-32
0.77167	-31
0.77533	-29
0.77900	-30
0.78267	-35
0.78633	-39
0.79000	-42
0.79367	-45
0.79733	-47
0.80100	-46
0.80467	-43
0.80833	-36
0.81200	-27
0.81567	-22
0.81933	-22
0.82300	-24
0.82667	-30
0.83033	-36
0.83400	-36
0.83767	-34
0.84133	-33
0.84500	-34
0.84867	-37
0.85233	-40
0.85600	-42
0.85967	-46
0.86333	-50
0.86700	-50
0.87067	-44
0.87433	-34
0.87800	-26
0.88167	-26
0.88533	-36
0.88900	-50
0.89267	-61
0.89633	-66
0.90000	-66
0.90367	-63
0.90733	-61
0.91100	-59
0.91467	-58
0.91833	-57
0.92200	-53
0.92567	-48
0.92933	-44
0.93300	-41
0.93667	-39
0.94033	-38
0.94400	-41
0.94767	-49
0.95133	-59
0.95500	-66
0.95867	-66
0.96233	-65
0.96600	-68
0.96967	-70
0.97333	-67
0.97700	-58
0.98067	-51
0.98433	-50
0.98800	-52
0.99167	-53
0.99533	-56
0.99900	-61
1.00267	-63
1.00633	-63
1.01000	-63
1.01367	-60
1.01733	-56
1.02100	-53
1.02467	-51
1.02833	-52
1.03200	-55
1.03567	-61
1.03933	-67
1.04300	-74
1.04667	-83
1.05033	-88
1.05400	-88
1.05767	-83
1.06133	-79
1.06500	-79
1.06867	-81
1.07233	-76
1.07600	-70
1.07967	-64
1.08333	-62
1.08700	-63
1.09067	-65
1.09433	-64
1.09800	-61
1.10167	-58
1.10533	-60
1.10900	-64
1.11267	-67
1.11633	-71
1.12000	-77
1.12367	-83
1.12733	-87
1.13100	-88
1.13467	-85
1.13833	-78
1.14200	-71
1.14567	-67
1.14933	-67
1.15300	-67
1.15667	-67
1.16033	-66
1.16400	-68
1.16767	-74
1.17133	-83
1.17500	-92
1.17867	-95
1.18233	-93
1.18600	-90
1.18967	-90
1.19333	-88
1.19700	-85
1.20067	-81
1.20433	-79
1.20800	-81
1.21167	-81
1.21533	-75
1.21900	-66
1.22267	-57
1.22633	-52
1.23000	-49
1.23367	-49
1.23733	-53
1.24100	-60
1.24467	-67
1.24833	-76
1.25200	-87
1.25567	-95
1.25933	-104
1.26300	-113
1.26667	-115
1.27033	-112
1.27400	-108
1.27767	-101
1.28133	-93
1.28500	-87
1.28867	-86
1.29233	-88
1.29600	-87
1.29967	-81
1.30333	-73
1.30700	-67
1.31067	-66
1.31433	-71
1.31800	-78
1.32167	-87
1.32533	-95
1.32900	-99
1.33267	-99
1.33633	-98
1.34000	-98
1.34367	-97
1.34733	-95
1.35100	-91
1.35467	-87
1.35833	-86
1.36200	-88
1.36567	-92
1.36933	-96
1.37300	-102
1.37667	-107
1.38033	-108
1.38400	-102
1.38767	-89
1.39133	-76
1.39500	-71
1.39867	-73
1.40233	-80
1.40600	-88
1.40967	-95
1.41333	-100
1.41700	-104
1.42067	-105
1.42433	-106
1.42800	-105
1.43167	-104
1.43533	-101
1.43900	-85
1.44267	-19
1.44633	154
1.45000	451
1.45367	930
1.45733	1663
1.46100	2563
1.46467	3451
1.46833	4195
1.47200	4732
1.47567	5030
1.47933	5052
1.48300	4775
1.48667	4234
1.49033	3528
1.49400	2790
1.49767	2121
1.50133	1569
1.50500	1136
1.50867	810
1.51233	570
1.51600	397
1.51967	273
1.52333	183
1.52700	117
1.53067	68
1.53433	34
1.53800	19
1.54167	47
1.54533	177
1.54900	465
1.55267	892
1.55633	1363
1.56000	1789
1.56367	2120
1.56733	2329
1.57100	2382
1.57467	2253
1.57833	1959
1.58200	1567
1.58567	1165
1.58933	814
1.59300	538
1.59667	338
1.60033	199
1.60400	104
1.60767	41
1.61133	-3
1.61500	-32
1.61867	-52
1.62233	-68
1.62600	-82
1.62967	-93
1.63333	-101
1.63700	-102
1.64067	-100
1.64433	-97
1.64800	-96
1.65167	-101
1.65533	-109
1.65900	-116
1.66267	-120
1.66633	-122
1.67000	-120
1.67367	-117
1.67733	-115
1.68100	-115
1.68467	-117
1.68833	-118
1.69200	-115
1.69567	-110
1.69933	-104
1.70300	-98
1.70667	-97
1.71033	-101
1.71400	-109
1.71767	-116
1.72133	-124
1.72500	-128
1.72867	-129
1.73233	-129
1.73600	-129
1.73967	-126
1.74333	-121
1.74700	-118
1.75067	-121
1.75433	-125
1.75800	-128
1.76167	-133
1.76533	-137
1.76900	-139
1.77267	-135
1.77633	-124
1.78000	-114
1.78367	-103
1.78733	-96
1.79100	-96
1.79467	-98
1.79833	-103
1.80200	-110
1.80567	-115
1.80933	-117
1.81300	-118
1.81667	-120
1.82033	-124
1.82400	-128
1.82767	-129
1.83133	-129
1.83500	-127
1.83867	-125
1.84233	-126
1.84600	-127
1.84967	-125
1.85333	-119
1.85700	-111
1.86067	-105
1.86433	-102
1.86800	-106
1.87167	-113
1.87533	-119
1.87900	-122
1.88267	-125
1.88633	-126
1.89000	-124
1.89367	-120
1.89733	-118
1.90100	-117
1.90467	-115
1.90833	-114
1.91200	-111
1.91567	-106
1.91933	-104
1.92300	-105
1.92667	-109
1.93033	-113
1.93400	-111
1.93767	-107
1.94133	-104
1.94500	-103
1.94867	-101
1.95233	-95
1.95600	-52
1.95967	222
1.96333	1612
1.96700	7015
1.97067	23024
1.97433	59745
1.97800	125727
1.98167	220164
1.98533	330625
1.98900	438198
1.99267	524871
1.99633	577570
2.00000	589277
2.00367	559587
2.00733	496047
2.01100	412469
2.01467	324219
2.01833	243402
2.02200	176542
2.02567	125146
2.02933	87645
2.03300	61236
2.03667	43062
2.04033	30713
2.04400	22362
2.04767	16704
2.05133	12835
2.05500	10148
2.05867	8241
2.06233	6857
2.06600	5826
2.06967	5042
2.07333	4433
2.07700	3952
2.08067	3567
2.08433	3252
2.08800	2988
2.09167	2763
2.09533	2570
2.09900	2402
2.10267	2255
2.10633	2123
2.11000	2005
2.11367	1900
2.11733	1806
2.12100	1718
2.12467	1633
2.12833	1552
2.13200	1479
2.13567	1411
2.13933	1349
2.14300	1293
2.14667	1241
2.15033	1195
2.15400	1155
2.15767	1119
2.16133	1083
2.16500	1049
2.16867	1015
2.17233	979
2.17600	942
2.17967	907
2.18333	875
2.18700	848
2.19067	823
2.19433	799
2.19800	773
2.20167	752
2.20533	734
2.20900	717
2.21267	699
2.21633	681
2.22000	661
2.22367	642
2.22733	626
2.23100	615
2.23467	604
2.23833	593
2.24200	579
2.24567	563
2.24933	546
2.25300	528
2.25667	512
2.26033	496
2.26400	485
2.26767	478
2.27133	473
2.27500	468
2.27867	460
2.28233	454
2.28600	450
2.28967	445
2.29333	439
2.29700	435
2.30067	434
2.30433	433
2.30800	431
2.31167	425
2.31533	416
2.31900	404
2.32267	387
2.32633	369
2.33000	353
2.33367	341
2.33733	334
2.34100	329
2.34467	330
2.34833	336
2.35200	341
2.35567	344
2.35933	343
2.36300	339
2.36667	334
2.37033	326
2.37400	318
2.37767	310
2.38133	301
2.38500	290
2.38867	281
2.39233	274
2.39600	272
2.39967	271
2.40333	269
2.40700	270
2.41067	274
2.41433	276
2.41800	274
2.42167	271
2.42533	267
2.42900	265
2.43267	266
2.43633	268
2.44000	270
2.44367	270
2.44733	262
2.45100	253
2.45467	248
2.45833	247
2.46200	248
2.46567	246
2.46933	243
2.47300	241
2.47667	243
2.48033	246
2.48400	245
2.48767	239
2.49133	231
2.49500	225
2.49867	222
2.50233	221
2.50600	222
2.50967	225
2.51333	226
2.51700	226
2.52067	226
2.52433	224
2.52800	224
2.53167	228
2.53533	231
2.53900	231
2.54267	229
2.54633	223
2.55000	214
2.55367	206
2.55733	198
2.56100	194
2.56467	195
2.56833	193
2.57200	188
2.57567	181
2.57933	177
2.58300	179
2.58667	181
2.59033	180
2.59400	179
2.59767	180
2.60133	181
2.60500	183
2.60867	182
2.61233	176
2.61600	168
2.61967	163
2.62333	163
2.62700	165
2.63067	169
2.63433	170
2.63800	164
2.64167	158
2.64533	157
2.64900	161
2.65267	169
2.65633	177
2.66000	180
2.66367	175
2.66733	166
2.67100	154
2.67467	139
2.67833	124
2.68200	111
2.68567	103
2.68933	101
2.69300	102
2.69667	104
2.70033	106
2.70400	112
2.70767	122
2.71133	129
2.71500	127
2.71867	126
2.72233	132
2.72600	143
2.72967	148
2.73333	142
2.73700	132
2.74067	122
2.74433	116
2.74800	114
2.75167	115
2.75533	116
2.75900	117
2.76267	118
2.76633	119
2.77000	120
2.77367	122
2.77733	127
2.78100	132
2.78467	134
2.78833	132
2.79200	125
2.79567	121
2.79933	122
2.80300	122
2.80667	119
2.81033	116
2.81400	116
2.81767	118
2.82133	120
2.82500	123
2.82867	130
2.83233	138
2.83600	141
2.83967	138
2.84333	131
2.84700	127
2.85067	125
2.85433	124
2.85800	123
2.86167	123
2.86533	126
2.86900	129
2.87267	132
2.87633	131
2.88000	127
2.88367	123
2.88733	119
2.89100	115
2.89467	109
2.89833	106
2.90200	104
2.90567	104
2.90933	105
2.91300	107
2.91667	112
2.92033	117
2.92400	116
2.92767	114
2.93133	110
2.93500	107
2.93867	106
2.94233	106
2.94600	105
2.94967	105
2.95333	110
2.95700	117
2.96067	121
2.96433	117
2.96800	112
2.97167	108
2.97533	105
2.97900	107
2.98267	113
2.98633	122
2.99000	129
2.99367	131
2.99733	131
3.00100	130
3.00467	130
3.00833	131
3.01200	130
3.01567	130
3.01933	128
3.02300	127
3.02667	124
3.03033	119
3.03400	116
3.03767	112
3.04133	107
3.04500	104
3.04867	106
3.05233	115
3.05600	128
3.05967	132
3.06333	126
3.06700	115
3.07067	105
3.07433	98
3.07800	92
3.08167	90
3.08533	89
3.08900	88
3.09267	85
3.09633	82
3.10000	83
3.10367	84
3.10733	84
3.11100	85
3.11467	89
3.11833	92
3.12200	94
3.12567	95
3.12933	95
3.13300	95
3.13667	93
3.14033	92
3.14400	91
3.14767	91
3.15133	95
3.15500	101
3.15867	111
3.16233	120
3.16600	124
3.16967	123
3.17333	120
3.17700	115
3.18067	110
3.18433	101
3.18800	90
3.19167	76
3.19533	61
3.19900	56
3.20267	58
3.20633	66
3.21000	78
3.21367	90
3.21733	98
3.22100	102
3.22467	106
3.22833	107
3.23200	103
3.23567	99
3.23933	96
3.24300	91
3.24667	90
3.25033	93
3.25400	99
3.25767	102
3.26133	99
3.26500	93
3.26867	85
3.27233	78
3.27600	71
3.27967	67
3.28333	67
3.28700	73
3.29067	84
3.29433	94
3.29800	97
3.30167	96
3.30533	94
3.30900	91
3.31267	90
3.31633	91
3.32000	94
3.32367	94
3.32733	96
3.33100	99
3.33467	101
3.33833	101
3.34200	98
3.34567	93
3.34933	88
3.35300	82
3.35667	79
3.36033	80
3.36400	83
3.36767	84
3.37133	86
3.37500	87
3.37867	90
3.38233	95
3.38600	99
3.38967	100
3.39333	101
3.39700	102
3.40067	101
3.40433	100
3.40800	95
3.41167	90
3.41533	86
3.41900	83
3.42267	84
3.42633	91
3.43000	97
3.43367	99
3.43733	98
3.44100	91
3.44467	80
3.44833	72
3.45200	71
3.45567	75
3.45933	81
3.46300	89
3.46667	97
3.47033	99
3.47400	95
3.47767	88
3.48133	80
3.48500	73
3.48867	68
3.49233	67
3.49600	68
3.49967	68
3.50333	67
3.50700	68
3.51067	74
3.51433	81
3.51800	86
3.52167	89
3.52533	90
3.52900	89
3.53267	86
3.53633	80
3.54000	77
3.54367	76
3.54733	76
3.55100	75
3.55467	74
3.55833	72
3.56200	72
3.56567	76
3.56933	81
3.57300	84
3.57667	85
3.58033	84
3.58400	83
3.58767	78
3.59133	76
3.59500	75
3.59867	74
3.60233	76
3.60600	79
3.60967	82
3.61333	83
3.61700	84
3.62067	86
3.62433	86
3.62800	84
3.63167	85
3.63533	90
3.63900	94
3.64267	98
3.64633	97
3.65000	93
3.65367	91
3.65733	93
3.66100	93
3.66467	95
3.66833	96
3.67200	93
3.67567	88
3.67933	86
3.68300	83
3.68667	79
3.69033	77
3.69400	75
3.69767	72
3.70133	67
3.70500	65
3.70867	66
3.71233	68
3.71600	71
3.71967	74
3.72333	78
3.72700	83
3.73067	86
3.73433	87
3.73800	85
3.74167	82
3.74533	83
3.74900	84
3.75267	84
3.75633	82
3.76000	81
3.76367	81
3.76733	81
3.77100	83
3.77467	83
3.77833	84
3.78200	83
3.78567	80
3.78933	79
3.79300	77
3.79667	73
3.80033	70
3.80400	68
3.80767	64
3.81133	60
3.81500	57
3.81867	62
3.82233	72
3.82600	82
3.82967	85
3.83333	82
3.83700	77
3.84067	75
3.84433	71
3.84800	64
3.85167	60
3.85533	59
3.85900	57
3.86267	58
3.86633	62
3.87000	65
3.87367	68
3.87733	71
3.88100	73
3.88467	71
3.88833	65
3.89200	62
3.89567	61
3.89933	58
3.90300	55
3.90667	51
3.91033	46
3.91400	44
3.91767	46
3.92133	50
3.92500	54
3.92867	59
3.93233	64
3.93600	68
3.93967	71
3.94333	75
3.94700	81
3.95067	88
3.95433	91
3.95800	86
3.96167	80
3.96533	75
3.96900	74
3.97267	74
3.97633	72
3.98000	70
3.98367	67
3.98733	66
3.99100	63
3.99467	58
3.99833	52

[Chromatogram (Ch2)]
Interval(msec)	220
# of Points	1091
Start Time(min)	0.002
End Time(min)	3.998
R.Time (min)	Intensity
0.00167	-0
0.00533	-0
0.00900	-0
0.01267	-0
0.01633	-0
0.02000	-0
0.02367	-0
0.02733	0
0.03100	0
0.03467	-0
0.03833	-0
0.04200	-1
0.04567	-1
0.04933	-1
0.05300	-1
0.05667	-1
0.06033	-1
0.06400	-1
0.06767	-1
0.07133	-1
0.07500	-1
0.07867	-1
0.08233	-1
0.08600	-1
0.08967	-1
0.09333	-1
0.09700	-1
0.10067	-1
0.10433	-1
0.10800	-1
0.11167	-0
0.11533	-0
0.11900	-0
0.12267	-0
0.12633	-0
0.13000	-0
0.13367	-1
0.13733	-1
0.14100	-1
0.14467	-1
0.14833	-1
0.15200	-1
0.15567	-0
0.15933	-0
0.16300	0
0.16667	0
0.17033	1
0.17400	1
0.17767	1
0.18133	2
0.18500	2
0.18867	2
0.19233	2
0.19600	1
0.19967	1
0.20333	1
0.20700	1
0.21067	1
0.21433	1
0.21800	1
0.22167	1
0.22533	0
0.22900	0
0.23267	0
0.23633	0
0.24000	0
0.24367	0
0.24733	0
0.25100	0
0.25467	1
0.25833	1
0.26200	1
0.26567	1
0.26933	1
0.27300	1
0.27667	1
0.28033	1
0.28400	1
0.28767	1
0.29133	1
0.29500	1
0.29867	0
0.30233	0
0.30600	0
0.30967	0
0.31333	-0
0.31700	-0
0.32067	-0
0.32433	0
0.32800	0
0.33167	0
0.33533	0
0.33900	-0
0.34267	-0
0.34633	-0
0.35000	-0
0.35367	-1
0.35733	-1
0.36100	-1
0.36467	-1
0.36833	-1
0.37200	-1
0.37567	-1
0.37933	-1
0.38300	-1
0.38667	-1
0.39033	-1
0.39400	-1
0.39767	-1
0.40133	-1
0.40500	-1
0.40867	-1
0.41233	-1
0.41600	-1
0.41967	-1
0.42333	-1
0.42700	-1
0.43067	-1
0.43433	-1
0.43800	-1
0.44167	-1
0.44533	-1
0.44900	-1
0.45267	-1
0.45633	-1
0.46000	-1
0.46367	-1
0.46733	-2
0.47100	-2
0.47467	-1
0.47833	-1
0.48200	-1
0.48567	-1
0.48933	-1
0.49300	-1
0.49667	-1
0.50033	-1
0.50400	-1
0.50767	-1
0.51133	-1
0.51500	-1
0.51867	-1
0.52233	-1
0.52600	-1
0.52967	-1
0.53333	-1
0.53700	-1
0.54067	-1
0.54433	-1
0.54800	-1
0.55167	-1
0.55533	-1
0.55900	-1
0.56267	-1
0.56633	-1
0.57000	-1
0.57367	-1
0.57733	-0
0.58100	-0
0.58467	-0
0.58833	-0
0.59200	-0
0.59567	-0
0.59933	-0
0.60300	-1
0.60667	-1
0.61033	-1
0.61400	-1
0.61767	-1
0.62133	-1
0.62500	-1
0.62867	-1
0.63233	-1
0.63600	-1
0.63967	-1
0.64333	-1
0.64700	-1
0.65067	-1
0.65433	-2
0.65800	-2
0.66167	-2
0.66533	-2
0.66900	-3
0.67267	-3
0.67633	-3
0.68000	-2
0.68367	-2
0.68733	-2
0.69100	-2
0.69467	-2
0.69833	-2
0.70200	-2
0.70567	-2
0.70933	-2
0.71300	-1
0.71667	-1
0.72033	-1
0.72400	-1
0.72767	-1
0.73133	-2
0.73500	-2
0.73867	-2
0.74233	-2
0.74600	-3
0.74967	-3
0.75333	-3
0.75700	-3
0.76067	-3
0.76433	-3
0.76800	-3
0.77167	-2
0.77533	-2
0.77900	-2
0.78267	-2
0.78633	-2
0.79000	-2
0.79367	-1
0.79733	-2
0.80100	-2
0.80467	-2
0.80833	-2
0.81200	-2
0.81567	-2
0.81933	-2
0.82300	-2
0.82667	-2
0.83033	-2
0.83400	-2
0.83767	-2
0.84133	-1
0.84500	-1
0.84867	-1
0.85233	-1
0.85600	-1
0.85967	-1
0.86333	-1
0.86700	-1
0.87067	-1
0.87433	-1
0.87800	-1
0.88167	-1
0.88533	-1
0.88900	-1
0.89267	-1
0.89633	-2
0.90000	-2
0.90367	-2
0.90733	-2
0.91100	-2
0.91467	-2
0.91833	-2
0.92200	-2
0.92567	-2
0.92933	-2
0.93300	-2
0.93667	-2
0.94033	-2
0.94400	-2
0.94767	-2
0.95133	-2
0.95500	-2
0.95867	-2
0.96233	-2
0.96600	-2
0.96967	-2
0.97333	-2
0.97700	-2
0.98067	-2
0.98433	-2
0.98800	-2
0.99167	-3
0.99533	-3
0.99900	-3
1.00267	-3
1.00633	-3
1.01000	-3
1.01367	-3
1.01733	-3
1.02100	-3
1.02467	-3
1.02833	-2
1.03200	-3
1.03567	-3
1.03933	-3
1.04300	-3
1.04667	-3
1.05033	-2
1.05400	-2
1.05767	-3
1.06133	-3
1.06500	-3
1.06867	-2
1.07233	-2
1.07600	-3
1.07967	-3
1.08333	-2
1.08700	-2
1.09067	-2
1.09433	-2
1.09800	-3
1.10167	-3
1.10533	-3
1.10900	-3
1.11267	-3
1.11633	-3
1.12000	-3
1.12367	-3
1.12733	-3
1.13100	-3
1.13467	-3
1.13833	-3
1.14200	-2
1.14567	-2
1.14933	-2
1.15300	-2
1.15667	-2
1.16033	-2
1.16400	-2
1.16767	-2
1.17133	-2
1.17500	-2
1.17867	-2
1.18233	-2
1.18600	-3
1.18967	-3
1.19333	-3
1.19700	-2
1.20067	-2
1.20433	-2
1.20800	-2
1.21167	-2
1.21533	-2
1.21900	-2
1.22267	-2
1.22633	-2
1.23000	-2
1.23367	-2
1.23733	-2
1.24100	-2
1.24467	-2
1.24833	-2
1.25200	-2
1.25567	-2
1.25933	-2
1.26300	-2
1.26667	-2
1.27033	-2
1.27400	-2
1.27767	-2
1.28133	-2
1.28500	-2
1.28867	-2
1.29233	-2
1.29600	-2
1.29967	-2
1.30333	-2
1.30700	-2
1.31067	-2
1.31433	-2
1.31800	-2
1.32167	-2
1.32533	-2
1.32900	-2
1.33267	-2
1.33633	-3
1.34000	-3
1.34367	-3
1.34733	-3
1.35100	-3
1.35467	-3
1.35833	-3
1.36200	-3
1.36567	-3
1.36933	-3
1.37300	-3
1.37667	-3
1.38033	-3
1.38400	-3
1.38767	-3
1.39133	-3
1.39500	-3
1.39867	-3
1.40233	-3
1.40600	-3
1.40967	-4
1.41333	-4
1.41700	-4
1.42067	-4
1.42433	-4
1.42800	-4
1.43167	-4
1.43533	-4
1.43900	-4
1.44267	-4
1.44633	-4
1.45000	-4
1.45367	-3
1.45733	-3
1.46100	-3
1.46467	-3
1.46833	-3
1.47200	-3
1.47567	-3
1.47933	-3
1.48300	-3
1.48667	-3
1.49033	-3
1.49400	-2
1.49767	-2
1.50133	-2
1.50500	-2
1.50867	-2
1.51233	-2
1.51600	-2
1.51967	-2
1.52333	-2
1.52700	-2
1.53067	-3
1.53433	-3
1.53800	-3
1.54167	-3
1.54533	-3
1.54900	-3
1.55267	-3
1.55633	-3
1.56000	-3
1.56367	-3
1.56733	-3
1.57100	-3
1.57467	-4
1.57833	-4
1.58200	-4
1.58567	-4
1.58933	-5
1.59300	-5
1.59667	-6
1.60033	-6
1.60400	-7
1.60767	-8
1.61133	-10
1.61500	-12
1.61867	-14
1.62233	-16
1.62600	-19
1.62967	-22
1.63333	-25
1.63700	-28
1.64067	-32
1.64433	-35
1.64800	-39
1.65167	-42
1.65533	-46
1.65900	-49
1.66267	-53
1.66633	-58
1.67000	-62
1.67367	-67
1.67733	-72
1.68100	-77
1.68467	-82
1.68833	-86
1.69200	-90
1.69567	-94
1.69933	-97
1.70300	-100
1.70667	-103
1.71033	-105
1.71400	-106
1.71767	-107
1.72133	-108
1.72500	-109
1.72867	-110
1.73233	-111
1.73600	-112
1.73967	-113
1.74333	-114
1.74700	-115
1.75067	-116
1.75433	-116
1.75800	-116
1.76167	-116
1.76533	-115
1.76900	-115
1.77267	-115
1.77633	-115
1.78000	-115
1.78367	-116
1.78733	-117
1.79100	-117
1.79467	-118
1.79833	-119
1.80200	-120
1.80567	-120
1.80933	-120
1.81300	-120
1.81667	-120
1.82033	-119
1.82400	-119
1.82767	-119
1.83133	-119
1.83500	-119
1.83867	-119
1.84233	-120
1.84600	-119
1.84967	-119
1.85333	-119
1.85700	-119
1.86067	-119
1.86433	-119
1.86800	-119
1.87167	-118
1.87533	-118
1.87900	-118
1.88267	-118
1.88633	-119
1.89000	-119
1.89367	-119
1.89733	-119
1.90100	-119
1.90467	-119
1.90833	-119
1.91200	-119
1.91567	-120
1.91933	-120
1.92300	-119
1.92667	-119
1.93033	-119
1.93400	-118
1.93767	-118
1.94133	-118
1.94500	-118
1.94867	-118
1.95233	-117
1.95600	-117
1.95967	-117
1.96333	-117
1.96700	-117
1.97067	-116
1.97433	-116
1.97800	-116
1.98167	-116
1.98533	-115
1.98900	-114
1.99267	-114
1.99633	-114
2.00000	-114
2.00367	-114
2.00733	-114
2.01100	-113
2.01467	-113
2.01833	-113
2.02200	-114
2.02567	-113
2.02933	-113
2.03300	-113
2.03667	-113
2.04033	-112
2.04400	-112
2.04767	-112
2.05133	-112
2.05500	-111
2.05867	-111
2.06233	-111
2.06600	-110
2.06967	-110
2.07333	-109
2.07700	-108
2.08067	-107
2.08433	-107
2.08800	-106
2.09167	-106
2.09533	-106
2.09900	-107
2.10267	-107
2.10633	-107
2.11000	-107
2.11367	-106
2.11733	-106
2.12100	-105
2.12467	-105
2.12833	-105
2.13200	-104
2.13567	-104
2.13933	-104
2.14300	-104
2.14667	-103
2.15033	-103
2.15400	-102
2.15767	-101
2.16133	-101
2.16500	-101
2.16867	-100
2.17233	-100
2.17600	-100
2.17967	-100
2.18333	-100
2.18700	-100
2.19067	-99
2.19433	-99
2.19800	-98
2.20167	-97
2.20533	-97
2.20900	-97
2.21267	-96
2.21633	-96
2.22000	-96
2.22367	-95
2.22733	-95
2.23100	-95
2.23467	-95
2.23833	-95
2.24200	-94
2.24567	-94
2.24933	-93
2.25300	-93
2.25667	-93
2.26033	-92
2.26400	-92
2.26767	-92
2.27133	-92
2.27500	-91
2.27867	-91
2.28233	-90
2.28600	-89
2.28967	-89
2.29333	-89
2.29700	-88
2.30067	-88
2.30433	-88
2.30800	-87
2.31167	-86
2.31533	-86
2.31900	-85
2.32267	-85
2.32633	-85
2.33000	-84
2.33367	-83
2.33733	-83
2.34100	-82
2.34467	-81
2.34833	-81
2.35200	-81
2.35567	-82
2.35933	-82
2.36300	-82
2.36667	-82
2.37033	-81
2.37400	-79
2.37767	-77
2.38133	-75
2.38500	-72
2.38867	-69
2.39233	-65
2.39600	-61
2.39967	-57
2.40333	-53
2.40700	-48
2.41067	-43
2.41433	-38
2.41800	-34
2.42167	-30
2.42533	-26
2.42900	-24
2.43267	-21
2.43633	-19
2.44000	-17
2.44367	-15
2.44733	-13
2.45100	-11
2.45467	-9
2.45833	-7
2.46200	-6
2.46567	-4
2.46933	-3
2.47300	-2
2.47667	-1
2.48033	-0
2.48400	1
2.48767	2
2.49133	3
2.49500	4
2.49867	5
2.50233	6
2.50600	6
2.50967	7
2.51333	8
2.51700	9
2.52067	10
2.52433	10
2.52800	10
2.53167	11
2.53533	11
2.53900	11
2.54267	12
2.54633	13
2.55000	13
2.55367	14
2.55733	14
2.56100	14
2.56467	14
2.56833	15
2.57200	15
2.57567	15
2.57933	15
2.58300	16
2.58667	16
2.59033	16
2.59400	17
2.59767	17
2.60133	17
2.60500	17
2.60867	17
2.61233	17
2.61600	16
2.61967	16
2.62333	16
2.62700	17
2.63067	17
2.63433	17
2.63800	17
2.64167	18
2.64533	18
2.64900	18
2.65267	19
2.65633	19
2.66000	19
2.66367	19
2.66733	20
2.67100	20
2.67467	20
2.67833	21
2.68200	22
2.68567	22
2.68933	23
2.69300	23
2.69667	23
2.70033	23
2.70400	23
2.70767	23
2.71133	23
2.71500	23
2.71867	23
2.72233	23
2.72600	23
2.72967	24
2.73333	24
2.73700	24
2.74067	24
2.74433	24
2.74800	25
2.75167	25
2.75533	25
2.75900	25
2.76267	25
2.76633	26
2.77000	25
2.77367	25
2.77733	24
2.78100	24
2.78467	23
2.78833	23
2.79200	22
2.79567	22
2.79933	22
2.80300	22
2.80667	21
2.81033	21
2.81400	21
2.81767	22
2.82133	22
2.82500	22
2.82867	23
2.83233	23
2.83600	23
2.83967	24
2.84333	24
2.84700	24
2.85067	25
2.85433	24
2.85800	23
2.86167	20
2.86533	15
2.86900	7
2.87267	-3
2.87633	-17
2.88000	-35
2.88367	-57
2.88733	-82
2.89100	-111
2.89467	-145
2.89833	-181
2.90200	-221
2.90567	-264
2.90933	-309
2.91300	-356
2.91667	-404
2.92033	-454
2.92400	-504
2.92767	-555
2.93133	-605
2.93500	-655
2.93867	-705
2.94233	-754
2.94600	-803
2.94967	-853
2.95333	-907
2.95700	-967
2.96067	-1027
2.96433	-1075
2.96800	-1102
2.97167	-1103
2.97533	-1078
2.97900	-1031
2.98267	-968
2.98633	-894
2.99000	-814
2.99367	-733
2.99733	-654
3.00100	-579
3.00467	-508
3.00833	-443
3.01200	-385
3.01567	-332
3.01933	-286
3.02300	-244
3.02667	-208
3.03033	-177
3.03400	-150
3.03767	-127
3.04133	-106
3.04500	-89
3.04867	-74
3.05233	-62
3.05600	-51
3.05967	-41
3.06333	-33
3.06700	-27
3.07067	-21
3.07433	-16
3.07800	-11
3.08167	-8
3.08533	-4
3.08900	-1
3.09267	1
3.09633	3
3.10000	5
3.10367	7
3.10733	8
3.11100	9
3.11467	10
3.11833	11
3.12200	11
3.12567	12
3.12933	13
3.13300	13
3.13667	14
3.14033	15
3.14400	15
3.14767	16
3.15133	16
3.15500	16
3.15867	17
3.16233	17
3.16600	17
3.16967	18
3.17333	18
3.17700	18
3.18067	18
3.18433	18
3.18800	19
3.19167	19
3.19533	19
3.19900	19
3.20267	19
3.20633	19
3.21000	19
3.21367	19
3.21733	19
3.22100	20
3.22467	20
3.22833	20
3.23200	20
3.23567	21
3.23933	21
3.24300	21
3.24667	21
3.25033	21
3.25400	21
3.25767	21
3.26133	21
3.26500	22
3.26867	22
3.27233	22
3.27600	22
3.27967	22
3.28333	23
3.28700	23
3.29067	23
3.29433	23
3.29800	23
3.30167	23
3.30533	23
3.30900	23
3.31267	23
3.31633	24
3.32000	24
3.32367	24
3.32733	24
3.33100	24
3.33467	24
3.33833	23
3.34200	23
3.34567	23
3.34933	23
3.35300	23
3.35667	23
3.36033	23
3.36400	23
3.36767	23
3.37133	23
3.37500	23
3.37867	23
3.38233	23
3.38600	23
3.38967	23
3.39333	23
3.39700	23
3.40067	23
3.40433	23
3.40800	23
3.41167	23
3.41533	24
3.41900	24
3.42267	24
3.42633	25
3.43000	25
3.43367	25
3.43733	25
3.44100	26
3.44467	26
3.44833	26
3.45200	27
3.45567	27
3.45933	27
3.46300	28
3.46667	28
3.47033	28
3.47400	28
3.47767	28
3.48133	28
3.48500	29
3.48867	29
3.49233	29
3.49600	29
3.49967	29
3.50333	30
3.50700	30
3.51067	30
3.51433	30
3.51800	30
3.52167	30
3.52533	30
3.52900	30
3.53267	30
3.53633	29
3.54000	29
3.54367	29
3.54733	29
3.55100	29
3.55467	29
3.55833	29
3.56200	29
3.56567	29
3.56933	29
3.57300	29
3.57667	29
3.58033	29
3.58400	29
3.58767	29
3.59133	29
3.59500	29
3.59867	29
3.60233	28
3.60600	28
3.60967	28
3.61333	28
3.61700	28
3.62067	28
3.62433	28
3.62800	28
3.63167	28
3.63533	28
3.63900	28
3.64267	28
3.64633	28
3.65000	28
3.65367	28
3.65733	28
3.66100	27
3.66467	27
3.66833	27
3.67200	27
3.67567	27
3.67933	27
3.68300	27
3.68667	27
3.69033	27
3.69400	27
3.69767	27
3.70133	27
3.70500	27
3.70867	27
3.71233	27
3.71600	27
3.71967	27
3.72333	26
3.72700	26
3.73067	26
3.73433	25
3.73800	25
3.74167	25
3.74533	26
3.74900	26
3.75267	26
3.75633	26
3.76000	26
3.76367	26
3.76733	26
3.77100	26
3.77467	26
3.77833	26
3.78200	26
3.78567	26
3.78933	26
3.79300	26
3.79667	26
3.80033	26
3.80400	27
3.80767	27
3.81133	27
3.81500	27
3.81867	27
3.82233	27
3.82600	27
3.82967	27
3.83333	26
3.83700	26
3.84067	26
3.84433	26
3.84800	26
3.85167	26
3.85533	26
3.85900	26
3.86267	26
3.86633	26
3.87000	26
3.87367	26
3.87733	26
3.88100	26
3.88467	26
3.88833	26
3.89200	26
3.89567	26
3.89933	26
3.90300	26
3.90667	26
3.91033	26
3.91400	26
3.91767	26
3.92133	26
3.92500	26
3.92867	26
3.93233	26
3.93600	26
3.93967	26
3.94333	26
3.94700	26
3.95067	26
3.95433	26
3.95800	26
3.96167	25
3.96533	25
3.96900	25
3.97267	25
3.97633	25
3.98000	25
3.98367	25
3.98733	25
3.99100	25
3.99467	25
3.99833	26

[Chromatogram (Ch3)]
Interval(msec)	220
# of Points	1091
Start Time(min)	0.002
End Time(min)	3.998
R.Time (min)	Intensity
0.00167	-1
0.00533	-2
0.00900	-2
0.01267	-2
0.01633	-1
0.02000	-1
0.02367	-2
0.02733	-3
0.03100	-2
0.03467	-1
0.03833	-3
0.04200	-5
0.04567	-6
0.04933	-7
0.05300	-7
0.05667	-5
0.06033	-2
0.06400	1
0.06767	3
0.07133	3
0.07500	3
0.07867	4
0.08233	3
0.08600	3
0.08967	2
0.09333	1
0.09700	1
0.10067	2
0.10433	3
0.10800	3
0.11167	1
0.11533	2
0.11900	5
0.12267	5
0.12633	5
0.13000	5
0.13367	8
0.13733	10
0.14100	10
0.14467	10
0.14833	7
0.15200	7
0.15567	9
0.15933	9
0.16300	4
0.16667	2
0.17033	3
0.17400	6
0.17767	7
0.18133	10
0.18500	11
0.18867	11
0.19233	10
0.19600	10
0.19967	8
0.20333	5
0.20700	6
0.21067	8
0.21433	8
0.21800	9
0.22167	9
0.22533	8
0.22900	5
0.23267	4
0.23633	4
0.24000	4
0.24367	6
0.24733	7
0.25100	9
0.25467	10
0.25833	12
0.26200	13
0.26567	14
0.26933	12
0.27300	11
0.27667	12
0.28033	13
0.28400	13
0.28767	12
0.29133	10
0.29500	11
0.29867	13
0.30233	11
0.30600	8
0.30967	8
0.31333	9
0.31700	6
0.32067	6
0.32433	7
0.32800	10
0.33167	14
0.33533	14
0.33900	12
0.34267	9
0.34633	6
0.35000	6
0.35367	8
0.35733	9
0.36100	8
0.36467	7
0.36833	6
0.37200	4
0.37567	4
0.37933	3
0.38300	2
0.38667	-0
0.39033	-4
0.39400	-4
0.39767	-2
0.40133	1
0.40500	4
0.40867	4
0.41233	4
0.41600	5
0.41967	7
0.42333	5
0.42700	3
0.43067	2
0.43433	-1
0.43800	-3
0.44167	-2
0.44533	-1
0.44900	-2
0.45267	-2
0.45633	0
0.46000	2
0.46367	2
0.46733	2
0.47100	3
0.47467	5
0.47833	6
0.48200	5
0.48567	6
0.48933	6
0.49300	6
0.49667	5
0.50033	3
0.50400	2
0.50767	-0
0.51133	-2
0.51500	-6
0.51867	-7
0.52233	-7
0.52600	-5
0.52967	-5
0.53333	-3
0.53700	-3
0.54067	-6
0.54433	-5
0.54800	-3
0.55167	-1
0.55533	0
0.55900	1
0.56267	2
0.56633	3
0.57000	3
0.57367	3
0.57733	4
0.58100	5
0.58467	5
0.58833	4
0.59200	3
0.59567	6
0.59933	8
0.60300	8
0.60667	7
0.61033	5
0.61400	3
0.61767	2
0.62133	1
0.62500	-1
0.62867	-1
0.63233	1
0.63600	1
0.63967	-0
0.64333	-2
0.64700	-4
0.65067	-4
0.65433	-6
0.65800	-6
0.66167	-5
0.66533	-5
0.66900	-4
0.67267	-4
0.67633	-3
0.68000	-1
0.68367	1
0.68733	4
0.69100	7
0.69467	8
0.69833	10
0.70200	11
0.70567	10
0.70933	9
0.71300	8
0.71667	9
0.72033	9
0.72400	7
0.72767	5
0.73133	3
0.73500	4
0.73867	4
0.74233	4
0.74600	4
0.74967	5
0.75333	5
0.75700	7
0.76067	7
0.76433	6
0.76800	3
0.77167	-1
0.77533	-4
0.77900	-3
0.78267	-2
0.78633	-2
0.79000	-1
0.79367	0
0.79733	1
0.80100	2
0.80467	2
0.80833	1
0.81200	1
0.81567	1
0.81933	-0
0.82300	-2
0.82667	-4
0.83033	-4
0.83400	-3
0.83767	-1
0.84133	1
0.84500	3
0.84867	4
0.85233	4
0.85600	2
0.85967	1
0.86333	-1
0.86700	-2
0.87067	-1
0.87433	-0
0.87800	-1
0.88167	-0
0.88533	2
0.88900	4
0.89267	5
0.89633	5
0.90000	4
0.90367	3
0.90733	1
0.91100	-1
0.91467	-4
0.91833	-4
0.92200	-3
0.92567	-3
0.92933	-3
0.93300	-3
0.93667	-1
0.94033	-1
0.94400	-2
0.94767	-4
0.95133	-5
0.95500	-5
0.95867	-5
0.96233	-5
0.96600	-3
0.96967	-3
0.97333	-3
0.97700	-1
0.98067	-3
0.98433	-5
0.98800	-7
0.99167	-6
0.99533	-5
0.99900	-4
1.00267	-3
1.00633	-1
1.01000	-2
1.01367	-1
1.01733	1
1.02100	-1
1.02467	-1
1.02833	-2
1.03200	-1
1.03567	-2
1.03933	-3
1.04300	-2
1.04667	-3
1.05033	-4
1.05400	-4
1.05767	-4
1.06133	-6
1.06500	-8
1.06867	-8
1.07233	-8
1.07600	-9
1.07967	-10
1.08333	-10
1.08700	-10
1.09067	-11
1.09433	-11
1.09800	-11
1.10167	-12
1.10533	-13
1.10900	-14
1.11267	-12
1.11633	-10
1.12000	-10
1.12367	-9
1.12733	-10
1.13100	-12
1.13467	-13
1.13833	-12
1.14200	-9
1.14567	-10
1.14933	-11
1.15300	-13
1.15667	-14
1.16033	-13
1.16400	-13
1.16767	-13
1.17133	-15
1.17500	-16
1.17867	-14
1.18233	-13
1.18600	-14
1.18967	-13
1.19333	-11
1.19700	-10
1.20067	-9
1.20433	-9
1.20800	-7
1.21167	-5
1.21533	-7
1.21900	-10
1.22267	-10
1.22633	-11
1.23000	-12
1.23367	-12
1.23733	-12
1.24100	-14
1.24467	-16
1.24833	-16
1.25200	-15
1.25567	-14
1.25933	-14
1.26300	-17
1.26667	-19
1.27033	-20
1.27400	-20
1.27767	-21
1.28133	-20
1.28500	-20
1.28867	-20
1.29233	-21
1.29600	-21
1.29967	-20
1.30333	-18
1.30700	-19
1.31067	-21
1.31433	-23
1.31800	-24
1.32167	-23
1.32533	-22
1.32900	-20
1.33267	-18
1.33633	-18
1.34000	-18
1.34367	-20
1.34733	-21
1.35100	-18
1.35467	-16
1.35833	-16
1.36200	-17
1.36567	-18
1.36933	-17
1.37300	-15
1.37667	-14
1.38033	-14
1.38400	-14
1.38767	-16
1.39133	-19
1.39500	-19
1.39867	-18
1.40233	-17
1.40600	-16
1.40967	-15
1.41333	-14
1.41700	-15
1.42067	-19
1.42433	-20
1.42800	-22
1.43167	-22
1.43533	-21
1.43900	-23
1.44267	-24
1.44633	-26
1.45000	-24
1.45367	-22
1.45733	-21
1.46100	-21
1.46467	-20
1.46833	-17
1.47200	-16
1.47567	-16
1.47933	-14
1.48300	-15
1.48667	-16
1.49033	-17
1.49400	-18
1.49767	-18
1.50133	-18
1.50500	-16
1.50867	-16
1.51233	-16
1.51600	-15
1.51967	-16
1.52333	-20
1.52700	-23
1.53067	-24
1.53433	-23
1.53800	-21
1.54167	-22
1.54533	-25
1.54900	-26
1.55267	-24
1.55633	-21
1.56000	-20
1.56367	-19
1.56733	-20
1.57100	-21
1.57467	-21
1.57833	-22
1.58200	-20
1.58567	-22
1.58933	-23
1.59300	-24
1.59667	-25
1.60033	-24
1.60400	-24
1.60767	-25
1.61133	-25
1.61500	-23
1.61867	-24
1.62233	-26
1.62600	-26
1.62967	-23
1.63333	-19
1.63700	-18
1.64067	-18
1.64433	-17
1.64800	-16
1.65167	-16
1.65533	-17
1.65900	-17
1.66267	-17
1.66633	-17
1.67000	-16
1.67367	-14
1.67733	-10
1.68100	-8
1.68467	-9
1.68833	-9
1.69200	-10
1.69567	-12
1.69933	-11
1.70300	-9
1.70667	-8
1.71033	-7
1.71400	-8
1.71767	-9
1.72133	-9
1.72500	-7
1.72867	-8
1.73233	-8
1.73600	-7
1.73967	-4
1.74333	-3
1.74700	-5
1.75067	-3
1.75433	-3
1.75800	-2
1.76167	-0
1.76533	1
1.76900	0
1.77267	0
1.77633	1
1.78000	1
1.78367	1
1.78733	2
1.79100	3
1.79467	2
1.79833	3
1.80200	5
1.80567	9
1.80933	10
1.81300	8
1.81667	8
1.82033	6
1.82400	6
1.82767	7
1.83133	7
1.83500	5
1.83867	4
1.84233	3
1.84600	3
1.84967	4
1.85333	5
1.85700	4
1.86067	4
1.86433	7
1.86800	7
1.87167	7
1.87533	10
1.87900	14
1.88267	17
1.88633	17
1.89000	18
1.89367	17
1.89733	15
1.90100	12
1.90467	13
1.90833	14
1.91200	12
1.91567	11
1.91933	9
1.92300	9
1.92667	9
1.93033	9
1.93400	10
1.93767	12
1.94133	14
1.94500	18
1.94867	23
1.95233	24
1.95600	25
1.95967	24
1.96333	23
1.96700	23
1.97067	22
1.97433	21
1.97800	23
1.98167	23
1.98533	24
1.98900	27
1.99267	30
1.99633	31
2.00000	33
2.00367	36
2.00733	37
2.01100	35
2.01467	34
2.01833	35
2.02200	32
2.02567	30
2.02933	31
2.03300	32
2.03667	32
2.04033	31
2.04400	30
2.04767	31
2.05133	32
2.05500	32
2.05867	32
2.06233	34
2.06600	35
2.06967	36
2.07333	37
2.07700	37
2.08067	38
2.08433	37
2.08800	34
2.09167	33
2.09533	32
2.09900	33
2.10267	34
2.10633	34
2.11000	36
2.11367	38
2.11733	38
2.12100	38
2.12467	39
2.12833	45
2.13200	51
2.13567	52
2.13933	51
2.14300	50
2.14667	50
2.15033	49
2.15400	49
2.15767	49
2.16133	50
2.16500	51
2.16867	50
2.17233	50
2.17600	50
2.17967	49
2.18333	49
2.18700	47
2.19067	48
2.19433	50
2.19800	50
2.20167	52
2.20533	55
2.20900	58
2.21267	60
2.21633	61
2.22000	62
2.22367	63
2.22733	66
2.23100	67
2.23467	65
2.23833	63
2.24200	65
2.24567	67
2.24933	69
2.25300	70
2.25667	74
2.26033	76
2.26400	80
2.26767	83
2.27133	82
2.27500	82
2.27867	82
2.28233	83
2.28600	87
2.28967	89
2.29333	89
2.29700	90
2.30067	92
2.30433	93
2.30800	94
2.31167	93
2.31533	93
2.31900	96
2.32267	99
2.32633	97
2.33000	97
2.33367	98
2.33733	102
2.34100	103
2.34467	104
2.34833	107
2.35200	108
2.35567	106
2.35933	104
2.36300	103
2.36667	105
2.37033	107
2.37400	109
2.37767	110
2.38133	112
2.38500	111
2.38867	109
2.39233	111
2.39600	113
2.39967	117
2.40333	119
2.40700	119
2.41067	122
2.41433	126
2.41800	128
2.42167	129
2.42533	129
2.42900	129
2.43267	129
2.43633	131
2.44000	135
2.44367	154
2.44733	201
2.45100	251
2.45467	287
2.45833	306
2.46200	321
2.46567	334
2.46933	341
2.47300	341
2.47667	341
2.48033	344
2.48400	352
2.48767	366
2.49133	385
2.49500	408
2.49867	431
2.50233	449
2.50600	460
2.50967	464
2.51333	462
2.51700	459
2.52067	455
2.52433	452
2.52800	453
2.53167	457
2.53533	465
2.53900	475
2.54267	485
2.54633	493
2.55000	498
2.55367	505
2.55733	514
2.56100	523
2.56467	536
2.56833	549
2.57200	559
2.57567	563
2.57933	561
2.58300	557
2.58667	550
2.59033	542
2.59400	532
2.59767	521
2.60133	510
2.60500	498
2.60867	484
2.61233	467
2.61600	442
2.61967	413
2.62333	384
2.62700	354
2.63067	324
2.63433	294
2.63800	265
2.64167	243
2.64533	226
2.64900	212
2.65267	206
2.65633	204
2.66000	205
2.66367	208
2.66733	214
2.67100	222
2.67467	229
2.67833	239
2.68200	248
2.68567	257
2.68933	269
2.69300	281
2.69667	292
2.70033	302
2.70400	311
2.70767	318
2.71133	326
2.71500	333
2.71867	341
2.72233	350
2.72600	359
2.72967	368
2.73333	376
2.73700	381
2.74067	383
2.74433	386
2.74800	390
2.75167	393
2.75533	395
2.75900	397
2.76267	400
2.76633	401
2.77000	399
2.77367	399
2.77733	400
2.78100	398
2.78467	395
2.78833	393
2.79200	390
2.79567	384
2.79933	380
2.80300	378
2.80667	376
2.81033	376
2.81400	377
2.81767	376
2.82133	376
2.82500	378
2.82867	383
2.83233	395
2.83600	425
2.83967	485
2.84333	598
2.84700	788
2.85067	1075
2.85433	1477
2.85800	1986
2.86167	2579
2.86533	3223
2.86900	3869
2.87267	4461
2.87633	4955
2.88000	5310
2.88367	5512
2.88733	5557
2.89100	5462
2.89467	5254
2.89833	4965
2.90200	4623
2.90567	4251
2.90933	3870
2.91300	3498
2.91667	3145
2.92033	2816
2.92400	2516
2.92767	2246
2.93133	2004
2.93500	1789
2.93867	1600
2.94233	1436
2.94600	1293
2.94967	1168
2.95333	1060
2.95700	967
2.96067	888
2.96433	815
2.96800	754
2.97167	702
2.97533	656
2.97900	619
2.98267	588
2.98633	561
2.99000	536
2.99367	512
2.99733	493
3.00100	480
3.00467	467
3.00833	453
3.01200	443
3.01567	437
3.01933	431
3.02300	423
3.02667	416
3.03033	413
3.03400	409
3.03767	406
3.04133	405
3.04500	404
3.04867	405
3.05233	404
3.05600	402
3.05967	400
3.06333	398
3.06700	397
3.07067	394
3.07433	393
3.07800	392
3.08167	392
3.08533	394
3.08900	393
3.09267	395
3.09633	397
3.10000	395
3.10367	392
3.10733	391
3.11100	391
3.11467	392
3.11833	393
3.12200	391
3.12567	388
3.12933	385
3.13300	384
3.13667	384
3.14033	385
3.14400	384
3.14767	383
3.15133	382
3.15500	379
3.15867	377
3.16233	377
3.16600	378
3.16967	380
3.17333	382
3.17700	382
3.18067	381
3.18433	381
3.18800	381
3.19167	379
3.19533	376
3.19900	373
3.20267	369
3.20633	365
3.21000	364
3.21367	364
3.21733	362
3.22100	362
3.22467	359
3.22833	358
3.23200	360
3.23567	362
3.23933	363
3.24300	361
3.24667	357
3.25033	354
3.25400	352
3.25767	351
3.26133	351
3.26500	348
3.26867	345
3.27233	341
3.27600	337
3.27967	335
3.28333	334
3.28700	332
3.29067	329
3.29433	327
3.29800	325
3.30167	325
3.30533	323
3.30900	321
3.31267	318
3.31633	314
3.32000	310
3.32367	308
3.32733	309
3.33100	309
3.33467	305
3.33833	303
3.34200	301
3.34567	297
3.34933	293
3.35300	290
3.35667	289
3.36033	286
3.36400	284
3.36767	280
3.37133	276
3.37500	272
3.37867	272
3.38233	270
3.38600	267
3.38967	266
3.39333	265
3.39700	263
3.40067	264
3.40433	263
3.40800	262
3.41167	260
3.41533	260
3.41900	258
3.42267	253
3.42633	248
3.43000	244
3.43367	242
3.43733	239
3.44100	238
3.44467	236
3.44833	233
3.45200	232
3.45567	230
3.45933	227
3.46300	225
3.46667	224
3.47033	224
3.47400	225
3.47767	225
3.48133	225
3.48500	226
3.48867	223
3.49233	219
3.49600	215
3.49967	211
3.50333	209
3.50700	207
3.51067	207
3.51433	207
3.51800	206
3.52167	205
3.52533	205
3.52900	203
3.53267	200
3.53633	201
3.54000	201
3.54367	199
3.54733	195
3.55100	195
3.55467	194
3.55833	191
3.56200	188
3.56567	187
3.56933	188
3.57300	187
3.57667	184
3.58033	182
3.58400	180
3.58767	180
3.59133	176
3.59500	172
3.59867	168
3.60233	167
3.60600	165
3.60967	165
3.61333	163
3.61700	160
3.62067	158
3.62433	159
3.62800	159
3.63167	158
3.63533	157
3.63900	155
3.64267	156
3.64633	157
3.65000	154
3.65367	152
3.65733	150
3.66100	150
3.66467	148
3.66833	145
3.67200	145
3.67567	143
3.67933	140
3.68300	137
3.68667	137
3.69033	138
3.69400	137
3.69767	136
3.70133	137
3.70500	138
3.70867	136
3.71233	133
3.71600	131
3.71967	131
3.72333	130
3.72700	129
3.73067	128
3.73433	129
3.73800	129
3.74167	129
3.74533	129
3.74900	129
3.75267	129
3.75633	129
3.76000	126
3.76367	123
3.76733	122
3.77100	123
3.77467	125
3.77833	125
3.78200	125
3.78567	127
3.78933	126
3.79300	126
3.79667	124
3.80033	120
3.80400	120
3.80767	119
3.81133	119
3.81500	118
3.81867	115
3.82233	114
3.82600	113
3.82967	113
3.83333	115
3.83700	116
3.84067	117
3.84433	117
3.84800	117
3.85167	116
3.85533	116
3.85900	116
3.86267	116
3.86633	115
3.87000	114
3.87367	115
3.87733	115
3.88100	114
3.88467	112
3.88833	112
3.89200	113
3.89567	112
3.89933	112
3.90300	113
3.90667	114
3.91033	114
3.91400	115
3.91767	118
3.92133	119
3.92500	119
3.92867	119
3.93233	117
3.93600	115
3.93967	114
3.94333	113
3.94700	113
3.95067	112
3.95433	112
3.95800	110
3.96167	109
3.96533	111
3.96900	112
3.97267	111
3.97633	108
3.98000	107
3.98367	106
3.98733	107
3.99100	108
3.99467	106
3.99833	103

[Status Trace (Column Oven Temperature)]
Interval(msec)	1000
# of Points	239
Start Time(min)	0.013
End Time(min)	3.980
Intensity Units	
Intensity Multiplier	1
R.Time (min)	Intensity
0.01290	35.01
0.02957	35.00
0.04623	35.00
0.06290	35.00
0.07957	35.00
0.09623	35.00
0.11290	35.00
0.12957	35.01
0.14623	35.02
0.16290	35.02
0.17957	35.01
0.19623	35.01
0.21290	35.01
0.22957	35.00
0.24623	34.99
0.26290	34.99
0.27957	34.99
0.29623	34.99
0.31290	34.99
0.32957	34.99
0.34623	34.99
0.36290	34.99
0.37957	34.99
0.39623	34.98
0.41290	34.98
0.42957	34.98
0.44623	34.98
0.46290	34.99
0.47957	34.99
0.49623	35.00
0.51290	35.00
0.52957	35.00
0.54623	35.00
0.56290	34.99
0.57957	34.99
0.59623	34.99
0.61290	34.98
0.62957	34.98
0.64623	34.99
0.66290	34.99
0.67957	34.99
0.69623	35.00
0.71290	35.00
0.72957	35.00
0.74623	35.00
0.76290	35.00
0.77957	35.00
0.79623	35.00
0.81290	35.00
0.82957	35.01
0.84623	35.00
0.86290	35.00
0.87957	35.00
0.89623	35.00
0.91290	35.00
0.92957	35.00
0.94623	34.98
0.96290	34.98
0.97957	34.99
0.99623	34.99
1.01290	34.99
1.02957	34.99
1.04623	34.99
1.06290	34.99
1.07957	34.99
1.09623	34.99
1.11290	34.99
1.12957	34.99
1.14623	35.00
1.16290	35.00
1.17957	35.00
1.19623	35.00
1.21290	35.00
1.22957	34.99
1.24623	35.00
1.26290	35.00
1.27957	34.99
1.29623	34.99
1.31290	34.99
1.32957	34.99
1.34623	35.00
1.36290	34.99
1.37957	34.99
1.39623	34.99
1.41290	34.99
1.42957	35.00
1.44623	35.01
1.46290	35.01
1.47957	35.01
1.49623	35.00
1.51290	35.00
1.52957	34.99
1.54623	34.99
1.56290	35.00
1.57957	35.01
1.59623	35.03
1.61290	35.10
1.62957	35.23
1.64623	35.43
1.66290	35.71
1.67957	36.06
1.69623	36.43
1.71290	36.77
1.72957	37.11
1.74623	37.45
1.76290	37.77
1.77957	38.09
1.79623	38.44
1.81290	38.76
1.82957	39.10
1.84623	39.42
1.86290	39.74
1.87957	40.07
1.89623	40.40
1.91290	40.73
1.92957	41.05
1.94623	41.39
1.96290	41.71
1.97957	42.03
1.99623	42.36
2.01290	42.69
2.02957	43.02
2.04623	43.34
2.06290	43.67
2.07957	43.98
2.09623	44.33
2.11290	44.65
2.12957	44.98
2.14623	45.30
2.16290	45.64
2.17957	45.97
2.19623	46.30
2.21290	46.62
2.22957	46.95
2.24623	47.26
2.26290	47.60
2.27957	47.92
2.29623	48.26
2.31290	48.59
2.32957	48.91
2.34623	49.23
2.36290	49.54
2.37957	49.71
2.39623	49.75
2.41290	49.73
2.42957	49.75
2.44623	49.74
2.46290	49.75
2.47957	49.75
2.49623	49.76
2.51290	49.76
2.52957	49.78
2.54623	49.78
2.56290	49.80
2.57957	49.81
2.59623	49.81
2.61290	49.82
2.62957	49.84
2.64623	49.85
2.66290	49.85
2.67957	49.84
2.69623	49.85
2.71290	49.86
2.72957	49.86
2.74623	49.85
2.76290	49.84
2.77957	49.87
2.79623	49.91
2.81290	49.92
2.82957	49.93
2.84623	49.92
2.86290	49.92
2.87957	49.93
2.89623	49.94
2.91290	49.94
2.92957	49.94
2.94623	49.94
2.96290	49.95
2.97957	49.96
2.99623	49.96
3.01290	49.97
3.02957	49.96
3.04623	49.97
3.06290	49.98
3.07957	49.99
3.09623	49.99
3.11290	49.99
3.12957	50.00
3.14623	50.01
3.16290	50.01
3.17957	50.02
3.19623	50.03
3.21290	50.03
3.22957	50.04
3.24623	50.05
3.26290	50.05
3.27957	50.06
3.29623	50.05
3.31290	50.06
3.32957	50.07
3.34623	50.08
3.36290	50.09
3.37957	50.10
3.39623	50.11
3.41290	50.12
3.42957	50.12
3.44623	50.11
3.46290	50.09
3.47957	50.08
3.49623	50.06
3.51290	50.06
3.52957	50.05
3.54623	50.04
3.56290	50.03
3.57957	50.03
3.59623	50.03
3.61290	50.03
3.62957	50.03
3.64623	50.03
3.66290	50.02
3.67957	50.02
3.69623	50.02
3.71290	50.02
3.72957	50.03
3.74623	50.02
3.76290	50.03
3.77957	50.03
3.79623	50.03
3.81290	50.03
3.82957	50.04
3.84623	50.05
3.86290	50.05
3.87957	50.05
3.89623	50.05
3.91290	50.04
3.92957	50.04
3.94623	50.05
3.96290	50.07
3.97957	50.07

[Status Trace (Injection Unit Temperature)]
Interval(msec)	1000
# of Points	239
Start Time(min)	0.013
End Time(min)	3.980
Intensity Units	
Intensity Multiplier	1
R.Time (min)	Intensity
0.01290	99.99
0.02957	99.99
0.04623	99.99
0.06290	99.99
0.07957	99.99
0.09623	99.99
0.11290	99.99
0.12957	99.99
0.14623	99.99
0.16290	99.99
0.17957	99.99
0.19623	99.99
0.21290	99.99
0.22957	99.99
0.24623	99.99
0.26290	99.99
0.27957	99.99
0.29623	99.99
0.31290	99.99
0.32957	99.99
0.34623	99.99
0.36290	99.99
0.37957	99.99
0.39623	99.99
0.41290	99.98
0.42957	99.99
0.44623	99.99
0.46290	99.99
0.47957	99.99
0.49623	99.99
0.51290	99.99
0.52957	99.99
0.54623	99.99
0.56290	99.99
0.57957	99.98
0.59623	99.99
0.61290	99.99
0.62957	99.99
0.64623	99.98
0.66290	99.98
0.67957	99.98
0.69623	99.99
0.71290	99.98
0.72957	99.99
0.74623	99.98
0.76290	99.98
0.77957	99.98
0.79623	99.99
0.81290	99.99
0.82957	99.99
0.84623	99.98
0.86290	99.98
0.87957	99.99
0.89623	99.99
0.91290	99.99
0.92957	99.99
0.94623	99.99
0.96290	99.99
0.97957	99.99
0.99623	99.99
1.01290	99.99
1.02957	99.99
1.04623	99.99
1.06290	99.99
1.07957	99.99
1.09623	99.99
1.11290	99.99
1.12957	99.99
1.14623	99.99
1.16290	100.00
1.17957	100.00
1.19623	99.99
1.21290	99.99
1.22957	100.00
1.24623	99.99
1.26290	100.00
1.27957	99.99
1.29623	99.99
1.31290	99.99
1.32957	99.99
1.34623	99.99
1.36290	99.99
1.37957	99.99
1.39623	99.99
1.41290	99.99
1.42957	99.99
1.44623	99.99
1.46290	99.99
1.47957	99.99
1.49623	99.99
1.51290	99.99
1.52957	99.99
1.54623	99.99
1.56290	99.99
1.57957	99.99
1.59623	99.99
1.61290	99.99
1.62957	99.99
1.64623	99.99
1.66290	99.99
1.67957	99.99
1.69623	99.98
1.71290	99.99
1.72957	99.99
1.74623	99.98
1.76290	99.99
1.77957	99.98
1.79623	99.98
1.81290	99.98
1.82957	99.98
1.84623	99.98
1.86290	99.98
1.87957	99.98
1.89623	99.98
1.91290	99.98
1.92957	99.99
1.94623	99.98
1.96290	99.98
1.97957	99.98
1.99623	99.98
2.01290	99.98
2.02957	99.98
2.04623	99.98
2.06290	99.99
2.07957	99.98
2.09623	99.99
2.11290	99.98
2.12957	99.98
2.14623	99.98
2.16290	99.98
2.17957	99.98
2.19623	99.98
2.21290	99.98
2.22957	99.98
2.24623	99.98
2.26290	99.98
2.27957	99.98
2.29623	99.98
2.31290	99.98
2.32957	99.98
2.34623	99.98
2.36290	99.98
2.37957	99.98
2.39623	99.98
2.41290	99.98
2.42957	99.98
2.44623	99.98
2.46290	99.98
2.47957	99.97
2.49623	99.98
2.51290	99.97
2.52957	99.98
2.54623	99.98
2.56290	99.98
2.57957	99.98
2.59623	99.98
2.61290	99.98
2.62957	99.98
2.64623	99.98
2.66290	99.99
2.67957	99.99
2.69623	99.99
2.71290	99.99
2.72957	99.99
2.74623	99.99
2.76290	99.99
2.77957	99.99
2.79623	100.00
2.81290	100.00
2.82957	100.00
2.84623	100.00
2.86290	100.00
2.87957	100.01
2.89623	100.00
2.91290	100.01
2.92957	100.01
2.94623	100.01
2.96290	100.01
2.97957	100.02
2.99623	100.02
3.01290	100.02
3.02957	100.02
3.04623	100.02
3.06290	100.02
3.07957	100.02
3.09623	100.03
3.11290	100.03
3.12957	100.03
3.14623	100.02
3.16290	100.03
3.17957	100.03
3.19623	100.03
3.21290	100.03
3.22957	100.03
3.24623	100.03
3.26290	100.04
3.27957	100.03
3.29623	100.04
3.31290	100.04
3.32957	100.03
3.34623	100.04
3.36290	100.04
3.37957	100.04
3.39623	100.04
3.41290	100.05
3.42957	100.04
3.44623	100.04
3.46290	100.04
3.47957	100.05
3.49623	100.04
3.51290	100.05
3.52957	100.05
3.54623	100.05
3.56290	100.05
3.57957	100.05
3.59623	100.05
3.61290	100.05
3.62957	100.05
3.64623	100.05
3.66290	100.05
3.67957	100.05
3.69623	100.05
3.71290	100.05
3.72957	100.05
3.74623	100.05
3.76290	100.05
3.77957	100.05
3.79623	100.05
3.81290	100.06
3.82957	100.05
3.84623	100.05
3.86290	100.05
3.87957	100.06
3.89623	100.06
3.91290	100.05
3.92957	100.05
3.94623	100.05
3.96290	100.06
3.97957	100.06

[Status Trace (Carrier Gas Pressure)]
Interval(msec)	1000
# of Points	239
Start Time(min)	0.013
End Time(min)	3.980
Intensity Units	
Intensity Multiplier	1
R.Time (min)	Intensity
0.01290	57.98
0.02957	54.98
0.04623	57.75
0.06290	59.67
0.07957	58.95
0.09623	57.99
0.11290	57.99
0.12957	58.01
0.14623	58.01
0.16290	58.00
0.17957	58.00
0.19623	58.00
0.21290	58.00
0.22957	58.00
0.24623	58.00
0.26290	58.00
0.27957	58.00
0.29623	58.00
0.31290	58.00
0.32957	58.00
0.34623	58.00
0.36290	58.00
0.37957	58.00
0.39623	58.00
0.41290	58.00
0.42957	58.00
0.44623	58.00
0.46290	58.00
0.47957	58.00
0.49623	58.00
0.51290	58.00
0.52957	58.00
0.54623	58.00
0.56290	58.00
0.57957	58.00
0.59623	58.00
0.61290	58.00
0.62957	58.00
0.64623	58.00
0.66290	58.00
0.67957	58.00
0.69623	58.00
0.71290	58.00
0.72957	58.00
0.74623	58.00
0.76290	58.00
0.77957	58.00
0.79623	58.00
0.81290	58.00
0.82957	58.00
0.84623	58.00
0.86290	58.00
0.87957	58.00
0.89623	58.00
0.91290	58.00
0.92957	58.00
0.94623	58.00
0.96290	58.00
0.97957	58.00
0.99623	58.00
1.01290	58.00
1.02957	58.00
1.04623	58.00
1.06290	58.00
1.07957	58.00
1.09623	58.00
1.11290	58.00
1.12957	58.00
1.14623	58.00
1.16290	58.00
1.17957	58.00
1.19623	58.00
1.21290	58.00
1.22957	58.00
1.24623	58.00
1.26290	58.00
1.27957	58.00
1.29623	58.00
1.31290	58.00
1.32957	58.00
1.34623	58.00
1.36290	58.00
1.37957	58.00
1.39623	58.00
1.41290	58.00
1.42957	58.00
1.44623	58.00
1.46290	58.00
1.47957	58.00
1.49623	58.00
1.51290	58.00
1.52957	58.00
1.54623	58.00
1.56290	58.00
1.57957	58.00
1.59623	58.00
1.61290	58.00
1.62957	58.01
1.64623	58.00
1.66290	58.00
1.67957	58.01
1.69623	58.00
1.71290	58.00
1.72957	58.00
1.74623	58.00
1.76290	58.00
1.77957	58.00
1.79623	58.00
1.81290	58.00
1.82957	58.00
1.84623	58.00
1.86290	58.00
1.87957	58.00
1.89623	58.00
1.91290	58.00
1.92957	58.00
1.94623	58.00
1.96290	58.00
1.97957	58.00
1.99623	58.00
2.01290	58.00
2.02957	58.00
2.04623	58.00
2.06290	58.00
2.07957	58.00
2.09623	58.00
2.11290	58.00
2.12957	58.00
2.14623	58.00
2.16290	58.00
2.17957	58.00
2.19623	58.00
2.21290	58.00
2.22957	58.00
2.24623	58.00
2.26290	58.00
2.27957	58.00
2.29623	58.00
2.31290	58.00
2.32957	58.00
2.34623	58.00
2.36290	58.00
2.37957	57.99
2.39623	57.99
2.41290	57.99
2.42957	58.00
2.44623	58.00
2.46290	58.00
2.47957	58.00
2.49623	58.00
2.51290	57.99
2.52957	57.99
2.54623	58.00
2.56290	58.00
2.57957	58.00
2.59623	58.00
2.61290	58.00
2.62957	58.00
2.64623	58.00
2.66290	58.00
2.67957	58.00
2.69623	58.00
2.71290	58.00
2.72957	58.00
2.74623	58.00
2.76290	58.00
2.77957	58.00
2.79623	58.00
2.81290	58.00
2.82957	58.00
2.84623	58.00
2.86290	58.00
2.87957	58.00
2.89623	58.00
2.91290	58.00
2.92957	58.00
2.94623	58.00
2.96290	58.00
2.97957	58.00
2.99623	58.00
3.01290	58.00
3.02957	58.00
3.04623	58.00
3.06290	58.00
3.07957	58.00
3.09623	58.00
3.11290	58.00
3.12957	58.00
3.14623	58.00
3.16290	58.00
3.17957	58.00
3.19623	58.00
3.21290	58.00
3.22957	58.00
3.24623	58.00
3.26290	58.00
3.27957	58.00
3.29623	58.00
3.31290	58.00
3.32957	58.00
3.34623	58.00
3.36290	58.00
3.37957	58.00
3.39623	58.00
3.41290	58.00
3.42957	58.00
3.44623	58.00
3.46290	58.00
3.47957	58.00
3.49623	58.00
3.51290	58.00
3.52957	58.00
3.54623	58.00
3.56290	58.00
3.57957	58.00
3.59623	58.00
3.61290	58.00
3.62957	58.00
3.64623	58.00
3.66290	58.00
3.67957	58.00
3.69623	58.00
3.71290	58.00
3.72957	58.00
3.74623	58.00
3.76290	58.00
3.77957	58.00
3.79623	58.00
3.81290	58.00
3.82957	58.00
3.84623	58.00
3.86290	58.00
3.87957	58.00
3.89623	58.00
3.91290	58.00
3.92957	58.00
3.94623	58.00
3.96290	58.00
3.97957	58.00

[Status Trace (Carrier Gas Flow)]
Interval(msec)	1000
# of Points	239
Start Time(min)	0.013
End Time(min)	3.980
Intensity Units	
Intensity Multiplier	1
R.Time (min)	Intensity
0.01290	34.56
0.02957	34.54
0.04623	34.55
0.06290	34.54
0.07957	34.50
0.09623	34.52
0.11290	34.52
0.12957	34.52
0.14623	34.52
0.16290	34.52
0.17957	34.52
0.19623	34.52
0.21290	34.52
0.22957	34.52
0.24623	34.52
0.26290	34.52
0.27957	34.52
0.29623	34.52
0.31290	34.52
0.32957	34.52
0.34623	34.52
0.36290	34.52
0.37957	34.52
0.39623	34.52
0.41290	34.52
0.42957	34.52
0.44623	34.52
0.46290	34.52
0.47957	34.52
0.49623	34.52
0.51290	34.52
0.52957	34.52
0.54623	34.52
0.56290	34.52
0.57957	34.52
0.59623	34.52
0.61290	34.52
0.62957	34.52
0.64623	34.52
0.66290	34.52
0.67957	34.52
0.69623	34.52
0.71290	34.52
0.72957	34.52
0.74623	34.52
0.76290	34.52
0.77957	34.52
0.79623	34.52
0.81290	34.52
0.82957	34.52
0.84623	34.52
0.86290	34.52
0.87957	34.52
0.89623	34.52
0.91290	34.52
0.92957	34.52
0.94623	34.52
0.96290	34.52
0.97957	34.52
0.99623	34.52
1.01290	34.52
1.02957	34.52
1.04623	34.52
1.06290	34.52
1.07957	34.52
1.09623	34.52
1.11290	34.52
1.12957	34.52
1.14623	34.52
1.16290	34.52
1.17957	34.52
1.19623	34.52
1.21290	34.52
1.22957	34.52
1.24623	34.52
1.26290	34.52
1.27957	34.52
1.29623	34.52
1.31290	34.52
1.32957	34.52
1.34623	34.52
1.36290	34.52
1.37957	34.52
1.39623	34.52
1.41290	34.52
1.42957	34.52
1.44623	34.52
1.46290	34.52
1.47957	34.52
1.49623	34.52
1.51290	34.52
1.52957	34.52
1.54623	34.52
1.56290	34.52
1.57957	34.52
1.59623	34.52
1.61290	34.52
1.62957	34.52
1.64623	34.52
1.66290	34.52
1.67957	34.52
1.69623	34.52
1.71290	34.52
1.72957	34.52
1.74623	34.52
1.76290	34.52
1.77957	34.52
1.79623	34.52
1.81290	34.52
1.82957	34.52
1.84623	34.52
1.86290	34.52
1.87957	34.52
1.89623	34.52
1.91290	34.52
1.92957	34.52
1.94623	34.52
1.96290	34.52
1.97957	34.52
1.99623	34.52
2.01290	34.52
2.02957	34.52
2.04623	34.52
2.06290	34.52
2.07957	34.52
2.09623	34.52
2.11290	34.52
2.12957	34.52
2.14623	34.52
2.16290	34.52
2.17957	34.52
2.19623	34.52
2.21290	34.52
2.22957	34.52
2.24623	34.52
2.26290	34.52
2.27957	34.52
2.29623	34.52
2.31290	34.52
2.32957	34.52
2.34623	34.52
2.36290	34.52
2.37957	34.52
2.39623	34.52
2.41290	34.51
2.42957	34.53
2.44623	34.51
2.46290	34.51
2.47957	34.52
2.49623	34.52
2.51290	34.49
2.52957	34.52
2.54623	34.52
2.56290	34.52
2.57957	34.52
2.59623	34.52
2.61290	34.52
2.62957	34.52
2.64623	34.52
2.66290	34.52
2.67957	34.52
2.69623	34.52
2.71290	34.52
2.72957	34.52
2.74623	34.52
2.76290	34.52
2.77957	34.52
2.79623	34.52
2.81290	34.52
2.82957	34.52
2.84623	34.52
2.86290	34.52
2.87957	34.52
2.89623	34.52
2.91290	34.52
2.92957	34.52
2.94623	34.52
2.96290	34.52
2.97957	34.51
2.99623	34.52
3.01290	34.52
3.02957	34.52
3.04623	34.52
3.06290	34.52
3.07957	34.52
3.09623	34.52
3.11290	34.52
3.12957	34.52
3.14623	34.51
3.16290	34.53
3.17957	34.52
3.19623	34.51
3.21290	34.52
3.22957	34.52
3.24623	34.52
3.26290	34.52
3.27957	34.52
3.29623	34.52
3.31290	34.52
3.32957	34.52
3.34623	34.52
3.36290	34.52
3.37957	34.52
3.39623	34.52
3.41290	34.51
3.42957	34.52
3.44623	34.52
3.46290	34.52
3.47957	34.50
3.49623	34.52
3.51290	34.52
3.52957	34.52
3.54623	34.52
3.56290	34.52
3.57957	34.52
3.59623	34.52
3.61290	34.52
3.62957	34.52
3.64623	34.52
3.66290	34.52
3.67957	34.52
3.69623	34.52
3.71290	34.52
3.72957	34.51
3.74623	34.52
3.76290	34.52
3.77957	34.51
3.79623	34.52
3.81290	34.52
3.82957	34.52
3.84623	34.52
3.86290	34.52
3.87957	34.52
3.89623	34.52
3.91290	34.52
3.92957	34.51
3.94623	34.52
3.96290	34.52
3.97957	34.52

[Status Trace (Column Flow)]
Interval(msec)	1000
# of Points	239
Start Time(min)	0.013
End Time(min)	3.980
Intensity Units	
Intensity Multiplier	1
R.Time (min)	Intensity
0.01290	5.51
0.02957	5.16
0.04623	5.48
0.06290	5.71
0.07957	5.62
0.09623	5.51
0.11290	5.51
0.12957	5.51
0.14623	5.51
0.16290	5.51
0.17957	5.51
0.19623	5.51
0.21290	5.51
0.22957	5.51
0.24623	5.51
0.26290	5.51
0.27957	5.51
0.29623	5.51
0.31290	5.51
0.32957	5.51
0.34623	5.51
0.36290	5.51
0.37957	5.51
0.39623	5.51
0.41290	5.51
0.42957	5.51
0.44623	5.51
0.46290	5.51
0.47957	5.51
0.49623	5.51
0.51290	5.51
0.52957	5.51
0.54623	5.51
0.56290	5.51
0.57957	5.51
0.59623	5.51
0.61290	5.51
0.62957	5.51
0.64623	5.51
0.66290	5.51
0.67957	5.51
0.69623	5.51
0.71290	5.51
0.72957	5.51
0.74623	5.51
0.76290	5.51
0.77957	5.51
0.79623	5.51
0.81290	5.51
0.82957	5.51
0.84623	5.51
0.86290	5.51
0.87957	5.51
0.89623	5.51
0.91290	5.51
0.92957	5.51
0.94623	5.51
0.96290	5.51
0.97957	5.51
0.99623	5.51
1.01290	5.51
1.02957	5.51
1.04623	5.51
1.06290	5.51
1.07957	5.51
1.09623	5.51
1.11290	5.51
1.12957	5.51
1.14623	5.51
1.16290	5.51
1.17957	5.51
1.19623	5.51
1.21290	5.51
1.22957	5.51
1.24623	5.51
1.26290	5.51
1.27957	5.51
1.29623	5.51
1.31290	5.51
1.32957	5.51
1.34623	5.51
1.36290	5.51
1.37957	5.51
1.39623	5.51
1.41290	5.51
1.42957	5.51
1.44623	5.51
1.46290	5.51
1.47957	5.51
1.49623	5.51
1.51290	5.51
1.52957	5.51
1.54623	5.51
1.56290	5.51
1.57957	5.51
1.59623	5.51
1.61290	5.51
1.62957	5.51
1.64623	5.50
1.66290	5.49
1.67957	5.48
1.69623	5.47
1.71290	5.46
1.72957	5.45
1.74623	5.44
1.76290	5.43
1.77957	5.42
1.79623	5.41
1.81290	5.40
1.82957	5.39
1.84623	5.38
1.86290	5.37
1.87957	5.36
1.89623	5.35
1.91290	5.34
1.92957	5.33
1.94623	5.32
1.96290	5.31
1.97957	5.30
1.99623	5.29
2.01290	5.28
2.02957	5.27
2.04623	5.26
2.06290	5.25
2.07957	5.24
2.09623	5.23
2.11290	5.22
2.12957	5.21
2.14623	5.20
2.16290	5.19
2.17957	5.18
2.19623	5.17
2.21290	5.16
2.22957	5.16
2.24623	5.15
2.26290	5.14
2.27957	5.13
2.29623	5.12
2.31290	5.11
2.32957	5.10
2.34623	5.09
2.36290	5.08
2.37957	5.08
2.39623	5.08
2.41290	5.08
2.42957	5.08
2.44623	5.08
2.46290	5.08
2.47957	5.08
2.49623	5.08
2.51290	5.08
2.52957	5.08
2.54623	5.08
2.56290	5.08
2.57957	5.08
2.59623	5.08
2.61290	5.08
2.62957	5.07
2.64623	5.07
2.66290	5.07
2.67957	5.07
2.69623	5.07
2.71290	5.07
2.72957	5.07
2.74623	5.07
2.76290	5.07
2.77957	5.07
2.79623	5.07
2.81290	5.07
2.82957	5.07
2.84623	5.07
2.86290	5.07
2.87957	5.07
2.89623	5.07
2.91290	5.07
2.92957	5.07
2.94623	5.07
2.96290	5.07
2.97957	5.07
2.99623	5.07
3.01290	5.07
3.02957	5.07
3.04623	5.07
3.06290	5.07
3.07957	5.07
3.09623	5.07
3.11290	5.07
3.12957	5.07
3.14623	5.07
3.16290	5.07
3.17957	5.07
3.19623	5.07
3.21290	5.07
3.22957	5.07
3.24623	5.07
3.26290	5.07
3.27957	5.07
3.29623	5.07
3.31290	5.07
3.32957	5.07
3.34623	5.07
3.36290	5.07
3.37957	5.07
3.39623	5.07
3.41290	5.07
3.42957	5.07
3.44623	5.07
3.46290	5.07
3.47957	5.07
3.49623	5.07
3.51290	5.07
3.52957	5.07
3.54623	5.07
3.56290	5.07
3.57957	5.07
3.59623	5.07
3.61290	5.07
3.62957	5.07
3.64623	5.07
3.66290	5.07
3.67957	5.07
3.69623	5.07
3.71290	5.07
3.72957	5.07
3.74623	5.07
3.76290	5.07
3.77957	5.07
3.79623	5.07
3.81290	5.07
3.82957	5.07
3.84623	5.07
3.86290	5.07
3.87957	5.07
3.89623	5.07
3.91290	5.07
3.92957	5.07
3.94623	5.07
3.96290	5.07
3.97957	5.07

[Status Trace (Linear Velocity)]
Interval(msec)	1000
# of Points	239
Start Time(min)	0.013
End Time(min)	3.980
Intensity Units	
Intensity Multiplier	1
R.Time (min)	Intensity
0.01290	39.00
0.02957	37.03
0.04623	38.85
0.06290	40.11
0.07957	39.63
0.09623	39.01
0.11290	39.01
0.12957	39.02
0.14623	39.02
0.16290	39.02
0.17957	39.02
0.19623	39.02
0.21290	39.02
0.22957	39.02
0.24623	39.02
0.26290	39.02
0.27957	39.02
0.29623	39.02
0.31290	39.02
0.32957	39.02
0.34623	39.02
0.36290	39.01
0.37957	39.02
0.39623	39.02
0.41290	39.02
0.42957	39.02
0.44623	39.02
0.46290	39.02
0.47957	39.02
0.49623	39.02
0.51290	39.02
0.52957	39.02
0.54623	39.01
0.56290	39.02
0.57957	39.02
0.59623	39.02
0.61290	39.02
0.62957	39.02
0.64623	39.02
0.66290	39.02
0.67957	39.02
0.69623	39.01
0.71290	39.01
0.72957	39.02
0.74623	39.01
0.76290	39.02
0.77957	39.01
0.79623	39.02
0.81290	39.01
0.82957	39.01
0.84623	39.02
0.86290	39.02
0.87957	39.01
0.89623	39.01
0.91290	39.01
0.92957	39.01
0.94623	39.02
0.96290	39.02
0.97957	39.02
0.99623	39.02
1.01290	39.02
1.02957	39.02
1.04623	39.02
1.06290	39.02
1.07957	39.02
1.09623	39.02
1.11290	39.02
1.12957	39.02
1.14623	39.01
1.16290	39.01
1.17957	39.01
1.19623	39.02
1.21290	39.01
1.22957	39.02
1.24623	39.01
1.26290	39.02
1.27957	39.02
1.29623	39.02
1.31290	39.02
1.32957	39.02
1.34623	39.01
1.36290	39.01
1.37957	39.02
1.39623	39.02
1.41290	39.02
1.42957	39.01
1.44623	39.01
1.46290	39.01
1.47957	39.01
1.49623	39.01
1.51290	39.02
1.52957	39.01
1.54623	39.02
1.56290	39.01
1.57957	39.01
1.59623	39.01
1.61290	39.01
1.62957	39.00
1.64623	38.98
1.66290	38.95
1.67957	38.92
1.69623	38.88
1.71290	38.84
1.72957	38.81
1.74623	38.78
1.76290	38.75
1.77957	38.72
1.79623	38.69
1.81290	38.66
1.82957	38.62
1.84623	38.59
1.86290	38.56
1.87957	38.53
1.89623	38.50
1.91290	38.47
1.92957	38.44
1.94623	38.41
1.96290	38.38
1.97957	38.35
1.99623	38.32
2.01290	38.29
2.02957	38.26
2.04623	38.23
2.06290	38.20
2.07957	38.17
2.09623	38.14
2.11290	38.11
2.12957	38.08
2.14623	38.05
2.16290	38.02
2.17957	37.99
2.19623	37.96
2.21290	37.93
2.22957	37.90
2.24623	37.87
2.26290	37.84
2.27957	37.81
2.29623	37.79
2.31290	37.76
2.32957	37.73
2.34623	37.70
2.36290	37.67
2.37957	37.65
2.39623	37.65
2.41290	37.65
2.42957	37.65
2.44623	37.65
2.46290	37.65
2.47957	37.65
2.49623	37.65
2.51290	37.65
2.52957	37.64
2.54623	37.65
2.56290	37.65
2.57957	37.65
2.59623	37.65
2.61290	37.65
2.62957	37.64
2.64623	37.64
2.66290	37.64
2.67957	37.64
2.69623	37.64
2.71290	37.64
2.72957	37.64
2.74623	37.64
2.76290	37.64
2.77957	37.64
2.79623	37.64
2.81290	37.64
2.82957	37.64
2.84623	37.64
2.86290	37.64
2.87957	37.64
2.89623	37.64
2.91290	37.64
2.92957	37.64
2.94623	37.64
2.96290	37.64
2.97957	37.63
2.99623	37.63
3.01290	37.63
3.02957	37.63
3.04623	37.63
3.06290	37.63
3.07957	37.63
3.09623	37.63
3.11290	37.63
3.12957	37.63
3.14623	37.63
3.16290	37.63
3.17957	37.63
3.19623	37.63
3.21290	37.63
3.22957	37.63
3.24623	37.63
3.26290	37.63
3.27957	37.63
3.29623	37.63
3.31290	37.63
3.32957	37.62
3.34623	37.62
3.36290	37.62
3.37957	37.62
3.39623	37.62
3.41290	37.62
3.42957	37.62
3.44623	37.62
3.46290	37.62
3.47957	37.62
3.49623	37.62
3.51290	37.63
3.52957	37.63
3.54623	37.63
3.56290	37.63
3.57957	37.63
3.59623	37.63
3.61290	37.63
3.62957	37.63
3.64623	37.63
3.66290	37.63
3.67957	37.63
3.69623	37.63
3.71290	37.63
3.72957	37.63
3.74623	37.63
3.76290	37.63
3.77957	37.63
3.79623	37.63
3.81290	37.63
3.82957	37.63
3.84623	37.63
3.86290	37.63
3.87957	37.63
3.89623	37.63
3.91290	37.63
3.92957	37.63
3.94623	37.63
3.96290	37.62
3.97957	37.62

