[Header]
Application Name	LabSolutions
Version	5.110
Data File Name	C:\Users\User\Desktop\GC Analyses\Jack\UIC Prairie Sampling\9.30.22\220930_084.gcd
Output Date	1/4/2023
Output Time	2:27:55 PM

[File Information]
Type	Data File
Generated	12/2/2022 1:42:32 PM
Generated by	System Administrator
Modified	12/2/2022 1:46:53 PM
Modified by	System Administrator

[Sample Information]
Operator Name	System Administrator
Acquired	12/2/2022 1:42:51 PM
Sample Type	1:Standard
Level	1
Sample Name	220930_UICPrairie
Sample ID	220930_UICPrairie
ISTD Amount1	1
ISTD Amount2	1
ISTD Amount3	1
ISTD Amount4	1
ISTD Amount5	1
ISTD Amount6	1
ISTD Amount7	1
ISTD Amount8	1
ISTD Amount9	1
ISTD Amount10	1
ISTD Amount11	1
ISTD Amount12	1
ISTD Amount13	1
ISTD Amount14	1
ISTD Amount15	1
ISTD Amount16	1
ISTD Amount17	1
ISTD Amount18	1
ISTD Amount19	1
ISTD Amount20	1
ISTD Amount21	1
ISTD Amount22	1
ISTD Amount23	1
ISTD Amount24	1
ISTD Amount25	1
ISTD Amount26	1
ISTD Amount27	1
ISTD Amount28	1
ISTD Amount29	1
ISTD Amount30	1
ISTD Amount31	1
ISTD Amount32	1
Sample Amount	1
Dilution Factor	1
Vial#	1
Injection Volume	1
Injection Count	1
Bar Code	

[Original Files]
Data File	C:\Users\User\Desktop\GC Analyses\Jack\UIC Prairie Sampling\9.30.22\220930_084.gcd
Method File	C:\LabSolutions\Data\GHG_4min_2022\ghg3_togas_w_acet_4 min_new_int.gcm
Batch File	
Report Format File	c:\LabSolutions\System\DEFAULT.lsr

[File Description]


[Configuration]
Instrument Name	C0B7VH3-Instrument1
Instrument #	1
Line #	1
# of Detectors	3
Detector ID	DET#1	DET#2	DET#3
Detector Name	FID	PTCD	ECD
# of Channels	1	1	1

[Peak Table(Ch1)]
# of Peaks	3
Peak#	R.Time	I.Time	F.Time	Area	Height	A/H	Conc.	Mark	ID#	Name	k'	Plate #	Plate Ht.	Tailing	Resolution	Sep.Factor	Area Ratio	Height Ratio	Conc. %	Norm Conc.
1	1.479	1.435	1.538	15687	7145	2.196	100.000	   	1	CO	0.000	8665	17.310	1.189	0.000	0.000	0	0	16.667	16.667
2	1.571	1.538	1.626	5033	2500	2.013	100.000	 V 	2	CH4	0.062	11024	13.607	0.000	1.485	0.000	0	0	16.667	16.667
3	2.000	1.952	2.506	1797209	859877	2.090	400.000	   	3	CO2	0.352	17323	8.659	1.260	7.112	5.680	0	0	66.667	66.667

[Peak Table(Ch2)]
# of Peaks	0

[Peak Table(Ch3)]
# of Peaks	5
Peak#	R.Time	I.Time	F.Time	Area	Height	A/H	Conc.	Mark	ID#	Name	k'	Plate #	Plate Ht.	Tailing	Resolution	Sep.Factor	Area Ratio	Height Ratio	Conc. %	Norm Conc.
1	2.458	2.352	2.499	1418	390	3.636	0.000	   			0.000	6720	22.320	0.000	0.000	0.000	0	0	0.000	0.000
2	2.517	2.499	2.557	919	295	3.112	0.000	 V 			0.024	1823	82.291	0.000	0.330	0.000	0	0	0.000	0.000
3	2.609	2.557	2.656	1306	322	4.053	0.000	 V 			0.061	3833	39.130	0.000	0.453	2.563	0	0	0.000	0.000
4	2.891	2.671	3.129	26306	5630	4.673	1.000	   	1	N2O	0.176	12496	12.004	1.795	2.076	2.878	0	0	100.000	100.000
5	3.327	3.129	3.984	10022	324	30.947	0.000	 V 			0.353	65	2301.072	0.000	0.498	2.008	0	0	0.000	0.000

[Compound Results(Ch1)]
# of IDs	6
ID#	Name	R.Time	Area	Height	Conc.	Curve	3rd	2nd	1st	Constant	Area Ratio	Height Ratio	Conc. %	Norm Conc.
1	CO	1.479	15687	7145	100.000	Linear	0.000000e+00	0.000000e+00	1.568671e+002	0.000000e+00	0	0	16.667	16.667
2	CH4	1.571	5033	2500	100.000	Linear	0.000000e+00	0.000000e+00	5.032990e+001	0.000000e+00	0	0	16.667	16.667
3	CO2	2.000	1797209	859877	400.000	Linear	0.000000e+00	0.000000e+00	4.493022e+003	0.000000e+00	0	0	66.667	66.667
4	Ethylene	0.000	0	0	0.000	Linear	0.000000e+00	0.000000e+00	0.000000e+00	0.000000e+00	0	0	0.000	0.000
5	Acetylene	0.000	0	0	0.000	Linear	0.000000e+00	0.000000e+00	0.000000e+00	0.000000e+00	0	0	0.000	0.000
6	Ethane	0.000	0	0	0.000	Linear	0.000000e+00	0.000000e+00	0.000000e+00	0.000000e+00	0	0	0.000	0.000

[Compound Results(Ch2)]
# of IDs	5
ID#	Name	R.Time	Area	Height	Conc.	Curve	3rd	2nd	1st	Constant	Area Ratio	Height Ratio	Conc. %	Norm Conc.
1	Hydrogen	0.000	0	0	0.000	Linear	0.000000e+00	0.000000e+00	0.000000e+00	0.000000e+00	0	0	0.000	0.000
2	Oxygen	0.000	0	0	0.000	Linear	0.000000e+00	0.000000e+00	0.000000e+00	0.000000e+00	0	0	0.000	0.000
3	Nitrogen	0.000	0	0	0.000	Linear	0.000000e+00	0.000000e+00	0.000000e+00	0.000000e+00	0	0	0.000	0.000
4	Methane	0.000	0	0	0.000	Linear	0.000000e+00	0.000000e+00	0.000000e+00	0.000000e+00	0	0	0.000	0.000
5	Carbon Monoxide	0.000	0	0	0.000	Linear	0.000000e+00	0.000000e+00	0.000000e+00	0.000000e+00	0	0	0.000	0.000

[Compound Results(Ch3)]
# of IDs	2
ID#	Name	R.Time	Area	Height	Conc.	Curve	3rd	2nd	1st	Constant	Area Ratio	Height Ratio	Conc. %	Norm Conc.
1	N2O	2.891	26306	5630	1.000	Linear	0.000000e+00	0.000000e+00	2.630599e+004	0.000000e+00	0	0	100.000	100.000
2	SF6	0.000	0	0	0.000	Linear	0.000000e+00	0.000000e+00	0.000000e+00	0.000000e+00	0	0	0.000	0.000

[Group Results(Ch1)]
# of Groups	0

[Group Results(Ch2)]
# of Groups	0

[Group Results(Ch3)]
# of Groups	0

[Chromatogram (Ch1)]
Interval(msec)	220
# of Points	1091
Start Time(min)	0.002
End Time(min)	3.998
R.Time (min)	Intensity
0.00167	-11
0.00533	-10
0.00900	-7
0.01267	-1
0.01633	6
0.02000	8
0.02367	3
0.02733	-6
0.03100	-15
0.03467	-23
0.03833	-25
0.04200	-19
0.04567	-11
0.04933	-2
0.05300	3
0.05667	6
0.06033	4
0.06400	2
0.06767	4
0.07133	9
0.07500	14
0.07867	19
0.08233	23
0.08600	23
0.08967	15
0.09333	3
0.09700	-10
0.10067	-20
0.10433	-26
0.10800	-31
0.11167	-33
0.11533	-33
0.11900	-30
0.12267	-27
0.12633	-26
0.13000	-25
0.13367	-27
0.13733	-25
0.14100	-19
0.14467	-10
0.14833	-2
0.15200	2
0.15567	3
0.15933	1
0.16300	-3
0.16667	-10
0.17033	-18
0.17400	-23
0.17767	-22
0.18133	-19
0.18500	-20
0.18867	-21
0.19233	-22
0.19600	-21
0.19967	-19
0.20333	-19
0.20700	-24
0.21067	-30
0.21433	-34
0.21800	-35
0.22167	-30
0.22533	-24
0.22900	-22
0.23267	-22
0.23633	-21
0.24000	-20
0.24367	-17
0.24733	-12
0.25100	-7
0.25467	-1
0.25833	0
0.26200	-2
0.26567	-8
0.26933	-17
0.27300	-28
0.27667	-38
0.28033	-44
0.28400	-44
0.28767	-39
0.29133	-35
0.29500	-30
0.29867	-25
0.30233	-20
0.30600	-16
0.30967	-15
0.31333	-16
0.31700	-17
0.32067	-17
0.32433	-15
0.32800	-11
0.33167	-8
0.33533	-7
0.33900	-10
0.34267	-20
0.34633	-33
0.35000	-43
0.35367	-48
0.35733	-48
0.36100	-49
0.36467	-52
0.36833	-50
0.37200	-45
0.37567	-40
0.37933	-36
0.38300	-31
0.38667	-26
0.39033	-22
0.39400	-22
0.39767	-26
0.40133	-30
0.40500	-33
0.40867	-36
0.41233	-40
0.41600	-42
0.41967	-40
0.42333	-35
0.42700	-35
0.43067	-38
0.43433	-42
0.43800	-47
0.44167	-48
0.44533	-47
0.44900	-49
0.45267	-51
0.45633	-48
0.46000	-41
0.46367	-33
0.46733	-29
0.47100	-30
0.47467	-30
0.47833	-29
0.48200	-27
0.48567	-26
0.48933	-27
0.49300	-28
0.49667	-27
0.50033	-25
0.50400	-24
0.50767	-29
0.51133	-34
0.51500	-41
0.51867	-46
0.52233	-52
0.52600	-54
0.52967	-53
0.53333	-52
0.53700	-53
0.54067	-54
0.54433	-53
0.54800	-51
0.55167	-47
0.55533	-44
0.55900	-41
0.56267	-42
0.56633	-45
0.57000	-46
0.57367	-49
0.57733	-50
0.58100	-50
0.58467	-52
0.58833	-51
0.59200	-47
0.59567	-46
0.59933	-48
0.60300	-49
0.60667	-46
0.61033	-42
0.61400	-43
0.61767	-46
0.62133	-46
0.62500	-46
0.62867	-44
0.63233	-41
0.63600	-36
0.63967	-29
0.64333	-21
0.64700	-16
0.65067	-18
0.65433	-24
0.65800	-31
0.66167	-36
0.66533	-38
0.66900	-42
0.67267	-47
0.67633	-54
0.68000	-58
0.68367	-62
0.68733	-66
0.69100	-65
0.69467	-59
0.69833	-52
0.70200	-49
0.70567	-46
0.70933	-42
0.71300	-39
0.71667	-35
0.72033	-33
0.72400	-38
0.72767	-44
0.73133	-47
0.73500	-51
0.73867	-56
0.74233	-62
0.74600	-63
0.74967	-63
0.75333	-62
0.75700	-60
0.76067	-56
0.76433	-50
0.76800	-44
0.77167	-39
0.77533	-38
0.77900	-45
0.78267	-57
0.78633	-65
0.79000	-67
0.79367	-66
0.79733	-64
0.80100	-64
0.80467	-67
0.80833	-73
0.81200	-78
0.81567	-80
0.81933	-80
0.82300	-78
0.82667	-71
0.83033	-65
0.83400	-65
0.83767	-69
0.84133	-72
0.84500	-70
0.84867	-66
0.85233	-62
0.85600	-61
0.85967	-61
0.86333	-62
0.86700	-64
0.87067	-63
0.87433	-62
0.87800	-61
0.88167	-59
0.88533	-60
0.88900	-61
0.89267	-59
0.89633	-58
0.90000	-58
0.90367	-53
0.90733	-46
0.91100	-44
0.91467	-46
0.91833	-48
0.92200	-52
0.92567	-46
0.92933	-27
0.93300	-12
0.93667	-4
0.94033	1
0.94400	4
0.94767	2
0.95133	-5
0.95500	-16
0.95867	-27
0.96233	-33
0.96600	-37
0.96967	-41
0.97333	-47
0.97700	-50
0.98067	-51
0.98433	-48
0.98800	-43
0.99167	-37
0.99533	-32
0.99900	-32
1.00267	-36
1.00633	-39
1.01000	-41
1.01367	-39
1.01733	-34
1.02100	-32
1.02467	-33
1.02833	-34
1.03200	-32
1.03567	-31
1.03933	-31
1.04300	-28
1.04667	-27
1.05033	-30
1.05400	-35
1.05767	-41
1.06133	-43
1.06500	-44
1.06867	-51
1.07233	-55
1.07600	-53
1.07967	-49
1.08333	-46
1.08700	-44
1.09067	-45
1.09433	-51
1.09800	-57
1.10167	-58
1.10533	-59
1.10900	-61
1.11267	-63
1.11633	-60
1.12000	-58
1.12367	-52
1.12733	-44
1.13100	-38
1.13467	-35
1.13833	-35
1.14200	-37
1.14567	-41
1.14933	-45
1.15300	-46
1.15667	-47
1.16033	-48
1.16400	-46
1.16767	-47
1.17133	-47
1.17500	-45
1.17867	-43
1.18233	-42
1.18600	-43
1.18967	-43
1.19333	-44
1.19700	-43
1.20067	-41
1.20433	-44
1.20800	-50
1.21167	-56
1.21533	-59
1.21900	-62
1.22267	-67
1.22633	-69
1.23000	-67
1.23367	-64
1.23733	-65
1.24100	-65
1.24467	-66
1.24833	-71
1.25200	-74
1.25567	-72
1.25933	-68
1.26300	-66
1.26667	-65
1.27033	-61
1.27400	-55
1.27767	-50
1.28133	-49
1.28500	-52
1.28867	-60
1.29233	-67
1.29600	-69
1.29967	-69
1.30333	-65
1.30700	-59
1.31067	-52
1.31433	-45
1.31800	-41
1.32167	-40
1.32533	-38
1.32900	-39
1.33267	-41
1.33633	-50
1.34000	-62
1.34367	-74
1.34733	-86
1.35100	-94
1.35467	-98
1.35833	-98
1.36200	-93
1.36567	-86
1.36933	-76
1.37300	-69
1.37667	-62
1.38033	-54
1.38400	-51
1.38767	-52
1.39133	-56
1.39500	-60
1.39867	-66
1.40233	-72
1.40600	-80
1.40967	-88
1.41333	-93
1.41700	-95
1.42067	-95
1.42433	-94
1.42800	-91
1.43167	-88
1.43533	-84
1.43900	-68
1.44267	-10
1.44633	158
1.45000	473
1.45367	1024
1.45733	1950
1.46100	3187
1.46467	4487
1.46833	5622
1.47200	6473
1.47567	6974
1.47933	7064
1.48300	6710
1.48667	5957
1.49033	4960
1.49400	3910
1.49767	2955
1.50133	2167
1.50500	1559
1.50867	1108
1.51233	779
1.51600	545
1.51967	381
1.52333	268
1.52700	191
1.53067	137
1.53433	101
1.53800	78
1.54167	92
1.54533	192
1.54900	445
1.55267	848
1.55633	1322
1.56000	1765
1.56367	2117
1.56733	2346
1.57100	2427
1.57467	2333
1.57833	2067
1.58200	1687
1.58567	1278
1.58933	910
1.59300	615
1.59667	394
1.60033	234
1.60400	126
1.60767	54
1.61133	7
1.61500	-26
1.61867	-49
1.62233	-63
1.62600	-70
1.62967	-74
1.63333	-78
1.63700	-81
1.64067	-81
1.64433	-75
1.64800	-67
1.65167	-64
1.65533	-66
1.65900	-72
1.66267	-79
1.66633	-83
1.67000	-83
1.67367	-81
1.67733	-82
1.68100	-91
1.68467	-105
1.68833	-117
1.69200	-120
1.69567	-117
1.69933	-112
1.70300	-106
1.70667	-102
1.71033	-100
1.71400	-99
1.71767	-99
1.72133	-99
1.72500	-101
1.72867	-101
1.73233	-98
1.73600	-95
1.73967	-95
1.74333	-97
1.74700	-99
1.75067	-103
1.75433	-108
1.75800	-114
1.76167	-119
1.76533	-126
1.76900	-131
1.77267	-135
1.77633	-133
1.78000	-127
1.78367	-121
1.78733	-120
1.79100	-120
1.79467	-118
1.79833	-117
1.80200	-117
1.80567	-119
1.80933	-120
1.81300	-120
1.81667	-116
1.82033	-112
1.82400	-109
1.82767	-107
1.83133	-106
1.83500	-104
1.83867	-101
1.84233	-98
1.84600	-98
1.84967	-100
1.85333	-104
1.85700	-106
1.86067	-108
1.86433	-111
1.86800	-114
1.87167	-117
1.87533	-122
1.87900	-129
1.88267	-133
1.88633	-132
1.89000	-130
1.89367	-128
1.89733	-127
1.90100	-124
1.90467	-117
1.90833	-113
1.91200	-112
1.91567	-112
1.91933	-113
1.92300	-109
1.92667	-99
1.93033	-91
1.93400	-89
1.93767	-92
1.94133	-100
1.94500	-107
1.94867	-109
1.95233	-106
1.95600	-78
1.95967	125
1.96333	1269
1.96700	6251
1.97067	22698
1.97433	64404
1.97800	146524
1.98167	273710
1.98533	432053
1.98900	594654
1.99267	733191
1.99633	825987
2.00000	859803
2.00367	831686
2.00733	750569
2.01100	634741
2.01467	506334
2.01833	384607
2.02200	281305
2.02567	200411
2.02933	140615
2.03300	98140
2.03667	68746
2.04033	48726
2.04400	35191
2.04767	26039
2.05133	19812
2.05500	15522
2.05867	12512
2.06233	10356
2.06600	8777
2.06967	7595
2.07333	6686
2.07700	5968
2.08067	5386
2.08433	4907
2.08800	4506
2.09167	4164
2.09533	3866
2.09900	3604
2.10267	3374
2.10633	3168
2.11000	2985
2.11367	2822
2.11733	2676
2.12100	2540
2.12467	2416
2.12833	2306
2.13200	2211
2.13567	2125
2.13933	2047
2.14300	1973
2.14667	1900
2.15033	1828
2.15400	1757
2.15767	1690
2.16133	1630
2.16500	1576
2.16867	1522
2.17233	1468
2.17600	1416
2.17967	1368
2.18333	1326
2.18700	1290
2.19067	1257
2.19433	1223
2.19800	1188
2.20167	1151
2.20533	1113
2.20900	1075
2.21267	1041
2.21633	1009
2.22000	985
2.22367	965
2.22733	947
2.23100	929
2.23467	909
2.23833	888
2.24200	869
2.24567	850
2.24933	834
2.25300	821
2.25667	810
2.26033	795
2.26400	778
2.26767	759
2.27133	742
2.27500	726
2.27867	712
2.28233	700
2.28600	688
2.28967	675
2.29333	662
2.29700	649
2.30067	632
2.30433	610
2.30800	591
2.31167	575
2.31533	563
2.31900	556
2.32267	551
2.32633	546
2.33000	540
2.33367	531
2.33733	519
2.34100	511
2.34467	510
2.34833	507
2.35200	503
2.35567	496
2.35933	491
2.36300	487
2.36667	484
2.37033	478
2.37400	469
2.37767	457
2.38133	445
2.38500	436
2.38867	427
2.39233	418
2.39600	412
2.39967	405
2.40333	404
2.40700	405
2.41067	404
2.41433	399
2.41800	390
2.42167	379
2.42533	370
2.42900	366
2.43267	364
2.43633	363
2.44000	358
2.44367	355
2.44733	356
2.45100	361
2.45467	363
2.45833	359
2.46200	349
2.46567	334
2.46933	319
2.47300	310
2.47667	304
2.48033	301
2.48400	297
2.48767	291
2.49133	284
2.49500	280
2.49867	277
2.50233	273
2.50600	269
2.50967	268
2.51333	269
2.51700	272
2.52067	276
2.52433	280
2.52800	284
2.53167	289
2.53533	293
2.53900	292
2.54267	287
2.54633	276
2.55000	261
2.55367	248
2.55733	240
2.56100	235
2.56467	231
2.56833	228
2.57200	225
2.57567	222
2.57933	216
2.58300	209
2.58667	201
2.59033	194
2.59400	189
2.59767	186
2.60133	185
2.60500	186
2.60867	190
2.61233	194
2.61600	197
2.61967	199
2.62333	195
2.62700	190
2.63067	185
2.63433	181
2.63800	177
2.64167	175
2.64533	172
2.64900	171
2.65267	173
2.65633	176
2.66000	177
2.66367	177
2.66733	177
2.67100	173
2.67467	168
2.67833	163
2.68200	162
2.68567	159
2.68933	152
2.69300	145
2.69667	144
2.70033	148
2.70400	152
2.70767	155
2.71133	156
2.71500	154
2.71867	150
2.72233	149
2.72600	151
2.72967	152
2.73333	150
2.73700	149
2.74067	147
2.74433	147
2.74800	148
2.75167	149
2.75533	150
2.75900	153
2.76267	155
2.76633	156
2.77000	157
2.77367	155
2.77733	148
2.78100	138
2.78467	127
2.78833	115
2.79200	105
2.79567	99
2.79933	96
2.80300	98
2.80667	100
2.81033	101
2.81400	100
2.81767	99
2.82133	97
2.82500	97
2.82867	99
2.83233	102
2.83600	106
2.83967	112
2.84333	116
2.84700	118
2.85067	118
2.85433	111
2.85800	99
2.86167	89
2.86533	85
2.86900	87
2.87267	90
2.87633	91
2.88000	87
2.88367	81
2.88733	76
2.89100	76
2.89467	80
2.89833	86
2.90200	93
2.90567	97
2.90933	97
2.91300	93
2.91667	87
2.92033	81
2.92400	74
2.92767	67
2.93133	64
2.93500	62
2.93867	65
2.94233	71
2.94600	80
2.94967	90
2.95333	96
2.95700	94
2.96067	86
2.96433	77
2.96800	70
2.97167	62
2.97533	53
2.97900	51
2.98267	56
2.98633	66
2.99000	77
2.99367	83
2.99733	85
3.00100	86
3.00467	87
3.00833	93
3.01200	101
3.01567	105
3.01933	103
3.02300	96
3.02667	86
3.03033	75
3.03400	64
3.03767	57
3.04133	53
3.04500	49
3.04867	42
3.05233	36
3.05600	32
3.05967	31
3.06333	35
3.06700	40
3.07067	43
3.07433	43
3.07800	39
3.08167	36
3.08533	36
3.08900	35
3.09267	33
3.09633	29
3.10000	25
3.10367	24
3.10733	26
3.11100	32
3.11467	37
3.11833	39
3.12200	38
3.12567	37
3.12933	33
3.13300	29
3.13667	26
3.14033	27
3.14400	33
3.14767	39
3.15133	43
3.15500	45
3.15867	45
3.16233	42
3.16600	40
3.16967	41
3.17333	46
3.17700	54
3.18067	58
3.18433	53
3.18800	45
3.19167	35
3.19533	26
3.19900	18
3.20267	10
3.20633	3
3.21000	-1
3.21367	-3
3.21733	-4
3.22100	-5
3.22467	-4
3.22833	-2
3.23200	5
3.23567	15
3.23933	20
3.24300	18
3.24667	12
3.25033	6
3.25400	0
3.25767	-0
3.26133	5
3.26500	10
3.26867	17
3.27233	23
3.27600	29
3.27967	34
3.28333	39
3.28700	38
3.29067	32
3.29433	24
3.29800	12
3.30167	1
3.30533	-4
3.30900	-4
3.31267	-1
3.31633	2
3.32000	7
3.32367	9
3.32733	10
3.33100	13
3.33467	17
3.33833	20
3.34200	21
3.34567	16
3.34933	8
3.35300	-3
3.35667	-13
3.36033	-15
3.36400	-12
3.36767	-5
3.37133	1
3.37500	5
3.37867	5
3.38233	2
3.38600	-2
3.38967	-8
3.39333	-11
3.39700	-11
3.40067	-6
3.40433	1
3.40800	6
3.41167	9
3.41533	9
3.41900	8
3.42267	9
3.42633	12
3.43000	18
3.43367	22
3.43733	22
3.44100	16
3.44467	10
3.44833	3
3.45200	-4
3.45567	-7
3.45933	-9
3.46300	-12
3.46667	-13
3.47033	-16
3.47400	-18
3.47767	-18
3.48133	-17
3.48500	-16
3.48867	-13
3.49233	-7
3.49600	-3
3.49967	-2
3.50333	-5
3.50700	-7
3.51067	-12
3.51433	-16
3.51800	-18
3.52167	-18
3.52533	-14
3.52900	-8
3.53267	0
3.53633	6
3.54000	8
3.54367	5
3.54733	0
3.55100	-7
3.55467	-10
3.55833	-10
3.56200	-11
3.56567	-13
3.56933	-16
3.57300	-15
3.57667	-9
3.58033	-1
3.58400	0
3.58767	-5
3.59133	-9
3.59500	-8
3.59867	-10
3.60233	-14
3.60600	-20
3.60967	-25
3.61333	-23
3.61700	-16
3.62067	-7
3.62433	-4
3.62800	-7
3.63167	-12
3.63533	-16
3.63900	-16
3.64267	-17
3.64633	-21
3.65000	-28
3.65367	-35
3.65733	-38
3.66100	-36
3.66467	-28
3.66833	-19
3.67200	-14
3.67567	-12
3.67933	-12
3.68300	-20
3.68667	-33
3.69033	-45
3.69400	-52
3.69767	-55
3.70133	-55
3.70500	-51
3.70867	-45
3.71233	-39
3.71600	-31
3.71967	-27
3.72333	-24
3.72700	-22
3.73067	-22
3.73433	-23
3.73800	-25
3.74167	-24
3.74533	-18
3.74900	-9
3.75267	-3
3.75633	-7
3.76000	-14
3.76367	-18
3.76733	-22
3.77100	-25
3.77467	-27
3.77833	-27
3.78200	-27
3.78567	-24
3.78933	-21
3.79300	-21
3.79667	-24
3.80033	-26
3.80400	-29
3.80767	-30
3.81133	-30
3.81500	-27
3.81867	-27
3.82233	-27
3.82600	-23
3.82967	-14
3.83333	-7
3.83700	-5
3.84067	-4
3.84433	-4
3.84800	-9
3.85167	-18
3.85533	-25
3.85900	-32
3.86267	-38
3.86633	-39
3.87000	-36
3.87367	-32
3.87733	-29
3.88100	-31
3.88467	-34
3.88833	-36
3.89200	-36
3.89567	-31
3.89933	-22
3.90300	-12
3.90667	-4
3.91033	3
3.91400	5
3.91767	3
3.92133	-2
3.92500	-12
3.92867	-25
3.93233	-36
3.93600	-40
3.93967	-37
3.94333	-32
3.94700	-26
3.95067	-22
3.95433	-21
3.95800	-22
3.96167	-23
3.96533	-27
3.96900	-31
3.97267	-30
3.97633	-26
3.98000	-27
3.98367	-29
3.98733	-30
3.99100	-32
3.99467	-33
3.99833	-31

[Chromatogram (Ch2)]
Interval(msec)	220
# of Points	1091
Start Time(min)	0.002
End Time(min)	3.998
R.Time (min)	Intensity
0.00167	-0
0.00533	0
0.00900	0
0.01267	1
0.01633	1
0.02000	1
0.02367	1
0.02733	1
0.03100	1
0.03467	0
0.03833	0
0.04200	-0
0.04567	-0
0.04933	0
0.05300	0
0.05667	0
0.06033	0
0.06400	0
0.06767	0
0.07133	1
0.07500	1
0.07867	1
0.08233	1
0.08600	1
0.08967	1
0.09333	1
0.09700	1
0.10067	2
0.10433	2
0.10800	2
0.11167	2
0.11533	2
0.11900	3
0.12267	3
0.12633	3
0.13000	3
0.13367	3
0.13733	3
0.14100	3
0.14467	3
0.14833	3
0.15200	3
0.15567	3
0.15933	3
0.16300	3
0.16667	3
0.17033	3
0.17400	3
0.17767	3
0.18133	3
0.18500	3
0.18867	3
0.19233	3
0.19600	3
0.19967	3
0.20333	3
0.20700	3
0.21067	3
0.21433	3
0.21800	3
0.22167	3
0.22533	3
0.22900	3
0.23267	3
0.23633	3
0.24000	2
0.24367	2
0.24733	2
0.25100	2
0.25467	2
0.25833	2
0.26200	2
0.26567	2
0.26933	2
0.27300	2
0.27667	2
0.28033	2
0.28400	2
0.28767	2
0.29133	2
0.29500	2
0.29867	2
0.30233	2
0.30600	2
0.30967	2
0.31333	2
0.31700	2
0.32067	2
0.32433	2
0.32800	2
0.33167	2
0.33533	2
0.33900	2
0.34267	2
0.34633	1
0.35000	1
0.35367	1
0.35733	1
0.36100	1
0.36467	1
0.36833	1
0.37200	1
0.37567	1
0.37933	1
0.38300	1
0.38667	1
0.39033	1
0.39400	1
0.39767	2
0.40133	2
0.40500	2
0.40867	2
0.41233	1
0.41600	1
0.41967	1
0.42333	1
0.42700	1
0.43067	1
0.43433	1
0.43800	1
0.44167	1
0.44533	1
0.44900	1
0.45267	1
0.45633	1
0.46000	2
0.46367	2
0.46733	2
0.47100	2
0.47467	2
0.47833	2
0.48200	2
0.48567	2
0.48933	1
0.49300	1
0.49667	1
0.50033	1
0.50400	2
0.50767	2
0.51133	2
0.51500	2
0.51867	2
0.52233	2
0.52600	3
0.52967	3
0.53333	3
0.53700	3
0.54067	3
0.54433	3
0.54800	2
0.55167	2
0.55533	2
0.55900	2
0.56267	2
0.56633	1
0.57000	1
0.57367	1
0.57733	1
0.58100	1
0.58467	1
0.58833	1
0.59200	1
0.59567	1
0.59933	1
0.60300	1
0.60667	0
0.61033	0
0.61400	0
0.61767	-0
0.62133	-1
0.62500	-1
0.62867	-1
0.63233	-1
0.63600	-1
0.63967	-1
0.64333	-1
0.64700	-1
0.65067	-1
0.65433	-1
0.65800	-1
0.66167	-1
0.66533	-1
0.66900	-1
0.67267	-0
0.67633	-0
0.68000	-0
0.68367	-0
0.68733	0
0.69100	0
0.69467	0
0.69833	0
0.70200	0
0.70567	0
0.70933	0
0.71300	0
0.71667	0
0.72033	0
0.72400	0
0.72767	0
0.73133	-0
0.73500	-0
0.73867	-0
0.74233	-0
0.74600	-0
0.74967	-0
0.75333	0
0.75700	0
0.76067	1
0.76433	1
0.76800	1
0.77167	1
0.77533	1
0.77900	1
0.78267	1
0.78633	1
0.79000	1
0.79367	1
0.79733	1
0.80100	1
0.80467	1
0.80833	2
0.81200	2
0.81567	1
0.81933	1
0.82300	1
0.82667	1
0.83033	1
0.83400	0
0.83767	0
0.84133	-0
0.84500	-1
0.84867	-1
0.85233	-2
0.85600	-2
0.85967	-2
0.86333	-2
0.86700	-2
0.87067	-2
0.87433	-2
0.87800	-1
0.88167	-1
0.88533	-1
0.88900	-1
0.89267	-1
0.89633	-1
0.90000	-0
0.90367	0
0.90733	0
0.91100	0
0.91467	1
0.91833	1
0.92200	1
0.92567	1
0.92933	1
0.93300	1
0.93667	1
0.94033	1
0.94400	1
0.94767	1
0.95133	1
0.95500	1
0.95867	1
0.96233	1
0.96600	1
0.96967	1
0.97333	1
0.97700	1
0.98067	1
0.98433	1
0.98800	1
0.99167	1
0.99533	1
0.99900	2
1.00267	2
1.00633	2
1.01000	2
1.01367	2
1.01733	2
1.02100	2
1.02467	2
1.02833	2
1.03200	2
1.03567	2
1.03933	2
1.04300	2
1.04667	2
1.05033	2
1.05400	2
1.05767	1
1.06133	1
1.06500	1
1.06867	1
1.07233	1
1.07600	1
1.07967	1
1.08333	1
1.08700	1
1.09067	0
1.09433	0
1.09800	-0
1.10167	-0
1.10533	-0
1.10900	-0
1.11267	-0
1.11633	-1
1.12000	-1
1.12367	-1
1.12733	-1
1.13100	-1
1.13467	-1
1.13833	-1
1.14200	-1
1.14567	-1
1.14933	-1
1.15300	-1
1.15667	-1
1.16033	-1
1.16400	-1
1.16767	-1
1.17133	-1
1.17500	-1
1.17867	-1
1.18233	-1
1.18600	-1
1.18967	-1
1.19333	-1
1.19700	-1
1.20067	-1
1.20433	-1
1.20800	-1
1.21167	-1
1.21533	-1
1.21900	-1
1.22267	-2
1.22633	-2
1.23000	-2
1.23367	-2
1.23733	-2
1.24100	-2
1.24467	-2
1.24833	-2
1.25200	-1
1.25567	-1
1.25933	-1
1.26300	-0
1.26667	-0
1.27033	-0
1.27400	0
1.27767	0
1.28133	0
1.28500	0
1.28867	0
1.29233	0
1.29600	0
1.29967	-0
1.30333	-0
1.30700	-0
1.31067	-0
1.31433	-1
1.31800	-1
1.32167	-1
1.32533	-1
1.32900	-1
1.33267	-1
1.33633	-1
1.34000	-1
1.34367	-1
1.34733	-1
1.35100	-1
1.35467	-1
1.35833	-1
1.36200	-1
1.36567	-1
1.36933	-1
1.37300	-1
1.37667	-1
1.38033	-1
1.38400	-1
1.38767	-2
1.39133	-2
1.39500	-2
1.39867	-2
1.40233	-2
1.40600	-1
1.40967	-1
1.41333	-1
1.41700	-1
1.42067	-1
1.42433	-1
1.42800	-1
1.43167	-1
1.43533	-1
1.43900	-2
1.44267	-2
1.44633	-2
1.45000	-2
1.45367	-2
1.45733	-3
1.46100	-3
1.46467	-3
1.46833	-3
1.47200	-3
1.47567	-3
1.47933	-2
1.48300	-2
1.48667	-1
1.49033	-1
1.49400	-1
1.49767	-0
1.50133	-0
1.50500	-0
1.50867	-0
1.51233	-0
1.51600	-1
1.51967	-1
1.52333	-1
1.52700	-0
1.53067	-0
1.53433	-0
1.53800	-0
1.54167	-0
1.54533	-0
1.54900	-0
1.55267	-0
1.55633	-0
1.56000	-0
1.56367	-1
1.56733	-1
1.57100	-1
1.57467	-2
1.57833	-2
1.58200	-2
1.58567	-2
1.58933	-3
1.59300	-3
1.59667	-4
1.60033	-5
1.60400	-6
1.60767	-7
1.61133	-8
1.61500	-10
1.61867	-12
1.62233	-14
1.62600	-16
1.62967	-19
1.63333	-22
1.63700	-25
1.64067	-28
1.64433	-32
1.64800	-35
1.65167	-39
1.65533	-43
1.65900	-46
1.66267	-50
1.66633	-54
1.67000	-58
1.67367	-63
1.67733	-67
1.68100	-72
1.68467	-77
1.68833	-82
1.69200	-86
1.69567	-90
1.69933	-94
1.70300	-97
1.70667	-99
1.71033	-102
1.71400	-103
1.71767	-105
1.72133	-106
1.72500	-107
1.72867	-107
1.73233	-108
1.73600	-109
1.73967	-110
1.74333	-110
1.74700	-111
1.75067	-112
1.75433	-112
1.75800	-112
1.76167	-112
1.76533	-112
1.76900	-111
1.77267	-111
1.77633	-111
1.78000	-111
1.78367	-112
1.78733	-113
1.79100	-114
1.79467	-114
1.79833	-115
1.80200	-116
1.80567	-117
1.80933	-118
1.81300	-118
1.81667	-118
1.82033	-118
1.82400	-118
1.82767	-118
1.83133	-117
1.83500	-117
1.83867	-117
1.84233	-117
1.84600	-117
1.84967	-117
1.85333	-117
1.85700	-117
1.86067	-117
1.86433	-117
1.86800	-117
1.87167	-117
1.87533	-117
1.87900	-117
1.88267	-117
1.88633	-117
1.89000	-117
1.89367	-117
1.89733	-117
1.90100	-116
1.90467	-116
1.90833	-116
1.91200	-115
1.91567	-115
1.91933	-115
1.92300	-115
1.92667	-115
1.93033	-115
1.93400	-115
1.93767	-114
1.94133	-114
1.94500	-114
1.94867	-113
1.95233	-113
1.95600	-113
1.95967	-113
1.96333	-112
1.96700	-112
1.97067	-112
1.97433	-112
1.97800	-111
1.98167	-111
1.98533	-110
1.98900	-110
1.99267	-110
1.99633	-110
2.00000	-110
2.00367	-110
2.00733	-110
2.01100	-110
2.01467	-110
2.01833	-110
2.02200	-110
2.02567	-110
2.02933	-110
2.03300	-109
2.03667	-109
2.04033	-108
2.04400	-107
2.04767	-107
2.05133	-106
2.05500	-106
2.05867	-106
2.06233	-106
2.06600	-106
2.06967	-105
2.07333	-104
2.07700	-104
2.08067	-104
2.08433	-104
2.08800	-104
2.09167	-104
2.09533	-104
2.09900	-104
2.10267	-104
2.10633	-103
2.11000	-103
2.11367	-102
2.11733	-101
2.12100	-101
2.12467	-100
2.12833	-99
2.13200	-99
2.13567	-99
2.13933	-98
2.14300	-98
2.14667	-97
2.15033	-96
2.15400	-96
2.15767	-95
2.16133	-94
2.16500	-94
2.16867	-93
2.17233	-94
2.17600	-94
2.17967	-94
2.18333	-95
2.18700	-96
2.19067	-97
2.19433	-98
2.19800	-99
2.20167	-99
2.20533	-98
2.20900	-98
2.21267	-97
2.21633	-96
2.22000	-95
2.22367	-94
2.22733	-93
2.23100	-93
2.23467	-92
2.23833	-92
2.24200	-91
2.24567	-91
2.24933	-90
2.25300	-90
2.25667	-89
2.26033	-89
2.26400	-88
2.26767	-88
2.27133	-88
2.27500	-88
2.27867	-88
2.28233	-88
2.28600	-88
2.28967	-88
2.29333	-87
2.29700	-87
2.30067	-86
2.30433	-86
2.30800	-85
2.31167	-85
2.31533	-86
2.31900	-86
2.32267	-86
2.32633	-86
2.33000	-86
2.33367	-86
2.33733	-85
2.34100	-85
2.34467	-84
2.34833	-83
2.35200	-82
2.35567	-81
2.35933	-80
2.36300	-78
2.36667	-76
2.37033	-74
2.37400	-72
2.37767	-69
2.38133	-66
2.38500	-63
2.38867	-60
2.39233	-56
2.39600	-52
2.39967	-49
2.40333	-45
2.40700	-41
2.41067	-37
2.41433	-34
2.41800	-30
2.42167	-27
2.42533	-25
2.42900	-22
2.43267	-19
2.43633	-17
2.44000	-15
2.44367	-13
2.44733	-11
2.45100	-9
2.45467	-7
2.45833	-5
2.46200	-4
2.46567	-2
2.46933	-1
2.47300	0
2.47667	1
2.48033	2
2.48400	3
2.48767	4
2.49133	5
2.49500	6
2.49867	7
2.50233	9
2.50600	10
2.50967	10
2.51333	11
2.51700	11
2.52067	12
2.52433	12
2.52800	13
2.53167	13
2.53533	13
2.53900	14
2.54267	14
2.54633	15
2.55000	16
2.55367	16
2.55733	16
2.56100	17
2.56467	17
2.56833	18
2.57200	18
2.57567	18
2.57933	18
2.58300	17
2.58667	17
2.59033	17
2.59400	17
2.59767	17
2.60133	17
2.60500	17
2.60867	17
2.61233	17
2.61600	17
2.61967	18
2.62333	18
2.62700	18
2.63067	18
2.63433	19
2.63800	19
2.64167	19
2.64533	19
2.64900	19
2.65267	20
2.65633	20
2.66000	20
2.66367	21
2.66733	21
2.67100	22
2.67467	22
2.67833	22
2.68200	22
2.68567	23
2.68933	23
2.69300	23
2.69667	23
2.70033	22
2.70400	23
2.70767	23
2.71133	23
2.71500	23
2.71867	24
2.72233	24
2.72600	24
2.72967	25
2.73333	25
2.73700	25
2.74067	26
2.74433	26
2.74800	26
2.75167	26
2.75533	26
2.75900	26
2.76267	26
2.76633	25
2.77000	25
2.77367	25
2.77733	25
2.78100	25
2.78467	25
2.78833	25
2.79200	25
2.79567	26
2.79933	26
2.80300	27
2.80667	27
2.81033	27
2.81400	27
2.81767	27
2.82133	27
2.82500	27
2.82867	27
2.83233	28
2.83600	28
2.83967	29
2.84333	29
2.84700	29
2.85067	29
2.85433	29
2.85800	28
2.86167	26
2.86533	23
2.86900	18
2.87267	10
2.87633	-0
2.88000	-14
2.88367	-32
2.88733	-54
2.89100	-80
2.89467	-109
2.89833	-143
2.90200	-180
2.90567	-220
2.90933	-262
2.91300	-308
2.91667	-355
2.92033	-404
2.92400	-454
2.92767	-504
2.93133	-555
2.93500	-605
2.93867	-656
2.94233	-706
2.94600	-755
2.94967	-805
2.95333	-856
2.95700	-912
2.96067	-972
2.96433	-1030
2.96800	-1074
2.97167	-1095
2.97533	-1090
2.97900	-1060
2.98267	-1009
2.98633	-943
2.99000	-868
2.99367	-788
2.99733	-708
3.00100	-630
3.00467	-555
3.00833	-487
3.01200	-424
3.01567	-367
3.01933	-317
3.02300	-272
3.02667	-233
3.03033	-198
3.03400	-168
3.03767	-142
3.04133	-119
3.04500	-100
3.04867	-84
3.05233	-69
3.05600	-57
3.05967	-47
3.06333	-37
3.06700	-29
3.07067	-23
3.07433	-17
3.07800	-12
3.08167	-8
3.08533	-4
3.08900	-1
3.09267	1
3.09633	3
3.10000	5
3.10367	6
3.10733	8
3.11100	9
3.11467	10
3.11833	11
3.12200	12
3.12567	13
3.12933	14
3.13300	15
3.13667	16
3.14033	16
3.14400	17
3.14767	17
3.15133	17
3.15500	18
3.15867	18
3.16233	18
3.16600	19
3.16967	19
3.17333	19
3.17700	20
3.18067	20
3.18433	20
3.18800	21
3.19167	21
3.19533	21
3.19900	22
3.20267	22
3.20633	22
3.21000	22
3.21367	22
3.21733	22
3.22100	22
3.22467	22
3.22833	22
3.23200	22
3.23567	22
3.23933	22
3.24300	23
3.24667	23
3.25033	23
3.25400	23
3.25767	23
3.26133	23
3.26500	23
3.26867	24
3.27233	24
3.27600	24
3.27967	24
3.28333	24
3.28700	24
3.29067	25
3.29433	24
3.29800	24
3.30167	24
3.30533	24
3.30900	24
3.31267	24
3.31633	24
3.32000	24
3.32367	24
3.32733	24
3.33100	24
3.33467	24
3.33833	24
3.34200	24
3.34567	24
3.34933	24
3.35300	24
3.35667	24
3.36033	24
3.36400	24
3.36767	25
3.37133	25
3.37500	26
3.37867	26
3.38233	27
3.38600	27
3.38967	28
3.39333	28
3.39700	28
3.40067	28
3.40433	28
3.40800	29
3.41167	29
3.41533	29
3.41900	29
3.42267	29
3.42633	29
3.43000	29
3.43367	29
3.43733	29
3.44100	29
3.44467	30
3.44833	30
3.45200	30
3.45567	30
3.45933	30
3.46300	30
3.46667	30
3.47033	30
3.47400	30
3.47767	30
3.48133	30
3.48500	30
3.48867	30
3.49233	30
3.49600	30
3.49967	30
3.50333	30
3.50700	30
3.51067	30
3.51433	30
3.51800	30
3.52167	29
3.52533	29
3.52900	29
3.53267	29
3.53633	29
3.54000	29
3.54367	29
3.54733	29
3.55100	29
3.55467	28
3.55833	28
3.56200	28
3.56567	28
3.56933	28
3.57300	28
3.57667	27
3.58033	27
3.58400	27
3.58767	27
3.59133	27
3.59500	27
3.59867	27
3.60233	27
3.60600	27
3.60967	27
3.61333	27
3.61700	27
3.62067	27
3.62433	27
3.62800	27
3.63167	27
3.63533	27
3.63900	27
3.64267	27
3.64633	27
3.65000	27
3.65367	27
3.65733	27
3.66100	28
3.66467	28
3.66833	28
3.67200	28
3.67567	28
3.67933	28
3.68300	28
3.68667	28
3.69033	28
3.69400	28
3.69767	27
3.70133	27
3.70500	27
3.70867	27
3.71233	27
3.71600	27
3.71967	27
3.72333	27
3.72700	28
3.73067	28
3.73433	27
3.73800	27
3.74167	27
3.74533	27
3.74900	27
3.75267	27
3.75633	27
3.76000	27
3.76367	27
3.76733	27
3.77100	27
3.77467	27
3.77833	27
3.78200	27
3.78567	27
3.78933	27
3.79300	27
3.79667	27
3.80033	27
3.80400	27
3.80767	27
3.81133	27
3.81500	27
3.81867	27
3.82233	27
3.82600	27
3.82967	26
3.83333	26
3.83700	26
3.84067	26
3.84433	26
3.84800	26
3.85167	26
3.85533	26
3.85900	26
3.86267	27
3.86633	27
3.87000	27
3.87367	27
3.87733	27
3.88100	27
3.88467	27
3.88833	27
3.89200	27
3.89567	27
3.89933	27
3.90300	27
3.90667	28
3.91033	28
3.91400	28
3.91767	28
3.92133	28
3.92500	28
3.92867	28
3.93233	27
3.93600	27
3.93967	27
3.94333	27
3.94700	27
3.95067	27
3.95433	27
3.95800	27
3.96167	27
3.96533	27
3.96900	27
3.97267	27
3.97633	27
3.98000	27
3.98367	27
3.98733	27
3.99100	27
3.99467	27
3.99833	27

[Chromatogram (Ch3)]
Interval(msec)	220
# of Points	1091
Start Time(min)	0.002
End Time(min)	3.998
R.Time (min)	Intensity
0.00167	-0
0.00533	-0
0.00900	-0
0.01267	1
0.01633	2
0.02000	3
0.02367	1
0.02733	2
0.03100	3
0.03467	5
0.03833	5
0.04200	4
0.04567	5
0.04933	5
0.05300	6
0.05667	6
0.06033	4
0.06400	4
0.06767	4
0.07133	4
0.07500	1
0.07867	-2
0.08233	-3
0.08600	-2
0.08967	-2
0.09333	-2
0.09700	1
0.10067	5
0.10433	9
0.10800	12
0.11167	13
0.11533	12
0.11900	13
0.12267	12
0.12633	10
0.13000	12
0.13367	12
0.13733	12
0.14100	10
0.14467	10
0.14833	9
0.15200	9
0.15567	9
0.15933	9
0.16300	11
0.16667	12
0.17033	11
0.17400	9
0.17767	6
0.18133	5
0.18500	7
0.18867	10
0.19233	11
0.19600	11
0.19967	8
0.20333	6
0.20700	5
0.21067	8
0.21433	10
0.21800	12
0.22167	13
0.22533	16
0.22900	17
0.23267	15
0.23633	13
0.24000	13
0.24367	15
0.24733	18
0.25100	19
0.25467	19
0.25833	18
0.26200	17
0.26567	18
0.26933	18
0.27300	16
0.27667	16
0.28033	16
0.28400	16
0.28767	17
0.29133	16
0.29500	15
0.29867	15
0.30233	14
0.30600	15
0.30967	19
0.31333	21
0.31700	22
0.32067	21
0.32433	18
0.32800	14
0.33167	12
0.33533	12
0.33900	12
0.34267	13
0.34633	14
0.35000	15
0.35367	15
0.35733	14
0.36100	15
0.36467	15
0.36833	16
0.37200	17
0.37567	18
0.37933	20
0.38300	22
0.38667	22
0.39033	21
0.39400	18
0.39767	17
0.40133	16
0.40500	15
0.40867	17
0.41233	19
0.41600	19
0.41967	19
0.42333	18
0.42700	18
0.43067	19
0.43433	20
0.43800	21
0.44167	21
0.44533	21
0.44900	22
0.45267	22
0.45633	22
0.46000	25
0.46367	25
0.46733	23
0.47100	23
0.47467	21
0.47833	20
0.48200	20
0.48567	20
0.48933	18
0.49300	16
0.49667	15
0.50033	15
0.50400	16
0.50767	20
0.51133	23
0.51500	22
0.51867	22
0.52233	21
0.52600	20
0.52967	19
0.53333	18
0.53700	16
0.54067	15
0.54433	14
0.54800	15
0.55167	18
0.55533	19
0.55900	21
0.56267	23
0.56633	24
0.57000	24
0.57367	23
0.57733	22
0.58100	23
0.58467	23
0.58833	22
0.59200	20
0.59567	20
0.59933	21
0.60300	19
0.60667	17
0.61033	16
0.61400	15
0.61767	16
0.62133	18
0.62500	20
0.62867	20
0.63233	21
0.63600	20
0.63967	19
0.64333	20
0.64700	21
0.65067	19
0.65433	17
0.65800	18
0.66167	21
0.66533	23
0.66900	24
0.67267	24
0.67633	24
0.68000	23
0.68367	24
0.68733	25
0.69100	26
0.69467	27
0.69833	26
0.70200	24
0.70567	23
0.70933	23
0.71300	23
0.71667	23
0.72033	23
0.72400	23
0.72767	22
0.73133	19
0.73500	18
0.73867	20
0.74233	19
0.74600	18
0.74967	20
0.75333	21
0.75700	22
0.76067	24
0.76433	24
0.76800	24
0.77167	25
0.77533	26
0.77900	25
0.78267	23
0.78633	23
0.79000	22
0.79367	21
0.79733	21
0.80100	23
0.80467	22
0.80833	22
0.81200	22
0.81567	23
0.81933	21
0.82300	19
0.82667	19
0.83033	18
0.83400	20
0.83767	21
0.84133	20
0.84500	19
0.84867	20
0.85233	19
0.85600	19
0.85967	19
0.86333	19
0.86700	19
0.87067	18
0.87433	19
0.87800	20
0.88167	21
0.88533	19
0.88900	19
0.89267	18
0.89633	16
0.90000	16
0.90367	18
0.90733	19
0.91100	16
0.91467	15
0.91833	17
0.92200	18
0.92567	19
0.92933	22
0.93300	23
0.93667	22
0.94033	24
0.94400	22
0.94767	21
0.95133	20
0.95500	18
0.95867	17
0.96233	17
0.96600	17
0.96967	16
0.97333	18
0.97700	18
0.98067	19
0.98433	20
0.98800	21
0.99167	21
0.99533	19
0.99900	18
1.00267	17
1.00633	19
1.01000	20
1.01367	20
1.01733	18
1.02100	17
1.02467	18
1.02833	21
1.03200	22
1.03567	21
1.03933	20
1.04300	18
1.04667	17
1.05033	18
1.05400	19
1.05767	19
1.06133	19
1.06500	20
1.06867	22
1.07233	23
1.07600	22
1.07967	21
1.08333	21
1.08700	21
1.09067	21
1.09433	19
1.09800	18
1.10167	17
1.10533	17
1.10900	17
1.11267	21
1.11633	23
1.12000	23
1.12367	21
1.12733	22
1.13100	21
1.13467	22
1.13833	22
1.14200	21
1.14567	23
1.14933	23
1.15300	24
1.15667	25
1.16033	25
1.16400	23
1.16767	21
1.17133	18
1.17500	17
1.17867	16
1.18233	14
1.18600	14
1.18967	15
1.19333	16
1.19700	18
1.20067	22
1.20433	23
1.20800	23
1.21167	20
1.21533	19
1.21900	20
1.22267	20
1.22633	21
1.23000	20
1.23367	19
1.23733	18
1.24100	18
1.24467	18
1.24833	19
1.25200	18
1.25567	18
1.25933	19
1.26300	20
1.26667	17
1.27033	14
1.27400	13
1.27767	14
1.28133	16
1.28500	17
1.28867	18
1.29233	18
1.29600	17
1.29967	13
1.30333	12
1.30700	12
1.31067	12
1.31433	11
1.31800	14
1.32167	17
1.32533	18
1.32900	16
1.33267	16
1.33633	16
1.34000	15
1.34367	16
1.34733	18
1.35100	20
1.35467	20
1.35833	19
1.36200	15
1.36567	11
1.36933	11
1.37300	10
1.37667	10
1.38033	12
1.38400	15
1.38767	17
1.39133	17
1.39500	16
1.39867	17
1.40233	17
1.40600	18
1.40967	19
1.41333	17
1.41700	16
1.42067	15
1.42433	15
1.42800	14
1.43167	12
1.43533	11
1.43900	11
1.44267	10
1.44633	12
1.45000	11
1.45367	12
1.45733	13
1.46100	12
1.46467	12
1.46833	12
1.47200	11
1.47567	13
1.47933	16
1.48300	15
1.48667	13
1.49033	13
1.49400	12
1.49767	15
1.50133	17
1.50500	18
1.50867	17
1.51233	15
1.51600	14
1.51967	14
1.52333	15
1.52700	16
1.53067	17
1.53433	18
1.53800	18
1.54167	16
1.54533	14
1.54900	14
1.55267	13
1.55633	14
1.56000	16
1.56367	18
1.56733	18
1.57100	16
1.57467	14
1.57833	13
1.58200	11
1.58567	10
1.58933	9
1.59300	7
1.59667	6
1.60033	7
1.60400	8
1.60767	8
1.61133	10
1.61500	11
1.61867	11
1.62233	10
1.62600	13
1.62967	13
1.63333	14
1.63700	14
1.64067	14
1.64433	16
1.64800	20
1.65167	22
1.65533	19
1.65900	16
1.66267	16
1.66633	18
1.67000	18
1.67367	18
1.67733	20
1.68100	21
1.68467	20
1.68833	19
1.69200	20
1.69567	22
1.69933	23
1.70300	24
1.70667	24
1.71033	26
1.71400	28
1.71767	29
1.72133	26
1.72500	24
1.72867	22
1.73233	22
1.73600	25
1.73967	27
1.74333	27
1.74700	23
1.75067	22
1.75433	24
1.75800	27
1.76167	31
1.76533	33
1.76900	35
1.77267	35
1.77633	34
1.78000	34
1.78367	35
1.78733	35
1.79100	35
1.79467	37
1.79833	38
1.80200	38
1.80567	39
1.80933	40
1.81300	39
1.81667	37
1.82033	36
1.82400	34
1.82767	32
1.83133	32
1.83500	34
1.83867	37
1.84233	38
1.84600	38
1.84967	39
1.85333	39
1.85700	39
1.86067	40
1.86433	42
1.86800	43
1.87167	42
1.87533	41
1.87900	41
1.88267	40
1.88633	42
1.89000	43
1.89367	43
1.89733	47
1.90100	49
1.90467	50
1.90833	50
1.91200	49
1.91567	50
1.91933	50
1.92300	52
1.92667	54
1.93033	53
1.93400	52
1.93767	54
1.94133	56
1.94500	56
1.94867	56
1.95233	57
1.95600	57
1.95967	59
1.96333	59
1.96700	56
1.97067	54
1.97433	51
1.97800	52
1.98167	54
1.98533	56
1.98900	58
1.99267	60
1.99633	58
2.00000	58
2.00367	59
2.00733	59
2.01100	60
2.01467	60
2.01833	60
2.02200	59
2.02567	60
2.02933	64
2.03300	66
2.03667	67
2.04033	68
2.04400	68
2.04767	68
2.05133	68
2.05500	69
2.05867	70
2.06233	70
2.06600	68
2.06967	70
2.07333	71
2.07700	73
2.08067	76
2.08433	80
2.08800	81
2.09167	80
2.09533	79
2.09900	80
2.10267	81
2.10633	83
2.11000	86
2.11367	86
2.11733	86
2.12100	86
2.12467	85
2.12833	84
2.13200	84
2.13567	87
2.13933	91
2.14300	93
2.14667	92
2.15033	94
2.15400	95
2.15767	95
2.16133	96
2.16500	96
2.16867	97
2.17233	97
2.17600	99
2.17967	101
2.18333	103
2.18700	103
2.19067	104
2.19433	106
2.19800	111
2.20167	114
2.20533	114
2.20900	111
2.21267	111
2.21633	111
2.22000	111
2.22367	111
2.22733	114
2.23100	115
2.23467	116
2.23833	114
2.24200	113
2.24567	114
2.24933	114
2.25300	114
2.25667	114
2.26033	115
2.26400	116
2.26767	117
2.27133	118
2.27500	121
2.27867	125
2.28233	125
2.28600	125
2.28967	126
2.29333	124
2.29700	125
2.30067	127
2.30433	128
2.30800	128
2.31167	127
2.31533	124
2.31900	126
2.32267	130
2.32633	135
2.33000	138
2.33367	139
2.33733	140
2.34100	141
2.34467	142
2.34833	142
2.35200	141
2.35567	141
2.35933	143
2.36300	145
2.36667	148
2.37033	150
2.37400	150
2.37767	149
2.38133	145
2.38500	144
2.38867	142
2.39233	144
2.39600	148
2.39967	154
2.40333	158
2.40700	160
2.41067	161
2.41433	161
2.41800	163
2.42167	166
2.42533	169
2.42900	171
2.43267	171
2.43633	172
2.44000	174
2.44367	198
2.44733	262
2.45100	336
2.45467	392
2.45833	410
2.46200	400
2.46567	387
2.46933	379
2.47300	367
2.47667	347
2.48033	321
2.48400	291
2.48767	265
2.49133	246
2.49500	235
2.49867	231
2.50233	230
2.50600	232
2.50967	238
2.51333	246
2.51700	249
2.52067	243
2.52433	233
2.52800	222
2.53167	207
2.53533	190
2.53900	174
2.54267	161
2.54633	150
2.55000	142
2.55367	138
2.55733	133
2.56100	129
2.56467	128
2.56833	128
2.57200	127
2.57567	129
2.57933	134
2.58300	138
2.58667	143
2.59033	150
2.59400	156
2.59767	160
2.60133	165
2.60500	171
2.60867	172
2.61233	167
2.61600	154
2.61967	134
2.62333	105
2.62700	65
2.63067	22
2.63433	-24
2.63800	-69
2.64167	-110
2.64533	-142
2.64900	-168
2.65267	-190
2.65633	-204
2.66000	-212
2.66367	-217
2.66733	-218
2.67100	-216
2.67467	-213
2.67833	-208
2.68200	-198
2.68567	-188
2.68933	-177
2.69300	-166
2.69667	-155
2.70033	-145
2.70400	-133
2.70767	-122
2.71133	-115
2.71500	-106
2.71867	-97
2.72233	-89
2.72600	-81
2.72967	-73
2.73333	-64
2.73700	-57
2.74067	-51
2.74433	-43
2.74800	-36
2.75167	-28
2.75533	-22
2.75900	-17
2.76267	-13
2.76633	-8
2.77000	-4
2.77367	0
2.77733	5
2.78100	10
2.78467	17
2.78833	24
2.79200	32
2.79567	39
2.79933	46
2.80300	54
2.80667	61
2.81033	66
2.81400	70
2.81767	74
2.82133	78
2.82500	80
2.82867	86
2.83233	96
2.83600	112
2.83967	143
2.84333	207
2.84700	325
2.85067	522
2.85433	822
2.85800	1236
2.86167	1763
2.86533	2378
2.86900	3047
2.87267	3716
2.87633	4327
2.88000	4831
2.88367	5193
2.88733	5394
2.89100	5435
2.89467	5334
2.89833	5115
2.90200	4810
2.90567	4451
2.90933	4066
2.91300	3676
2.91667	3294
2.92033	2934
2.92400	2599
2.92767	2289
2.93133	2009
2.93500	1758
2.93867	1536
2.94233	1341
2.94600	1170
2.94967	1024
2.95333	896
2.95700	783
2.96067	684
2.96433	600
2.96800	527
2.97167	464
2.97533	412
2.97900	364
2.98267	325
2.98633	294
2.99000	267
2.99367	243
2.99733	222
3.00100	203
3.00467	187
3.00833	175
3.01200	163
3.01567	151
3.01933	142
3.02300	133
3.02667	125
3.03033	120
3.03400	116
3.03767	113
3.04133	112
3.04500	113
3.04867	113
3.05233	112
3.05600	111
3.05967	106
3.06333	102
3.06700	101
3.07067	103
3.07433	104
3.07800	106
3.08167	106
3.08533	106
3.08900	108
3.09267	109
3.09633	108
3.10000	108
3.10367	109
3.10733	109
3.11100	107
3.11467	106
3.11833	106
3.12200	110
3.12567	111
3.12933	111
3.13300	111
3.13667	111
3.14033	110
3.14400	110
3.14767	110
3.15133	109
3.15500	112
3.15867	114
3.16233	115
3.16600	118
3.16967	120
3.17333	119
3.17700	119
3.18067	118
3.18433	119
3.18800	120
3.19167	120
3.19533	122
3.19900	126
3.20267	129
3.20633	130
3.21000	132
3.21367	134
3.21733	135
3.22100	136
3.22467	138
3.22833	141
3.23200	141
3.23567	143
3.23933	145
3.24300	145
3.24667	146
3.25033	149
3.25400	151
3.25767	155
3.26133	157
3.26500	157
3.26867	156
3.27233	156
3.27600	159
3.27967	162
3.28333	163
3.28700	162
3.29067	161
3.29433	161
3.29800	163
3.30167	163
3.30533	162
3.30900	163
3.31267	165
3.31633	166
3.32000	168
3.32367	169
3.32733	171
3.33100	170
3.33467	169
3.33833	170
3.34200	169
3.34567	167
3.34933	165
3.35300	164
3.35667	166
3.36033	168
3.36400	166
3.36767	165
3.37133	165
3.37500	165
3.37867	163
3.38233	161
3.38600	160
3.38967	157
3.39333	156
3.39700	156
3.40067	155
3.40433	153
3.40800	150
3.41167	148
3.41533	147
3.41900	145
3.42267	144
3.42633	141
3.43000	138
3.43367	137
3.43733	135
3.44100	134
3.44467	132
3.44833	131
3.45200	131
3.45567	130
3.45933	130
3.46300	129
3.46667	126
3.47033	124
3.47400	120
3.47767	119
3.48133	117
3.48500	114
3.48867	112
3.49233	112
3.49600	110
3.49967	109
3.50333	110
3.50700	110
3.51067	111
3.51433	112
3.51800	109
3.52167	106
3.52533	104
3.52900	101
3.53267	99
3.53633	97
3.54000	96
3.54367	95
3.54733	95
3.55100	93
3.55467	90
3.55833	87
3.56200	85
3.56567	82
3.56933	82
3.57300	81
3.57667	79
3.58033	79
3.58400	79
3.58767	77
3.59133	74
3.59500	71
3.59867	69
3.60233	67
3.60600	65
3.60967	63
3.61333	61
3.61700	61
3.62067	59
3.62433	57
3.62800	56
3.63167	56
3.63533	55
3.63900	52
3.64267	51
3.64633	51
3.65000	49
3.65367	45
3.65733	41
3.66100	39
3.66467	37
3.66833	36
3.67200	35
3.67567	35
3.67933	35
3.68300	33
3.68667	31
3.69033	29
3.69400	25
3.69767	22
3.70133	20
3.70500	20
3.70867	18
3.71233	15
3.71600	14
3.71967	13
3.72333	9
3.72700	8
3.73067	8
3.73433	8
3.73800	7
3.74167	6
3.74533	5
3.74900	3
3.75267	1
3.75633	1
3.76000	-1
3.76367	-4
3.76733	-6
3.77100	-8
3.77467	-11
3.77833	-14
3.78200	-16
3.78567	-20
3.78933	-23
3.79300	-22
3.79667	-21
3.80033	-21
3.80400	-22
3.80767	-25
3.81133	-29
3.81500	-33
3.81867	-38
3.82233	-41
3.82600	-43
3.82967	-42
3.83333	-41
3.83700	-40
3.84067	-41
3.84433	-43
3.84800	-44
3.85167	-45
3.85533	-47
3.85900	-47
3.86267	-48
3.86633	-50
3.87000	-51
3.87367	-52
3.87733	-52
3.88100	-52
3.88467	-53
3.88833	-54
3.89200	-57
3.89567	-57
3.89933	-59
3.90300	-62
3.90667	-63
3.91033	-63
3.91400	-62
3.91767	-63
3.92133	-64
3.92500	-67
3.92867	-69
3.93233	-70
3.93600	-71
3.93967	-73
3.94333	-74
3.94700	-77
3.95067	-78
3.95433	-77
3.95800	-74
3.96167	-75
3.96533	-78
3.96900	-81
3.97267	-82
3.97633	-85
3.98000	-87
3.98367	-89
3.98733	-91
3.99100	-90
3.99467	-88
3.99833	-85

[Status Trace (Column Oven Temperature)]
Interval(msec)	1000
# of Points	240
Start Time(min)	0.007
End Time(min)	3.991
Intensity Units	
Intensity Multiplier	1
R.Time (min)	Intensity
0.00745	35.02
0.02412	35.03
0.04078	35.04
0.05745	35.05
0.07412	35.04
0.09078	35.04
0.10745	35.03
0.12412	35.03
0.14078	35.02
0.15745	35.02
0.17412	35.02
0.19078	35.00
0.20745	35.00
0.22412	35.01
0.24078	35.01
0.25745	35.01
0.27412	35.01
0.29078	35.01
0.30745	35.00
0.32412	34.99
0.34078	34.99
0.35745	35.00
0.37412	35.00
0.39078	35.00
0.40745	34.99
0.42412	34.99
0.44078	35.00
0.45745	35.00
0.47412	35.00
0.49078	35.00
0.50745	34.99
0.52412	34.99
0.54078	34.98
0.55745	34.97
0.57412	34.98
0.59078	34.98
0.60745	34.99
0.62412	35.01
0.64078	35.00
0.65745	35.01
0.67412	35.01
0.69078	35.00
0.70745	35.00
0.72412	35.01
0.74078	35.01
0.75745	35.00
0.77412	35.00
0.79078	34.99
0.80745	34.99
0.82412	34.99
0.84078	35.00
0.85745	35.01
0.87412	35.02
0.89078	35.02
0.90745	35.02
0.92412	35.02
0.94078	35.01
0.95745	35.01
0.97412	35.01
0.99078	35.01
1.00745	35.00
1.02412	34.99
1.04078	34.97
1.05745	34.97
1.07412	34.97
1.09078	34.97
1.10745	34.97
1.12412	34.98
1.14078	34.98
1.15745	34.99
1.17412	34.99
1.19078	34.99
1.20745	34.99
1.22412	35.00
1.24078	35.00
1.25745	35.01
1.27412	35.00
1.29078	35.00
1.30745	35.00
1.32412	35.00
1.34078	35.00
1.35745	35.00
1.37412	35.00
1.39078	34.99
1.40745	34.98
1.42412	34.99
1.44078	34.99
1.45745	35.00
1.47412	35.01
1.49078	35.00
1.50745	35.00
1.52412	35.00
1.54078	35.00
1.55745	34.99
1.57412	35.00
1.59078	35.01
1.60745	35.07
1.62412	35.18
1.64078	35.36
1.65745	35.59
1.67412	35.93
1.69078	36.29
1.70745	36.65
1.72412	37.00
1.74078	37.34
1.75745	37.67
1.77412	37.99
1.79078	38.33
1.80745	38.67
1.82412	38.98
1.84078	39.30
1.85745	39.64
1.87412	39.96
1.89078	40.29
1.90745	40.61
1.92412	40.94
1.94078	41.28
1.95745	41.61
1.97412	41.93
1.99078	42.24
2.00745	42.58
2.02412	42.90
2.04078	43.21
2.05745	43.54
2.07412	43.86
2.09078	44.19
2.10745	44.52
2.12412	44.84
2.14078	45.16
2.15745	45.47
2.17412	45.81
2.19078	46.19
2.20745	46.51
2.22412	46.83
2.24078	47.16
2.25745	47.48
2.27412	47.81
2.29078	48.14
2.30745	48.47
2.32412	48.84
2.34078	49.15
2.35745	49.43
2.37412	49.62
2.39078	49.67
2.40745	49.66
2.42412	49.67
2.44078	49.67
2.45745	49.69
2.47412	49.69
2.49078	49.70
2.50745	49.71
2.52412	49.72
2.54078	49.74
2.55745	49.74
2.57412	49.76
2.59078	49.78
2.60745	49.79
2.62412	49.80
2.64078	49.81
2.65745	49.83
2.67412	49.83
2.69078	49.84
2.70745	49.85
2.72412	49.85
2.74078	49.84
2.75745	49.86
2.77412	49.88
2.79078	49.89
2.80745	49.88
2.82412	49.87
2.84078	49.86
2.85745	49.86
2.87412	49.87
2.89078	49.88
2.90745	49.89
2.92412	49.90
2.94078	49.92
2.95745	49.93
2.97412	49.95
2.99078	49.96
3.00745	49.98
3.02412	49.99
3.04078	50.00
3.05745	50.00
3.07412	50.00
3.09078	50.01
3.10745	50.02
3.12412	50.02
3.14078	50.03
3.15745	50.03
3.17412	50.04
3.19078	50.04
3.20745	50.05
3.22412	50.06
3.24078	50.07
3.25745	50.07
3.27412	50.07
3.29078	50.08
3.30745	50.09
3.32412	50.10
3.34078	50.11
3.35745	50.12
3.37412	50.10
3.39078	50.09
3.40745	50.08
3.42412	50.07
3.44078	50.06
3.45745	50.05
3.47412	50.04
3.49078	50.03
3.50745	50.03
3.52412	50.03
3.54078	50.03
3.55745	50.04
3.57412	50.05
3.59078	50.05
3.60745	50.04
3.62412	50.04
3.64078	50.05
3.65745	50.05
3.67412	50.05
3.69078	50.06
3.70745	50.06
3.72412	50.05
3.74078	50.05
3.75745	50.05
3.77412	50.04
3.79078	50.05
3.80745	50.05
3.82412	50.06
3.84078	50.07
3.85745	50.07
3.87412	50.06
3.89078	50.06
3.90745	50.06
3.92412	50.06
3.94078	50.06
3.95745	50.06
3.97412	50.06
3.99078	50.06

[Status Trace (Injection Unit Temperature)]
Interval(msec)	1000
# of Points	240
Start Time(min)	0.007
End Time(min)	3.991
Intensity Units	
Intensity Multiplier	1
R.Time (min)	Intensity
0.00745	99.98
0.02412	99.99
0.04078	99.98
0.05745	99.98
0.07412	99.98
0.09078	99.98
0.10745	99.98
0.12412	99.98
0.14078	99.98
0.15745	99.98
0.17412	99.98
0.19078	99.98
0.20745	99.98
0.22412	99.98
0.24078	99.98
0.25745	99.97
0.27412	99.98
0.29078	99.98
0.30745	99.98
0.32412	99.98
0.34078	99.98
0.35745	99.98
0.37412	99.98
0.39078	99.98
0.40745	99.98
0.42412	99.98
0.44078	99.98
0.45745	99.98
0.47412	99.97
0.49078	99.98
0.50745	99.98
0.52412	99.98
0.54078	99.98
0.55745	99.98
0.57412	99.98
0.59078	99.98
0.60745	99.98
0.62412	99.98
0.64078	99.98
0.65745	99.99
0.67412	99.98
0.69078	99.98
0.70745	99.98
0.72412	99.98
0.74078	99.98
0.75745	99.99
0.77412	99.98
0.79078	99.98
0.80745	99.99
0.82412	99.98
0.84078	99.99
0.85745	99.98
0.87412	99.99
0.89078	99.99
0.90745	99.99
0.92412	99.99
0.94078	99.99
0.95745	99.98
0.97412	99.99
0.99078	99.98
1.00745	99.99
1.02412	99.99
1.04078	99.99
1.05745	99.99
1.07412	99.99
1.09078	99.99
1.10745	99.98
1.12412	99.99
1.14078	99.99
1.15745	99.99
1.17412	99.99
1.19078	99.99
1.20745	99.98
1.22412	99.99
1.24078	99.99
1.25745	99.99
1.27412	99.99
1.29078	99.99
1.30745	99.99
1.32412	99.99
1.34078	99.99
1.35745	99.99
1.37412	99.99
1.39078	99.99
1.40745	99.99
1.42412	99.99
1.44078	99.99
1.45745	99.99
1.47412	99.99
1.49078	99.99
1.50745	99.99
1.52412	99.99
1.54078	99.99
1.55745	99.99
1.57412	99.99
1.59078	99.99
1.60745	100.00
1.62412	99.99
1.64078	99.99
1.65745	99.99
1.67412	99.99
1.69078	99.99
1.70745	99.99
1.72412	99.99
1.74078	99.99
1.75745	99.99
1.77412	99.99
1.79078	99.98
1.80745	99.99
1.82412	99.99
1.84078	99.99
1.85745	99.99
1.87412	99.99
1.89078	99.98
1.90745	99.99
1.92412	99.98
1.94078	99.98
1.95745	99.99
1.97412	99.98
1.99078	99.98
2.00745	99.98
2.02412	99.98
2.04078	99.98
2.05745	99.98
2.07412	99.98
2.09078	99.98
2.10745	99.98
2.12412	99.97
2.14078	99.98
2.15745	99.98
2.17412	99.98
2.19078	99.98
2.20745	99.98
2.22412	99.97
2.24078	99.98
2.25745	99.97
2.27412	99.97
2.29078	99.98
2.30745	99.97
2.32412	99.97
2.34078	99.98
2.35745	99.97
2.37412	99.97
2.39078	99.97
2.40745	99.97
2.42412	99.97
2.44078	99.97
2.45745	99.98
2.47412	99.98
2.49078	99.98
2.50745	99.98
2.52412	99.98
2.54078	99.98
2.55745	99.98
2.57412	99.98
2.59078	99.98
2.60745	99.98
2.62412	99.98
2.64078	99.99
2.65745	99.99
2.67412	99.99
2.69078	99.99
2.70745	99.99
2.72412	99.99
2.74078	99.99
2.75745	100.00
2.77412	100.00
2.79078	99.99
2.80745	100.00
2.82412	100.00
2.84078	100.00
2.85745	100.00
2.87412	100.00
2.89078	100.00
2.90745	100.00
2.92412	100.01
2.94078	100.01
2.95745	100.01
2.97412	100.01
2.99078	100.01
3.00745	100.01
3.02412	100.01
3.04078	100.01
3.05745	100.02
3.07412	100.02
3.09078	100.02
3.10745	100.02
3.12412	100.02
3.14078	100.02
3.15745	100.02
3.17412	100.02
3.19078	100.02
3.20745	100.02
3.22412	100.03
3.24078	100.03
3.25745	100.03
3.27412	100.03
3.29078	100.03
3.30745	100.03
3.32412	100.03
3.34078	100.03
3.35745	100.03
3.37412	100.03
3.39078	100.03
3.40745	100.03
3.42412	100.03
3.44078	100.04
3.45745	100.03
3.47412	100.03
3.49078	100.03
3.50745	100.04
3.52412	100.04
3.54078	100.04
3.55745	100.03
3.57412	100.04
3.59078	100.03
3.60745	100.04
3.62412	100.04
3.64078	100.04
3.65745	100.04
3.67412	100.04
3.69078	100.04
3.70745	100.04
3.72412	100.04
3.74078	100.04
3.75745	100.04
3.77412	100.04
3.79078	100.04
3.80745	100.04
3.82412	100.04
3.84078	100.04
3.85745	100.05
3.87412	100.05
3.89078	100.04
3.90745	100.04
3.92412	100.05
3.94078	100.05
3.95745	100.05
3.97412	100.05
3.99078	100.05

[Status Trace (Carrier Gas Pressure)]
Interval(msec)	1000
# of Points	240
Start Time(min)	0.007
End Time(min)	3.991
Intensity Units	
Intensity Multiplier	1
R.Time (min)	Intensity
0.00745	58.00
0.02412	55.44
0.04078	56.94
0.05745	59.12
0.07412	59.53
0.09078	58.11
0.10745	57.98
0.12412	58.01
0.14078	58.01
0.15745	58.01
0.17412	58.00
0.19078	58.00
0.20745	58.00
0.22412	58.00
0.24078	58.00
0.25745	58.00
0.27412	58.00
0.29078	58.00
0.30745	58.00
0.32412	58.00
0.34078	58.00
0.35745	58.00
0.37412	58.00
0.39078	58.00
0.40745	58.00
0.42412	58.00
0.44078	58.00
0.45745	58.00
0.47412	58.00
0.49078	58.00
0.50745	58.00
0.52412	58.00
0.54078	58.00
0.55745	58.00
0.57412	58.00
0.59078	58.00
0.60745	58.00
0.62412	58.00
0.64078	58.00
0.65745	58.00
0.67412	58.00
0.69078	58.00
0.70745	58.00
0.72412	58.00
0.74078	58.00
0.75745	58.00
0.77412	58.00
0.79078	58.00
0.80745	58.00
0.82412	58.00
0.84078	58.00
0.85745	58.00
0.87412	58.00
0.89078	58.00
0.90745	58.00
0.92412	58.00
0.94078	58.00
0.95745	58.00
0.97412	58.00
0.99078	58.00
1.00745	58.00
1.02412	58.00
1.04078	58.00
1.05745	58.00
1.07412	58.00
1.09078	58.00
1.10745	58.00
1.12412	58.00
1.14078	58.00
1.15745	58.00
1.17412	58.00
1.19078	58.00
1.20745	58.00
1.22412	58.00
1.24078	58.00
1.25745	58.00
1.27412	58.00
1.29078	58.00
1.30745	58.00
1.32412	58.00
1.34078	58.00
1.35745	58.00
1.37412	58.00
1.39078	58.00
1.40745	58.00
1.42412	58.00
1.44078	58.00
1.45745	58.00
1.47412	58.00
1.49078	58.00
1.50745	58.00
1.52412	58.00
1.54078	58.00
1.55745	58.00
1.57412	58.00
1.59078	58.00
1.60745	58.00
1.62412	58.00
1.64078	58.00
1.65745	58.00
1.67412	58.01
1.69078	58.01
1.70745	58.00
1.72412	58.00
1.74078	58.00
1.75745	58.00
1.77412	58.00
1.79078	58.00
1.80745	58.00
1.82412	58.00
1.84078	58.00
1.85745	58.00
1.87412	58.00
1.89078	58.00
1.90745	58.00
1.92412	58.00
1.94078	58.00
1.95745	58.00
1.97412	58.00
1.99078	58.00
2.00745	58.00
2.02412	58.00
2.04078	58.00
2.05745	58.00
2.07412	58.00
2.09078	58.00
2.10745	58.00
2.12412	58.00
2.14078	58.00
2.15745	58.00
2.17412	58.00
2.19078	58.00
2.20745	58.00
2.22412	58.00
2.24078	58.00
2.25745	58.00
2.27412	58.00
2.29078	58.00
2.30745	58.00
2.32412	58.00
2.34078	58.00
2.35745	58.00
2.37412	58.00
2.39078	57.99
2.40745	57.99
2.42412	58.00
2.44078	58.00
2.45745	58.00
2.47412	58.00
2.49078	58.00
2.50745	58.00
2.52412	57.98
2.54078	58.00
2.55745	58.00
2.57412	58.00
2.59078	58.00
2.60745	58.00
2.62412	58.00
2.64078	58.00
2.65745	58.00
2.67412	58.00
2.69078	58.00
2.70745	58.00
2.72412	58.00
2.74078	58.00
2.75745	58.00
2.77412	58.00
2.79078	58.00
2.80745	58.00
2.82412	58.00
2.84078	58.00
2.85745	58.00
2.87412	58.00
2.89078	58.00
2.90745	58.00
2.92412	58.00
2.94078	58.00
2.95745	58.00
2.97412	58.00
2.99078	58.00
3.00745	58.00
3.02412	58.00
3.04078	58.00
3.05745	58.00
3.07412	58.00
3.09078	58.00
3.10745	58.00
3.12412	58.00
3.14078	58.00
3.15745	58.00
3.17412	58.00
3.19078	58.00
3.20745	58.00
3.22412	58.00
3.24078	58.00
3.25745	58.00
3.27412	58.00
3.29078	58.00
3.30745	58.00
3.32412	58.00
3.34078	58.00
3.35745	58.00
3.37412	58.00
3.39078	58.00
3.40745	58.00
3.42412	58.00
3.44078	58.00
3.45745	58.00
3.47412	58.00
3.49078	58.00
3.50745	58.00
3.52412	58.00
3.54078	58.00
3.55745	58.00
3.57412	58.00
3.59078	58.00
3.60745	58.00
3.62412	58.00
3.64078	58.00
3.65745	58.00
3.67412	58.00
3.69078	58.00
3.70745	58.00
3.72412	58.00
3.74078	58.00
3.75745	58.00
3.77412	58.00
3.79078	58.00
3.80745	58.00
3.82412	58.00
3.84078	58.00
3.85745	58.00
3.87412	58.00
3.89078	58.00
3.90745	58.00
3.92412	58.00
3.94078	58.00
3.95745	58.00
3.97412	58.00
3.99078	58.00

[Status Trace (Carrier Gas Flow)]
Interval(msec)	1000
# of Points	240
Start Time(min)	0.007
End Time(min)	3.991
Intensity Units	
Intensity Multiplier	1
R.Time (min)	Intensity
0.00745	34.52
0.02412	34.53
0.04078	34.53
0.05745	34.55
0.07412	34.49
0.09078	34.52
0.10745	34.52
0.12412	34.52
0.14078	34.52
0.15745	34.52
0.17412	34.52
0.19078	34.52
0.20745	34.52
0.22412	34.52
0.24078	34.52
0.25745	34.52
0.27412	34.52
0.29078	34.52
0.30745	34.52
0.32412	34.52
0.34078	34.52
0.35745	34.52
0.37412	34.52
0.39078	34.52
0.40745	34.52
0.42412	34.52
0.44078	34.52
0.45745	34.52
0.47412	34.52
0.49078	34.52
0.50745	34.52
0.52412	34.52
0.54078	34.52
0.55745	34.52
0.57412	34.52
0.59078	34.52
0.60745	34.52
0.62412	34.52
0.64078	34.52
0.65745	34.52
0.67412	34.52
0.69078	34.52
0.70745	34.52
0.72412	34.52
0.74078	34.52
0.75745	34.52
0.77412	34.52
0.79078	34.52
0.80745	34.52
0.82412	34.52
0.84078	34.52
0.85745	34.52
0.87412	34.52
0.89078	34.52
0.90745	34.52
0.92412	34.52
0.94078	34.52
0.95745	34.52
0.97412	34.52
0.99078	34.52
1.00745	34.52
1.02412	34.52
1.04078	34.52
1.05745	34.52
1.07412	34.52
1.09078	34.52
1.10745	34.52
1.12412	34.52
1.14078	34.52
1.15745	34.52
1.17412	34.52
1.19078	34.52
1.20745	34.52
1.22412	34.52
1.24078	34.52
1.25745	34.52
1.27412	34.52
1.29078	34.52
1.30745	34.52
1.32412	34.52
1.34078	34.52
1.35745	34.52
1.37412	34.52
1.39078	34.52
1.40745	34.52
1.42412	34.52
1.44078	34.52
1.45745	34.52
1.47412	34.52
1.49078	34.52
1.50745	34.52
1.52412	34.52
1.54078	34.52
1.55745	34.52
1.57412	34.52
1.59078	34.52
1.60745	34.52
1.62412	34.52
1.64078	34.52
1.65745	34.52
1.67412	34.53
1.69078	34.52
1.70745	34.52
1.72412	34.52
1.74078	34.52
1.75745	34.52
1.77412	34.52
1.79078	34.51
1.80745	34.52
1.82412	34.52
1.84078	34.52
1.85745	34.52
1.87412	34.52
1.89078	34.52
1.90745	34.50
1.92412	34.52
1.94078	34.52
1.95745	34.52
1.97412	34.52
1.99078	34.52
2.00745	34.52
2.02412	34.52
2.04078	34.52
2.05745	34.53
2.07412	34.52
2.09078	34.52
2.10745	34.52
2.12412	34.52
2.14078	34.52
2.15745	34.52
2.17412	34.52
2.19078	34.52
2.20745	34.52
2.22412	34.52
2.24078	34.52
2.25745	34.52
2.27412	34.52
2.29078	34.52
2.30745	34.52
2.32412	34.52
2.34078	34.52
2.35745	34.52
2.37412	34.52
2.39078	34.52
2.40745	34.53
2.42412	34.52
2.44078	34.52
2.45745	34.52
2.47412	34.51
2.49078	34.53
2.50745	34.34
2.52412	34.52
2.54078	34.52
2.55745	34.52
2.57412	34.52
2.59078	34.52
2.60745	34.52
2.62412	34.52
2.64078	34.52
2.65745	34.52
2.67412	34.52
2.69078	34.51
2.70745	34.51
2.72412	34.52
2.74078	34.53
2.75745	34.52
2.77412	34.52
2.79078	34.52
2.80745	34.52
2.82412	34.53
2.84078	34.52
2.85745	34.51
2.87412	34.51
2.89078	34.52
2.90745	34.53
2.92412	34.52
2.94078	34.51
2.95745	34.52
2.97412	34.52
2.99078	34.52
3.00745	34.52
3.02412	34.52
3.04078	34.52
3.05745	34.52
3.07412	34.52
3.09078	34.52
3.10745	34.52
3.12412	34.52
3.14078	34.52
3.15745	34.52
3.17412	34.52
3.19078	34.52
3.20745	34.52
3.22412	34.52
3.24078	34.52
3.25745	34.52
3.27412	34.52
3.29078	34.52
3.30745	34.52
3.32412	34.52
3.34078	34.52
3.35745	34.52
3.37412	34.53
3.39078	34.52
3.40745	34.52
3.42412	34.52
3.44078	34.52
3.45745	34.52
3.47412	34.52
3.49078	34.52
3.50745	34.52
3.52412	34.52
3.54078	34.52
3.55745	34.52
3.57412	34.51
3.59078	34.52
3.60745	34.52
3.62412	34.51
3.64078	34.52
3.65745	34.52
3.67412	34.52
3.69078	34.52
3.70745	34.52
3.72412	34.52
3.74078	34.52
3.75745	34.52
3.77412	34.51
3.79078	34.52
3.80745	34.52
3.82412	34.52
3.84078	34.52
3.85745	34.52
3.87412	34.52
3.89078	34.52
3.90745	34.52
3.92412	34.52
3.94078	34.52
3.95745	34.52
3.97412	34.52
3.99078	34.52

[Status Trace (Column Flow)]
Interval(msec)	1000
# of Points	240
Start Time(min)	0.007
End Time(min)	3.991
Intensity Units	
Intensity Multiplier	1
R.Time (min)	Intensity
0.00745	5.47
0.02412	5.18
0.04078	5.35
0.05745	5.60
0.07412	5.65
0.09078	5.49
0.10745	5.47
0.12412	5.48
0.14078	5.48
0.15745	5.48
0.17412	5.48
0.19078	5.48
0.20745	5.48
0.22412	5.48
0.24078	5.48
0.25745	5.48
0.27412	5.48
0.29078	5.48
0.30745	5.48
0.32412	5.48
0.34078	5.48
0.35745	5.48
0.37412	5.48
0.39078	5.48
0.40745	5.48
0.42412	5.48
0.44078	5.48
0.45745	5.48
0.47412	5.48
0.49078	5.48
0.50745	5.48
0.52412	5.48
0.54078	5.48
0.55745	5.48
0.57412	5.48
0.59078	5.48
0.60745	5.48
0.62412	5.48
0.64078	5.48
0.65745	5.48
0.67412	5.48
0.69078	5.48
0.70745	5.48
0.72412	5.48
0.74078	5.48
0.75745	5.48
0.77412	5.48
0.79078	5.48
0.80745	5.48
0.82412	5.48
0.84078	5.48
0.85745	5.48
0.87412	5.48
0.89078	5.48
0.90745	5.47
0.92412	5.48
0.94078	5.48
0.95745	5.48
0.97412	5.48
0.99078	5.48
1.00745	5.48
1.02412	5.48
1.04078	5.48
1.05745	5.48
1.07412	5.48
1.09078	5.48
1.10745	5.48
1.12412	5.48
1.14078	5.48
1.15745	5.48
1.17412	5.48
1.19078	5.48
1.20745	5.48
1.22412	5.48
1.24078	5.48
1.25745	5.48
1.27412	5.48
1.29078	5.48
1.30745	5.48
1.32412	5.48
1.34078	5.48
1.35745	5.48
1.37412	5.48
1.39078	5.48
1.40745	5.48
1.42412	5.48
1.44078	5.48
1.45745	5.48
1.47412	5.48
1.49078	5.48
1.50745	5.48
1.52412	5.48
1.54078	5.48
1.55745	5.48
1.57412	5.48
1.59078	5.48
1.60745	5.47
1.62412	5.47
1.64078	5.47
1.65745	5.46
1.67412	5.45
1.69078	5.44
1.70745	5.42
1.72412	5.41
1.74078	5.40
1.75745	5.39
1.77412	5.38
1.79078	5.37
1.80745	5.36
1.82412	5.35
1.84078	5.34
1.85745	5.33
1.87412	5.32
1.89078	5.31
1.90745	5.30
1.92412	5.29
1.94078	5.29
1.95745	5.27
1.97412	5.27
1.99078	5.26
2.00745	5.25
2.02412	5.24
2.04078	5.23
2.05745	5.22
2.07412	5.21
2.09078	5.20
2.10745	5.19
2.12412	5.18
2.14078	5.17
2.15745	5.16
2.17412	5.15
2.19078	5.14
2.20745	5.13
2.22412	5.12
2.24078	5.12
2.25745	5.11
2.27412	5.10
2.29078	5.09
2.30745	5.08
2.32412	5.07
2.34078	5.06
2.35745	5.05
2.37412	5.05
2.39078	5.04
2.40745	5.04
2.42412	5.04
2.44078	5.04
2.45745	5.04
2.47412	5.04
2.49078	5.04
2.50745	5.04
2.52412	5.04
2.54078	5.04
2.55745	5.04
2.57412	5.04
2.59078	5.04
2.60745	5.04
2.62412	5.04
2.64078	5.04
2.65745	5.04
2.67412	5.04
2.69078	5.04
2.70745	5.04
2.72412	5.04
2.74078	5.04
2.75745	5.04
2.77412	5.04
2.79078	5.04
2.80745	5.04
2.82412	5.04
2.84078	5.04
2.85745	5.04
2.87412	5.04
2.89078	5.04
2.90745	5.04
2.92412	5.04
2.94078	5.04
2.95745	5.04
2.97412	5.04
2.99078	5.04
3.00745	5.04
3.02412	5.04
3.04078	5.04
3.05745	5.04
3.07412	5.04
3.09078	5.04
3.10745	5.04
3.12412	5.04
3.14078	5.03
3.15745	5.03
3.17412	5.03
3.19078	5.03
3.20745	5.03
3.22412	5.03
3.24078	5.03
3.25745	5.03
3.27412	5.03
3.29078	5.03
3.30745	5.03
3.32412	5.03
3.34078	5.03
3.35745	5.03
3.37412	5.03
3.39078	5.03
3.40745	5.03
3.42412	5.03
3.44078	5.03
3.45745	5.03
3.47412	5.03
3.49078	5.03
3.50745	5.04
3.52412	5.04
3.54078	5.04
3.55745	5.03
3.57412	5.03
3.59078	5.03
3.60745	5.03
3.62412	5.03
3.64078	5.03
3.65745	5.03
3.67412	5.03
3.69078	5.03
3.70745	5.03
3.72412	5.03
3.74078	5.03
3.75745	5.03
3.77412	5.03
3.79078	5.03
3.80745	5.03
3.82412	5.03
3.84078	5.03
3.85745	5.03
3.87412	5.03
3.89078	5.03
3.90745	5.03
3.92412	5.03
3.94078	5.03
3.95745	5.03
3.97412	5.03
3.99078	5.03

[Status Trace (Linear Velocity)]
Interval(msec)	1000
# of Points	240
Start Time(min)	0.007
End Time(min)	3.991
Intensity Units	
Intensity Multiplier	1
R.Time (min)	Intensity
0.00745	39.00
0.02412	37.32
0.04078	38.31
0.05745	39.73
0.07412	40.00
0.09078	39.07
0.10745	38.99
0.12412	39.01
0.14078	39.01
0.15745	39.01
0.17412	39.01
0.19078	39.01
0.20745	39.01
0.22412	39.01
0.24078	39.01
0.25745	39.01
0.27412	39.01
0.29078	39.01
0.30745	39.01
0.32412	39.01
0.34078	39.01
0.35745	39.01
0.37412	39.01
0.39078	39.01
0.40745	39.01
0.42412	39.01
0.44078	39.01
0.45745	39.01
0.47412	39.01
0.49078	39.01
0.50745	39.01
0.52412	39.01
0.54078	39.01
0.55745	39.01
0.57412	39.01
0.59078	39.01
0.60745	39.01
0.62412	39.01
0.64078	39.01
0.65745	39.01
0.67412	39.00
0.69078	39.01
0.70745	39.01
0.72412	39.01
0.74078	39.00
0.75745	39.01
0.77412	39.01
0.79078	39.01
0.80745	39.01
0.82412	39.01
0.84078	39.01
0.85745	39.00
0.87412	39.00
0.89078	39.00
0.90745	39.00
0.92412	39.00
0.94078	39.00
0.95745	39.01
0.97412	39.00
0.99078	39.01
1.00745	39.01
1.02412	39.01
1.04078	39.01
1.05745	39.01
1.07412	39.01
1.09078	39.01
1.10745	39.01
1.12412	39.01
1.14078	39.01
1.15745	39.01
1.17412	39.01
1.19078	39.01
1.20745	39.01
1.22412	39.01
1.24078	39.01
1.25745	39.01
1.27412	39.01
1.29078	39.01
1.30745	39.01
1.32412	39.01
1.34078	39.01
1.35745	39.01
1.37412	39.01
1.39078	39.01
1.40745	39.01
1.42412	39.01
1.44078	39.01
1.45745	39.01
1.47412	39.00
1.49078	39.01
1.50745	39.01
1.52412	39.01
1.54078	39.01
1.55745	39.01
1.57412	39.01
1.59078	39.00
1.60745	39.00
1.62412	38.99
1.64078	38.98
1.65745	38.95
1.67412	38.92
1.69078	38.89
1.70745	38.85
1.72412	38.81
1.74078	38.79
1.75745	38.75
1.77412	38.72
1.79078	38.69
1.80745	38.66
1.82412	38.63
1.84078	38.60
1.85745	38.57
1.87412	38.53
1.89078	38.51
1.90745	38.47
1.92412	38.44
1.94078	38.42
1.95745	38.38
1.97412	38.35
1.99078	38.33
2.00745	38.29
2.02412	38.26
2.04078	38.24
2.05745	38.20
2.07412	38.17
2.09078	38.15
2.10745	38.11
2.12412	38.08
2.14078	38.06
2.15745	38.03
2.17412	38.00
2.19078	37.97
2.20745	37.93
2.22412	37.90
2.24078	37.88
2.25745	37.85
2.27412	37.82
2.29078	37.79
2.30745	37.76
2.32412	37.73
2.34078	37.70
2.35745	37.67
2.37412	37.65
2.39078	37.65
2.40745	37.65
2.42412	37.65
2.44078	37.65
2.45745	37.65
2.47412	37.65
2.49078	37.65
2.50745	37.64
2.52412	37.64
2.54078	37.64
2.55745	37.65
2.57412	37.64
2.59078	37.64
2.60745	37.64
2.62412	37.64
2.64078	37.64
2.65745	37.64
2.67412	37.64
2.69078	37.64
2.70745	37.64
2.72412	37.63
2.74078	37.64
2.75745	37.64
2.77412	37.63
2.79078	37.63
2.80745	37.63
2.82412	37.63
2.84078	37.63
2.85745	37.63
2.87412	37.63
2.89078	37.63
2.90745	37.63
2.92412	37.63
2.94078	37.63
2.95745	37.63
2.97412	37.63
2.99078	37.63
3.00745	37.62
3.02412	37.62
3.04078	37.62
3.05745	37.62
3.07412	37.62
3.09078	37.62
3.10745	37.62
3.12412	37.62
3.14078	37.62
3.15745	37.62
3.17412	37.62
3.19078	37.62
3.20745	37.62
3.22412	37.62
3.24078	37.62
3.25745	37.62
3.27412	37.62
3.29078	37.61
3.30745	37.61
3.32412	37.61
3.34078	37.61
3.35745	37.61
3.37412	37.61
3.39078	37.61
3.40745	37.61
3.42412	37.62
3.44078	37.62
3.45745	37.62
3.47412	37.62
3.49078	37.62
3.50745	37.62
3.52412	37.62
3.54078	37.62
3.55745	37.62
3.57412	37.62
3.59078	37.62
3.60745	37.62
3.62412	37.62
3.64078	37.62
3.65745	37.62
3.67412	37.62
3.69078	37.62
3.70745	37.62
3.72412	37.62
3.74078	37.62
3.75745	37.62
3.77412	37.62
3.79078	37.62
3.80745	37.62
3.82412	37.62
3.84078	37.62
3.85745	37.62
3.87412	37.62
3.89078	37.62
3.90745	37.62
3.92412	37.62
3.94078	37.62
3.95745	37.62
3.97412	37.62
3.99078	37.62

