[Header]
Application Name	LabSolutions
Version	5.110
Data File Name	C:\Users\User\Desktop\GC Analyses\Jack\UIC Prairie Sampling\9.30.22\220930_027.gcd
Output Date	1/4/2023
Output Time	2:27:59 PM

[File Information]
Type	Data File
Generated	11/29/2022 3:32:48 PM
Generated by	System Administrator
Modified	11/29/2022 3:37:21 PM
Modified by	System Administrator

[Sample Information]
Operator Name	System Administrator
Acquired	11/29/2022 3:33:20 PM
Sample Type	1:Standard
Level	1
Sample Name	220930_UICPrairie
Sample ID	220930_UICPrairie
ISTD Amount1	1
ISTD Amount2	1
ISTD Amount3	1
ISTD Amount4	1
ISTD Amount5	1
ISTD Amount6	1
ISTD Amount7	1
ISTD Amount8	1
ISTD Amount9	1
ISTD Amount10	1
ISTD Amount11	1
ISTD Amount12	1
ISTD Amount13	1
ISTD Amount14	1
ISTD Amount15	1
ISTD Amount16	1
ISTD Amount17	1
ISTD Amount18	1
ISTD Amount19	1
ISTD Amount20	1
ISTD Amount21	1
ISTD Amount22	1
ISTD Amount23	1
ISTD Amount24	1
ISTD Amount25	1
ISTD Amount26	1
ISTD Amount27	1
ISTD Amount28	1
ISTD Amount29	1
ISTD Amount30	1
ISTD Amount31	1
ISTD Amount32	1
Sample Amount	1
Dilution Factor	1
Vial#	1
Injection Volume	1
Injection Count	1
Bar Code	

[Original Files]
Data File	C:\Users\User\Desktop\GC Analyses\Jack\UIC Prairie Sampling\9.30.22\220930_027.gcd
Method File	C:\LabSolutions\Data\GHG_4min_2022\ghg3_togas_w_acet_4 min_new_int.gcm
Batch File	
Report Format File	c:\LabSolutions\System\DEFAULT.lsr

[File Description]


[Configuration]
Instrument Name	C0B7VH3-Instrument1
Instrument #	1
Line #	1
# of Detectors	3
Detector ID	DET#1	DET#2	DET#3
Detector Name	FID	PTCD	ECD
# of Channels	1	1	1

[Peak Table(Ch1)]
# of Peaks	3
Peak#	R.Time	I.Time	F.Time	Area	Height	A/H	Conc.	Mark	ID#	Name	k'	Plate #	Plate Ht.	Tailing	Resolution	Sep.Factor	Area Ratio	Height Ratio	Conc. %	Norm Conc.
1	1.476	1.439	1.538	13019	5896	2.208	100.000	   	1	CO	0.000	8528	17.588	1.325	0.000	0.000	0	0	16.667	16.667
2	1.571	1.538	1.633	4857	2427	2.001	100.000	 V 	2	CH4	0.065	11242	13.343	0.000	1.548	0.000	0	0	16.667	16.667
3	2.000	1.952	2.484	1630864	785912	2.075	400.000	   	3	CO2	0.355	17877	8.391	1.195	7.204	5.500	0	0	66.667	66.667

[Peak Table(Ch2)]
# of Peaks	0

[Peak Table(Ch3)]
# of Peaks	6
Peak#	R.Time	I.Time	F.Time	Area	Height	A/H	Conc.	Mark	ID#	Name	k'	Plate #	Plate Ht.	Tailing	Resolution	Sep.Factor	Area Ratio	Height Ratio	Conc. %	Norm Conc.
1	2.458	2.337	2.502	1367	330	4.143	0.000	   			0.000	8313	18.044	0.000	0.000	0.000	0	0	0.000	0.000
2	2.524	2.502	2.565	619	191	3.233	0.000	 V 			0.027	2093	71.672	0.000	0.402	0.000	0	0	0.000	0.000
3	2.609	2.565	2.653	756	211	3.581	0.000	 V 			0.061	4354	34.449	0.000	0.445	2.278	0	0	0.000	0.000
4	2.887	2.682	3.181	23488	5431	4.325	1.000	   	1	N2O	0.175	12867	11.658	1.655	2.144	2.854	0	0	50.000	50.000
5	3.305	3.181	3.386	1602	156	10.281	0.237	 V 	2	SF6	0.345	77	1939.543	0.000	0.521	1.974	0	0	11.861	11.861
6	3.522	3.397	3.995	5151	254	20.255	0.763	   	2	SF6	0.433	607	247.267	2.353	0.208	1.255	0	0	38.139	38.139

[Compound Results(Ch1)]
# of IDs	6
ID#	Name	R.Time	Area	Height	Conc.	Curve	3rd	2nd	1st	Constant	Area Ratio	Height Ratio	Conc. %	Norm Conc.
1	CO	1.476	13019	5896	100.000	Linear	0.000000e+00	0.000000e+00	1.301920e+002	0.000000e+00	0	0	16.667	16.667
2	CH4	1.571	4857	2427	100.000	Linear	0.000000e+00	0.000000e+00	4.857328e+001	0.000000e+00	0	0	16.667	16.667
3	CO2	2.000	1630864	785912	400.000	Linear	0.000000e+00	0.000000e+00	4.077159e+003	0.000000e+00	0	0	66.667	66.667
4	Ethylene	0.000	0	0	0.000	Linear	0.000000e+00	0.000000e+00	0.000000e+00	0.000000e+00	0	0	0.000	0.000
5	Acetylene	0.000	0	0	0.000	Linear	0.000000e+00	0.000000e+00	0.000000e+00	0.000000e+00	0	0	0.000	0.000
6	Ethane	0.000	0	0	0.000	Linear	0.000000e+00	0.000000e+00	0.000000e+00	0.000000e+00	0	0	0.000	0.000

[Compound Results(Ch2)]
# of IDs	5
ID#	Name	R.Time	Area	Height	Conc.	Curve	3rd	2nd	1st	Constant	Area Ratio	Height Ratio	Conc. %	Norm Conc.
1	Hydrogen	0.000	0	0	0.000	Linear	0.000000e+00	0.000000e+00	0.000000e+00	0.000000e+00	0	0	0.000	0.000
2	Oxygen	0.000	0	0	0.000	Linear	0.000000e+00	0.000000e+00	0.000000e+00	0.000000e+00	0	0	0.000	0.000
3	Nitrogen	0.000	0	0	0.000	Linear	0.000000e+00	0.000000e+00	0.000000e+00	0.000000e+00	0	0	0.000	0.000
4	Methane	0.000	0	0	0.000	Linear	0.000000e+00	0.000000e+00	0.000000e+00	0.000000e+00	0	0	0.000	0.000
5	Carbon Monoxide	0.000	0	0	0.000	Linear	0.000000e+00	0.000000e+00	0.000000e+00	0.000000e+00	0	0	0.000	0.000

[Compound Results(Ch3)]
# of IDs	2
ID#	Name	R.Time	Area	Height	Conc.	Curve	3rd	2nd	1st	Constant	Area Ratio	Height Ratio	Conc. %	Norm Conc.
1	N2O	2.887	23488	5431	1.000	Linear	0.000000e+00	0.000000e+00	2.348777e+004	0.000000e+00	0	0	50.000	50.000
2	SF6	3.522	6752	410	1.000	Linear	0.000000e+00	0.000000e+00	6.752486e+003	0.000000e+00	0	0	50.000	50.000

[Group Results(Ch1)]
# of Groups	0

[Group Results(Ch2)]
# of Groups	0

[Group Results(Ch3)]
# of Groups	0

[Chromatogram (Ch1)]
Interval(msec)	220
# of Points	1091
Start Time(min)	0.002
End Time(min)	3.998
R.Time (min)	Intensity
0.00167	13
0.00533	14
0.00900	17
0.01267	20
0.01633	22
0.02000	18
0.02367	7
0.02733	-2
0.03100	-3
0.03467	-1
0.03833	1
0.04200	5
0.04567	8
0.04933	11
0.05300	14
0.05667	12
0.06033	7
0.06400	2
0.06767	-1
0.07133	-2
0.07500	2
0.07867	10
0.08233	19
0.08600	23
0.08967	21
0.09333	16
0.09700	8
0.10067	-3
0.10433	-13
0.10800	-19
0.11167	-18
0.11533	-15
0.11900	-11
0.12267	-9
0.12633	-6
0.13000	-4
0.13367	-5
0.13733	-7
0.14100	-6
0.14467	-3
0.14833	1
0.15200	4
0.15567	5
0.15933	4
0.16300	4
0.16667	2
0.17033	2
0.17400	3
0.17767	5
0.18133	6
0.18500	3
0.18867	-5
0.19233	-12
0.19600	-15
0.19967	-14
0.20333	-12
0.20700	-6
0.21067	2
0.21433	12
0.21800	19
0.22167	22
0.22533	23
0.22900	21
0.23267	18
0.23633	17
0.24000	15
0.24367	10
0.24733	4
0.25100	-0
0.25467	-1
0.25833	3
0.26200	10
0.26567	17
0.26933	21
0.27300	20
0.27667	19
0.28033	16
0.28400	13
0.28767	11
0.29133	11
0.29500	11
0.29867	11
0.30233	12
0.30600	13
0.30967	12
0.31333	6
0.31700	-4
0.32067	-11
0.32433	-15
0.32800	-14
0.33167	-10
0.33533	-7
0.33900	-5
0.34267	-2
0.34633	3
0.35000	7
0.35367	10
0.35733	11
0.36100	9
0.36467	6
0.36833	2
0.37200	1
0.37567	1
0.37933	-0
0.38300	-1
0.38667	-1
0.39033	-4
0.39400	-9
0.39767	-12
0.40133	-11
0.40500	-9
0.40867	-4
0.41233	0
0.41600	1
0.41967	-0
0.42333	-4
0.42700	-8
0.43067	-14
0.43433	-19
0.43800	-16
0.44167	-5
0.44533	9
0.44900	18
0.45267	21
0.45633	19
0.46000	12
0.46367	3
0.46733	-7
0.47100	-18
0.47467	-28
0.47833	-33
0.48200	-32
0.48567	-30
0.48933	-29
0.49300	-26
0.49667	-21
0.50033	-14
0.50400	-9
0.50767	-8
0.51133	-12
0.51500	-16
0.51867	-14
0.52233	-11
0.52600	-10
0.52967	-10
0.53333	-6
0.53700	-1
0.54067	1
0.54433	-2
0.54800	-6
0.55167	-8
0.55533	-11
0.55900	-15
0.56267	-18
0.56633	-18
0.57000	-17
0.57367	-16
0.57733	-16
0.58100	-15
0.58467	-14
0.58833	-10
0.59200	-7
0.59567	-9
0.59933	-15
0.60300	-19
0.60667	-19
0.61033	-15
0.61400	-11
0.61767	-10
0.62133	-13
0.62500	-17
0.62867	-21
0.63233	-22
0.63600	-22
0.63967	-21
0.64333	-18
0.64700	-14
0.65067	-10
0.65433	-3
0.65800	3
0.66167	7
0.66533	6
0.66900	0
0.67267	-8
0.67633	-17
0.68000	-23
0.68367	-26
0.68733	-25
0.69100	-25
0.69467	-24
0.69833	-20
0.70200	-15
0.70567	-16
0.70933	-19
0.71300	-23
0.71667	-27
0.72033	-30
0.72400	-34
0.72767	-40
0.73133	-42
0.73500	-38
0.73867	-32
0.74233	-28
0.74600	-24
0.74967	-23
0.75333	-26
0.75700	-32
0.76067	-36
0.76433	-38
0.76800	-37
0.77167	-33
0.77533	-28
0.77900	-21
0.78267	-15
0.78633	-12
0.79000	-13
0.79367	-12
0.79733	-11
0.80100	-11
0.80467	-10
0.80833	-10
0.81200	-9
0.81567	-10
0.81933	-12
0.82300	-16
0.82667	-24
0.83033	-32
0.83400	-36
0.83767	-36
0.84133	-35
0.84500	-33
0.84867	-30
0.85233	-28
0.85600	-25
0.85967	-27
0.86333	-31
0.86700	-34
0.87067	-29
0.87433	-23
0.87800	-20
0.88167	-22
0.88533	-28
0.88900	-36
0.89267	-42
0.89633	-44
0.90000	-41
0.90367	-35
0.90733	-30
0.91100	-31
0.91467	-38
0.91833	-45
0.92200	-45
0.92567	-40
0.92933	-35
0.93300	-34
0.93667	-37
0.94033	-38
0.94400	-38
0.94767	-38
0.95133	-42
0.95500	-45
0.95867	-47
0.96233	-49
0.96600	-47
0.96967	-44
0.97333	-41
0.97700	-37
0.98067	-36
0.98433	-36
0.98800	-31
0.99167	-20
0.99533	-12
0.99900	-10
1.00267	-12
1.00633	-17
1.01000	-20
1.01367	-26
1.01733	-30
1.02100	-32
1.02467	-35
1.02833	-37
1.03200	-40
1.03567	-42
1.03933	-43
1.04300	-41
1.04667	-38
1.05033	-41
1.05400	-48
1.05767	-56
1.06133	-63
1.06500	-66
1.06867	-65
1.07233	-61
1.07600	-53
1.07967	-42
1.08333	-29
1.08700	-21
1.09067	-22
1.09433	-25
1.09800	-27
1.10167	-31
1.10533	-36
1.10900	-42
1.11267	-47
1.11633	-48
1.12000	-46
1.12367	-43
1.12733	-41
1.13100	-41
1.13467	-44
1.13833	-45
1.14200	-41
1.14567	-36
1.14933	-34
1.15300	-34
1.15667	-33
1.16033	-34
1.16400	-39
1.16767	-46
1.17133	-51
1.17500	-52
1.17867	-51
1.18233	-51
1.18600	-54
1.18967	-56
1.19333	-55
1.19700	-55
1.20067	-55
1.20433	-56
1.20800	-56
1.21167	-58
1.21533	-59
1.21900	-54
1.22267	-49
1.22633	-46
1.23000	-45
1.23367	-43
1.23733	-41
1.24100	-40
1.24467	-35
1.24833	-28
1.25200	-22
1.25567	-20
1.25933	-23
1.26300	-28
1.26667	-35
1.27033	-43
1.27400	-52
1.27767	-57
1.28133	-56
1.28500	-51
1.28867	-48
1.29233	-48
1.29600	-49
1.29967	-50
1.30333	-53
1.30700	-60
1.31067	-68
1.31433	-73
1.31800	-73
1.32167	-66
1.32533	-55
1.32900	-43
1.33267	-34
1.33633	-32
1.34000	-37
1.34367	-45
1.34733	-53
1.35100	-59
1.35467	-63
1.35833	-61
1.36200	-52
1.36567	-42
1.36933	-38
1.37300	-40
1.37667	-40
1.38033	-40
1.38400	-44
1.38767	-48
1.39133	-52
1.39500	-53
1.39867	-53
1.40233	-51
1.40600	-48
1.40967	-46
1.41333	-48
1.41700	-53
1.42067	-56
1.42433	-56
1.42800	-57
1.43167	-61
1.43533	-64
1.43900	-52
1.44267	16
1.44633	200
1.45000	524
1.45367	1082
1.45733	1954
1.46100	3026
1.46467	4079
1.46833	4948
1.47200	5552
1.47567	5846
1.47933	5790
1.48300	5375
1.48667	4671
1.49033	3821
1.49400	2979
1.49767	2244
1.50133	1649
1.50500	1189
1.50867	851
1.51233	612
1.51600	447
1.51967	332
1.52333	248
1.52700	185
1.53067	136
1.53433	100
1.53800	84
1.54167	113
1.54533	246
1.54900	540
1.55267	969
1.55633	1440
1.56000	1860
1.56367	2177
1.56733	2363
1.57100	2385
1.57467	2223
1.57833	1912
1.58200	1528
1.58567	1146
1.58933	816
1.59300	555
1.59667	364
1.60033	227
1.60400	130
1.60767	64
1.61133	24
1.61500	2
1.61867	-12
1.62233	-20
1.62600	-26
1.62967	-31
1.63333	-37
1.63700	-44
1.64067	-50
1.64433	-51
1.64800	-45
1.65167	-37
1.65533	-32
1.65900	-30
1.66267	-31
1.66633	-36
1.67000	-43
1.67367	-48
1.67733	-51
1.68100	-52
1.68467	-53
1.68833	-54
1.69200	-54
1.69567	-53
1.69933	-49
1.70300	-46
1.70667	-44
1.71033	-45
1.71400	-47
1.71767	-50
1.72133	-56
1.72500	-62
1.72867	-65
1.73233	-66
1.73600	-64
1.73967	-60
1.74333	-54
1.74700	-49
1.75067	-43
1.75433	-37
1.75800	-34
1.76167	-35
1.76533	-37
1.76900	-42
1.77267	-47
1.77633	-49
1.78000	-50
1.78367	-50
1.78733	-48
1.79100	-46
1.79467	-47
1.79833	-52
1.80200	-55
1.80567	-55
1.80933	-51
1.81300	-46
1.81667	-47
1.82033	-49
1.82400	-49
1.82767	-49
1.83133	-51
1.83500	-56
1.83867	-61
1.84233	-64
1.84600	-65
1.84967	-59
1.85333	-53
1.85700	-45
1.86067	-35
1.86433	-26
1.86800	-19
1.87167	-18
1.87533	-23
1.87900	-29
1.88267	-36
1.88633	-40
1.89000	-41
1.89367	-39
1.89733	-37
1.90100	-38
1.90467	-42
1.90833	-42
1.91200	-37
1.91567	-30
1.91933	-24
1.92300	-20
1.92667	-15
1.93033	-11
1.93400	-8
1.93767	-7
1.94133	-5
1.94500	-9
1.94867	-16
1.95233	-18
1.95600	30
1.95967	383
1.96333	2209
1.96700	9429
1.97067	31141
1.97433	81432
1.97800	172064
1.98167	301673
1.98533	452283
1.98900	597040
1.99267	711314
1.99633	777364
2.00000	785922
2.00367	738483
2.00733	647469
2.01100	532675
2.01467	414646
2.01833	308662
2.02200	222280
2.02567	156618
2.02933	109097
2.03300	75834
2.03667	53048
2.04033	37623
2.04400	27223
2.04767	20192
2.05133	15399
2.05500	12086
2.05867	9754
2.06233	8080
2.06600	6848
2.06967	5920
2.07333	5202
2.07700	4636
2.08067	4181
2.08433	3803
2.08800	3484
2.09167	3217
2.09533	2989
2.09900	2790
2.10267	2613
2.10633	2455
2.11000	2314
2.11367	2183
2.11733	2061
2.12100	1951
2.12467	1856
2.12833	1770
2.13200	1693
2.13567	1623
2.13933	1561
2.14300	1508
2.14667	1461
2.15033	1414
2.15400	1366
2.15767	1317
2.16133	1270
2.16500	1226
2.16867	1187
2.17233	1147
2.17600	1107
2.17967	1070
2.18333	1037
2.18700	1008
2.19067	981
2.19433	954
2.19800	928
2.20167	904
2.20533	881
2.20900	859
2.21267	839
2.21633	823
2.22000	805
2.22367	788
2.22733	768
2.23100	747
2.23467	729
2.23833	712
2.24200	696
2.24567	679
2.24933	663
2.25300	651
2.25667	640
2.26033	627
2.26400	614
2.26767	601
2.27133	590
2.27500	584
2.27867	579
2.28233	574
2.28600	566
2.28967	552
2.29333	532
2.29700	514
2.30067	500
2.30433	494
2.30800	492
2.31167	491
2.31533	488
2.31900	484
2.32267	480
2.32633	476
2.33000	470
2.33367	463
2.33733	457
2.34100	450
2.34467	443
2.34833	436
2.35200	428
2.35567	418
2.35933	410
2.36300	403
2.36667	399
2.37033	396
2.37400	393
2.37767	386
2.38133	377
2.38500	368
2.38867	361
2.39233	360
2.39600	359
2.39967	356
2.40333	352
2.40700	346
2.41067	338
2.41433	333
2.41800	330
2.42167	328
2.42533	323
2.42900	318
2.43267	316
2.43633	316
2.44000	317
2.44367	319
2.44733	318
2.45100	312
2.45467	305
2.45833	300
2.46200	299
2.46567	301
2.46933	303
2.47300	301
2.47667	299
2.48033	298
2.48400	297
2.48767	298
2.49133	295
2.49500	290
2.49867	285
2.50233	282
2.50600	283
2.50967	280
2.51333	272
2.51700	262
2.52067	253
2.52433	246
2.52800	241
2.53167	243
2.53533	249
2.53900	255
2.54267	259
2.54633	259
2.55000	256
2.55367	250
2.55733	243
2.56100	237
2.56467	234
2.56833	234
2.57200	238
2.57567	236
2.57933	232
2.58300	228
2.58667	226
2.59033	225
2.59400	221
2.59767	217
2.60133	214
2.60500	212
2.60867	208
2.61233	204
2.61600	202
2.61967	208
2.62333	216
2.62700	220
2.63067	218
2.63433	214
2.63800	210
2.64167	207
2.64533	206
2.64900	204
2.65267	201
2.65633	197
2.66000	197
2.66367	196
2.66733	192
2.67100	186
2.67467	185
2.67833	186
2.68200	184
2.68567	183
2.68933	185
2.69300	187
2.69667	194
2.70033	202
2.70400	207
2.70767	211
2.71133	214
2.71500	216
2.71867	217
2.72233	213
2.72600	206
2.72967	197
2.73333	189
2.73700	182
2.74067	178
2.74433	175
2.74800	173
2.75167	174
2.75533	177
2.75900	183
2.76267	191
2.76633	200
2.77000	207
2.77367	210
2.77733	206
2.78100	199
2.78467	195
2.78833	193
2.79200	193
2.79567	192
2.79933	189
2.80300	187
2.80667	185
2.81033	184
2.81400	182
2.81767	181
2.82133	179
2.82500	175
2.82867	170
2.83233	171
2.83600	174
2.83967	178
2.84333	178
2.84700	174
2.85067	169
2.85433	164
2.85800	162
2.86167	163
2.86533	164
2.86900	165
2.87267	166
2.87633	168
2.88000	169
2.88367	168
2.88733	165
2.89100	164
2.89467	166
2.89833	171
2.90200	176
2.90567	179
2.90933	181
2.91300	184
2.91667	186
2.92033	185
2.92400	180
2.92767	173
2.93133	165
2.93500	160
2.93867	158
2.94233	157
2.94600	156
2.94967	156
2.95333	159
2.95700	163
2.96067	167
2.96433	172
2.96800	176
2.97167	180
2.97533	182
2.97900	184
2.98267	184
2.98633	184
2.99000	184
2.99367	185
2.99733	185
3.00100	182
3.00467	179
3.00833	175
3.01200	171
3.01567	167
3.01933	168
3.02300	172
3.02667	177
3.03033	186
3.03400	197
3.03767	203
3.04133	200
3.04500	191
3.04867	179
3.05233	167
3.05600	154
3.05967	145
3.06333	137
3.06700	131
3.07067	126
3.07433	123
3.07800	123
3.08167	125
3.08533	126
3.08900	128
3.09267	132
3.09633	136
3.10000	138
3.10367	141
3.10733	144
3.11100	150
3.11467	157
3.11833	164
3.12200	169
3.12567	170
3.12933	169
3.13300	167
3.13667	162
3.14033	156
3.14400	152
3.14767	150
3.15133	152
3.15500	153
3.15867	156
3.16233	160
3.16600	164
3.16967	164
3.17333	163
3.17700	162
3.18067	160
3.18433	156
3.18800	150
3.19167	147
3.19533	149
3.19900	153
3.20267	154
3.20633	156
3.21000	158
3.21367	157
3.21733	157
3.22100	159
3.22467	159
3.22833	158
3.23200	155
3.23567	151
3.23933	146
3.24300	142
3.24667	139
3.25033	139
3.25400	139
3.25767	138
3.26133	138
3.26500	137
3.26867	136
3.27233	136
3.27600	138
3.27967	141
3.28333	141
3.28700	140
3.29067	138
3.29433	140
3.29800	144
3.30167	147
3.30533	149
3.30900	151
3.31267	159
3.31633	169
3.32000	176
3.32367	180
3.32733	178
3.33100	168
3.33467	154
3.33833	142
3.34200	137
3.34567	137
3.34933	141
3.35300	143
3.35667	143
3.36033	142
3.36400	139
3.36767	135
3.37133	132
3.37500	131
3.37867	131
3.38233	134
3.38600	138
3.38967	141
3.39333	142
3.39700	140
3.40067	138
3.40433	137
3.40800	138
3.41167	138
3.41533	135
3.41900	132
3.42267	131
3.42633	130
3.43000	129
3.43367	127
3.43733	123
3.44100	119
3.44467	114
3.44833	112
3.45200	115
3.45567	121
3.45933	126
3.46300	129
3.46667	129
3.47033	126
3.47400	126
3.47767	129
3.48133	133
3.48500	136
3.48867	138
3.49233	135
3.49600	133
3.49967	132
3.50333	133
3.50700	134
3.51067	136
3.51433	134
3.51800	130
3.52167	125
3.52533	126
3.52900	130
3.53267	131
3.53633	127
3.54000	124
3.54367	125
3.54733	128
3.55100	131
3.55467	132
3.55833	131
3.56200	126
3.56567	120
3.56933	113
3.57300	108
3.57667	103
3.58033	99
3.58400	101
3.58767	106
3.59133	112
3.59500	115
3.59867	119
3.60233	123
3.60600	125
3.60967	124
3.61333	127
3.61700	134
3.62067	140
3.62433	141
3.62800	139
3.63167	136
3.63533	133
3.63900	130
3.64267	124
3.64633	118
3.65000	110
3.65367	103
3.65733	100
3.66100	101
3.66467	106
3.66833	112
3.67200	120
3.67567	129
3.67933	137
3.68300	142
3.68667	143
3.69033	142
3.69400	139
3.69767	137
3.70133	138
3.70500	139
3.70867	139
3.71233	137
3.71600	135
3.71967	136
3.72333	136
3.72700	133
3.73067	131
3.73433	134
3.73800	137
3.74167	139
3.74533	139
3.74900	139
3.75267	140
3.75633	140
3.76000	134
3.76367	125
3.76733	118
3.77100	114
3.77467	111
3.77833	108
3.78200	105
3.78567	105
3.78933	108
3.79300	116
3.79667	128
3.80033	138
3.80400	143
3.80767	144
3.81133	141
3.81500	141
3.81867	142
3.82233	141
3.82600	138
3.82967	131
3.83333	124
3.83700	116
3.84067	114
3.84433	114
3.84800	115
3.85167	115
3.85533	116
3.85900	119
3.86267	119
3.86633	119
3.87000	123
3.87367	129
3.87733	132
3.88100	133
3.88467	131
3.88833	129
3.89200	125
3.89567	126
3.89933	134
3.90300	143
3.90667	146
3.91033	142
3.91400	136
3.91767	129
3.92133	123
3.92500	120
3.92867	120
3.93233	121
3.93600	123
3.93967	123
3.94333	118
3.94700	109
3.95067	102
3.95433	100
3.95800	106
3.96167	118
3.96533	129
3.96900	136
3.97267	139
3.97633	139
3.98000	135
3.98367	128
3.98733	123
3.99100	121
3.99467	121
3.99833	124

[Chromatogram (Ch2)]
Interval(msec)	220
# of Points	1091
Start Time(min)	0.002
End Time(min)	3.998
R.Time (min)	Intensity
0.00167	-0
0.00533	-0
0.00900	-1
0.01267	-1
0.01633	-1
0.02000	-1
0.02367	-1
0.02733	-1
0.03100	-1
0.03467	-1
0.03833	-1
0.04200	-1
0.04567	-1
0.04933	-0
0.05300	0
0.05667	0
0.06033	0
0.06400	0
0.06767	0
0.07133	0
0.07500	0
0.07867	-0
0.08233	-1
0.08600	-1
0.08967	-1
0.09333	-1
0.09700	-2
0.10067	-1
0.10433	-1
0.10800	-1
0.11167	-1
0.11533	-1
0.11900	-1
0.12267	-1
0.12633	-1
0.13000	-1
0.13367	-1
0.13733	-1
0.14100	-1
0.14467	-1
0.14833	-1
0.15200	-1
0.15567	-1
0.15933	-1
0.16300	-1
0.16667	-1
0.17033	-1
0.17400	-1
0.17767	-0
0.18133	-0
0.18500	-0
0.18867	0
0.19233	0
0.19600	1
0.19967	1
0.20333	1
0.20700	1
0.21067	1
0.21433	1
0.21800	0
0.22167	0
0.22533	0
0.22900	0
0.23267	-0
0.23633	-0
0.24000	-0
0.24367	-0
0.24733	-0
0.25100	-0
0.25467	-0
0.25833	-0
0.26200	-0
0.26567	-0
0.26933	-0
0.27300	-0
0.27667	-0
0.28033	-0
0.28400	-0
0.28767	-0
0.29133	-0
0.29500	-1
0.29867	-1
0.30233	-1
0.30600	-1
0.30967	-1
0.31333	-1
0.31700	-1
0.32067	-1
0.32433	-0
0.32800	-0
0.33167	-0
0.33533	-1
0.33900	-1
0.34267	-1
0.34633	-1
0.35000	-1
0.35367	-1
0.35733	-1
0.36100	-1
0.36467	-1
0.36833	-1
0.37200	-1
0.37567	-1
0.37933	-0
0.38300	-0
0.38667	-0
0.39033	-0
0.39400	-0
0.39767	-0
0.40133	-0
0.40500	-0
0.40867	-0
0.41233	-0
0.41600	-0
0.41967	-0
0.42333	-1
0.42700	-1
0.43067	-1
0.43433	-2
0.43800	-2
0.44167	-2
0.44533	-2
0.44900	-2
0.45267	-2
0.45633	-2
0.46000	-2
0.46367	-2
0.46733	-2
0.47100	-2
0.47467	-3
0.47833	-3
0.48200	-3
0.48567	-3
0.48933	-3
0.49300	-3
0.49667	-3
0.50033	-3
0.50400	-3
0.50767	-2
0.51133	-2
0.51500	-2
0.51867	-2
0.52233	-2
0.52600	-2
0.52967	-2
0.53333	-2
0.53700	-2
0.54067	-1
0.54433	-1
0.54800	-1
0.55167	-1
0.55533	-1
0.55900	-1
0.56267	-1
0.56633	-1
0.57000	-1
0.57367	-1
0.57733	-1
0.58100	-1
0.58467	-1
0.58833	-1
0.59200	-1
0.59567	-1
0.59933	-1
0.60300	-1
0.60667	-1
0.61033	-1
0.61400	-1
0.61767	-1
0.62133	-1
0.62500	-1
0.62867	-1
0.63233	-1
0.63600	-1
0.63967	-1
0.64333	-1
0.64700	-1
0.65067	-1
0.65433	-1
0.65800	-1
0.66167	-1
0.66533	-1
0.66900	-1
0.67267	-1
0.67633	-1
0.68000	-1
0.68367	-1
0.68733	-1
0.69100	-1
0.69467	-0
0.69833	-0
0.70200	-0
0.70567	-0
0.70933	-0
0.71300	-0
0.71667	-0
0.72033	-0
0.72400	-0
0.72767	0
0.73133	0
0.73500	0
0.73867	0
0.74233	0
0.74600	0
0.74967	0
0.75333	1
0.75700	1
0.76067	0
0.76433	0
0.76800	0
0.77167	-0
0.77533	-0
0.77900	-0
0.78267	-1
0.78633	-1
0.79000	-1
0.79367	-1
0.79733	-1
0.80100	-1
0.80467	-1
0.80833	-0
0.81200	-0
0.81567	-0
0.81933	-0
0.82300	-1
0.82667	-1
0.83033	-1
0.83400	-1
0.83767	-1
0.84133	-1
0.84500	-1
0.84867	-1
0.85233	-1
0.85600	-2
0.85967	-2
0.86333	-2
0.86700	-2
0.87067	-2
0.87433	-2
0.87800	-2
0.88167	-3
0.88533	-3
0.88900	-3
0.89267	-3
0.89633	-3
0.90000	-3
0.90367	-3
0.90733	-3
0.91100	-3
0.91467	-2
0.91833	-2
0.92200	-2
0.92567	-2
0.92933	-2
0.93300	-2
0.93667	-2
0.94033	-1
0.94400	-1
0.94767	-1
0.95133	-1
0.95500	-1
0.95867	-1
0.96233	-1
0.96600	-1
0.96967	-1
0.97333	-1
0.97700	-1
0.98067	-1
0.98433	-1
0.98800	-1
0.99167	-2
0.99533	-2
0.99900	-2
1.00267	-2
1.00633	-2
1.01000	-2
1.01367	-2
1.01733	-2
1.02100	-2
1.02467	-2
1.02833	-2
1.03200	-2
1.03567	-2
1.03933	-2
1.04300	-2
1.04667	-2
1.05033	-2
1.05400	-2
1.05767	-2
1.06133	-2
1.06500	-2
1.06867	-2
1.07233	-2
1.07600	-2
1.07967	-3
1.08333	-3
1.08700	-3
1.09067	-3
1.09433	-3
1.09800	-3
1.10167	-2
1.10533	-2
1.10900	-1
1.11267	-1
1.11633	-1
1.12000	-1
1.12367	-0
1.12733	-0
1.13100	-0
1.13467	-0
1.13833	-0
1.14200	-0
1.14567	-1
1.14933	-1
1.15300	-1
1.15667	-1
1.16033	-2
1.16400	-2
1.16767	-2
1.17133	-2
1.17500	-2
1.17867	-3
1.18233	-3
1.18600	-3
1.18967	-3
1.19333	-3
1.19700	-3
1.20067	-4
1.20433	-4
1.20800	-4
1.21167	-5
1.21533	-5
1.21900	-5
1.22267	-5
1.22633	-5
1.23000	-4
1.23367	-4
1.23733	-4
1.24100	-4
1.24467	-3
1.24833	-3
1.25200	-3
1.25567	-3
1.25933	-3
1.26300	-3
1.26667	-3
1.27033	-3
1.27400	-3
1.27767	-3
1.28133	-3
1.28500	-3
1.28867	-3
1.29233	-2
1.29600	-2
1.29967	-2
1.30333	-2
1.30700	-1
1.31067	-1
1.31433	-1
1.31800	-1
1.32167	-1
1.32533	-1
1.32900	-1
1.33267	-0
1.33633	-0
1.34000	-0
1.34367	-0
1.34733	-0
1.35100	-0
1.35467	-1
1.35833	-1
1.36200	-1
1.36567	-1
1.36933	-1
1.37300	-1
1.37667	-2
1.38033	-1
1.38400	-1
1.38767	-1
1.39133	-2
1.39500	-2
1.39867	-2
1.40233	-2
1.40600	-2
1.40967	-2
1.41333	-2
1.41700	-2
1.42067	-2
1.42433	-2
1.42800	-3
1.43167	-3
1.43533	-4
1.43900	-4
1.44267	-5
1.44633	-5
1.45000	-5
1.45367	-5
1.45733	-4
1.46100	-4
1.46467	-4
1.46833	-4
1.47200	-3
1.47567	-3
1.47933	-3
1.48300	-3
1.48667	-2
1.49033	-2
1.49400	-2
1.49767	-1
1.50133	-1
1.50500	-1
1.50867	-1
1.51233	-1
1.51600	-1
1.51967	-1
1.52333	-1
1.52700	-0
1.53067	-0
1.53433	-0
1.53800	-1
1.54167	-1
1.54533	-1
1.54900	-1
1.55267	-1
1.55633	-1
1.56000	-1
1.56367	-1
1.56733	-1
1.57100	-2
1.57467	-2
1.57833	-2
1.58200	-2
1.58567	-2
1.58933	-2
1.59300	-3
1.59667	-3
1.60033	-4
1.60400	-5
1.60767	-6
1.61133	-7
1.61500	-9
1.61867	-11
1.62233	-13
1.62600	-16
1.62967	-19
1.63333	-22
1.63700	-25
1.64067	-29
1.64433	-32
1.64800	-36
1.65167	-40
1.65533	-44
1.65900	-48
1.66267	-52
1.66633	-57
1.67000	-62
1.67367	-67
1.67733	-73
1.68100	-78
1.68467	-83
1.68833	-88
1.69200	-92
1.69567	-96
1.69933	-99
1.70300	-101
1.70667	-103
1.71033	-105
1.71400	-106
1.71767	-107
1.72133	-108
1.72500	-108
1.72867	-108
1.73233	-108
1.73600	-108
1.73967	-108
1.74333	-108
1.74700	-109
1.75067	-109
1.75433	-110
1.75800	-111
1.76167	-113
1.76533	-114
1.76900	-116
1.77267	-116
1.77633	-117
1.78000	-118
1.78367	-118
1.78733	-119
1.79100	-119
1.79467	-118
1.79833	-118
1.80200	-117
1.80567	-117
1.80933	-116
1.81300	-116
1.81667	-116
1.82033	-116
1.82400	-116
1.82767	-117
1.83133	-118
1.83500	-118
1.83867	-118
1.84233	-118
1.84600	-118
1.84967	-119
1.85333	-118
1.85700	-118
1.86067	-118
1.86433	-118
1.86800	-118
1.87167	-118
1.87533	-118
1.87900	-118
1.88267	-118
1.88633	-118
1.89000	-119
1.89367	-119
1.89733	-118
1.90100	-118
1.90467	-118
1.90833	-117
1.91200	-116
1.91567	-116
1.91933	-116
1.92300	-116
1.92667	-115
1.93033	-115
1.93400	-114
1.93767	-114
1.94133	-114
1.94500	-114
1.94867	-114
1.95233	-114
1.95600	-113
1.95967	-113
1.96333	-113
1.96700	-112
1.97067	-112
1.97433	-112
1.97800	-112
1.98167	-112
1.98533	-112
1.98900	-112
1.99267	-112
1.99633	-112
2.00000	-112
2.00367	-112
2.00733	-112
2.01100	-113
2.01467	-113
2.01833	-112
2.02200	-112
2.02567	-111
2.02933	-111
2.03300	-111
2.03667	-110
2.04033	-110
2.04400	-110
2.04767	-109
2.05133	-109
2.05500	-108
2.05867	-108
2.06233	-107
2.06600	-108
2.06967	-108
2.07333	-108
2.07700	-107
2.08067	-107
2.08433	-106
2.08800	-106
2.09167	-105
2.09533	-104
2.09900	-104
2.10267	-104
2.10633	-104
2.11000	-104
2.11367	-103
2.11733	-103
2.12100	-102
2.12467	-101
2.12833	-101
2.13200	-100
2.13567	-100
2.13933	-100
2.14300	-100
2.14667	-100
2.15033	-101
2.15400	-101
2.15767	-101
2.16133	-100
2.16500	-100
2.16867	-99
2.17233	-98
2.17600	-98
2.17967	-98
2.18333	-97
2.18700	-97
2.19067	-96
2.19433	-95
2.19800	-95
2.20167	-94
2.20533	-93
2.20900	-93
2.21267	-94
2.21633	-94
2.22000	-94
2.22367	-94
2.22733	-94
2.23100	-93
2.23467	-93
2.23833	-92
2.24200	-91
2.24567	-91
2.24933	-91
2.25300	-90
2.25667	-90
2.26033	-89
2.26400	-89
2.26767	-89
2.27133	-89
2.27500	-88
2.27867	-88
2.28233	-88
2.28600	-87
2.28967	-87
2.29333	-86
2.29700	-86
2.30067	-85
2.30433	-85
2.30800	-86
2.31167	-86
2.31533	-86
2.31900	-86
2.32267	-86
2.32633	-86
2.33000	-86
2.33367	-85
2.33733	-85
2.34100	-84
2.34467	-84
2.34833	-83
2.35200	-82
2.35567	-81
2.35933	-80
2.36300	-79
2.36667	-79
2.37033	-78
2.37400	-77
2.37767	-75
2.38133	-73
2.38500	-71
2.38867	-67
2.39233	-64
2.39600	-60
2.39967	-56
2.40333	-52
2.40700	-47
2.41067	-43
2.41433	-39
2.41800	-35
2.42167	-31
2.42533	-27
2.42900	-24
2.43267	-21
2.43633	-19
2.44000	-16
2.44367	-15
2.44733	-13
2.45100	-11
2.45467	-10
2.45833	-8
2.46200	-6
2.46567	-5
2.46933	-3
2.47300	-2
2.47667	-0
2.48033	1
2.48400	2
2.48767	2
2.49133	3
2.49500	4
2.49867	4
2.50233	5
2.50600	6
2.50967	7
2.51333	7
2.51700	8
2.52067	8
2.52433	8
2.52800	9
2.53167	9
2.53533	10
2.53900	11
2.54267	11
2.54633	12
2.55000	13
2.55367	14
2.55733	15
2.56100	16
2.56467	17
2.56833	17
2.57200	17
2.57567	17
2.57933	17
2.58300	16
2.58667	16
2.59033	16
2.59400	16
2.59767	16
2.60133	15
2.60500	15
2.60867	15
2.61233	16
2.61600	16
2.61967	17
2.62333	17
2.62700	18
2.63067	18
2.63433	19
2.63800	19
2.64167	19
2.64533	19
2.64900	19
2.65267	19
2.65633	20
2.66000	20
2.66367	20
2.66733	21
2.67100	21
2.67467	22
2.67833	22
2.68200	22
2.68567	22
2.68933	22
2.69300	22
2.69667	21
2.70033	21
2.70400	21
2.70767	22
2.71133	22
2.71500	22
2.71867	22
2.72233	23
2.72600	23
2.72967	24
2.73333	24
2.73700	24
2.74067	24
2.74433	24
2.74800	23
2.75167	23
2.75533	23
2.75900	22
2.76267	22
2.76633	22
2.77000	22
2.77367	23
2.77733	23
2.78100	23
2.78467	24
2.78833	24
2.79200	25
2.79567	25
2.79933	25
2.80300	25
2.80667	25
2.81033	25
2.81400	25
2.81767	25
2.82133	25
2.82500	25
2.82867	25
2.83233	25
2.83600	25
2.83967	25
2.84333	25
2.84700	25
2.85067	24
2.85433	23
2.85800	20
2.86167	16
2.86533	9
2.86900	-1
2.87267	-14
2.87633	-31
2.88000	-51
2.88367	-76
2.88733	-104
2.89100	-136
2.89467	-172
2.89833	-211
2.90200	-252
2.90567	-297
2.90933	-343
2.91300	-391
2.91667	-440
2.92033	-490
2.92400	-540
2.92767	-590
2.93133	-640
2.93500	-690
2.93867	-740
2.94233	-789
2.94600	-840
2.94967	-896
2.95333	-957
2.95700	-1017
2.96067	-1065
2.96433	-1090
2.96800	-1089
2.97167	-1062
2.97533	-1014
2.97900	-950
2.98267	-876
2.98633	-796
2.99000	-716
2.99367	-638
2.99733	-563
3.00100	-494
3.00467	-430
3.00833	-373
3.01200	-321
3.01567	-276
3.01933	-236
3.02300	-201
3.02667	-170
3.03033	-144
3.03400	-121
3.03767	-101
3.04133	-84
3.04500	-70
3.04867	-57
3.05233	-47
3.05600	-37
3.05967	-30
3.06333	-23
3.06700	-18
3.07067	-13
3.07433	-9
3.07800	-6
3.08167	-3
3.08533	-0
3.08900	2
3.09267	4
3.09633	5
3.10000	7
3.10367	8
3.10733	9
3.11100	10
3.11467	11
3.11833	12
3.12200	12
3.12567	13
3.12933	14
3.13300	14
3.13667	15
3.14033	16
3.14400	16
3.14767	17
3.15133	17
3.15500	17
3.15867	17
3.16233	18
3.16600	18
3.16967	18
3.17333	18
3.17700	18
3.18067	18
3.18433	18
3.18800	18
3.19167	18
3.19533	18
3.19900	19
3.20267	19
3.20633	19
3.21000	19
3.21367	19
3.21733	20
3.22100	20
3.22467	20
3.22833	20
3.23200	20
3.23567	20
3.23933	21
3.24300	21
3.24667	21
3.25033	21
3.25400	22
3.25767	22
3.26133	22
3.26500	22
3.26867	23
3.27233	24
3.27600	24
3.27967	25
3.28333	25
3.28700	26
3.29067	26
3.29433	26
3.29800	26
3.30167	27
3.30533	27
3.30900	27
3.31267	27
3.31633	27
3.32000	27
3.32367	27
3.32733	27
3.33100	27
3.33467	27
3.33833	27
3.34200	27
3.34567	27
3.34933	27
3.35300	27
3.35667	27
3.36033	26
3.36400	26
3.36767	26
3.37133	27
3.37500	27
3.37867	27
3.38233	27
3.38600	28
3.38967	28
3.39333	28
3.39700	28
3.40067	28
3.40433	28
3.40800	27
3.41167	27
3.41533	27
3.41900	27
3.42267	27
3.42633	27
3.43000	27
3.43367	27
3.43733	27
3.44100	27
3.44467	27
3.44833	27
3.45200	27
3.45567	27
3.45933	27
3.46300	26
3.46667	26
3.47033	26
3.47400	26
3.47767	26
3.48133	26
3.48500	26
3.48867	26
3.49233	26
3.49600	26
3.49967	26
3.50333	26
3.50700	26
3.51067	26
3.51433	26
3.51800	26
3.52167	26
3.52533	26
3.52900	26
3.53267	26
3.53633	26
3.54000	26
3.54367	26
3.54733	26
3.55100	26
3.55467	25
3.55833	25
3.56200	25
3.56567	25
3.56933	25
3.57300	25
3.57667	25
3.58033	25
3.58400	25
3.58767	26
3.59133	26
3.59500	25
3.59867	25
3.60233	25
3.60600	25
3.60967	25
3.61333	25
3.61700	25
3.62067	25
3.62433	25
3.62800	25
3.63167	25
3.63533	25
3.63900	25
3.64267	25
3.64633	25
3.65000	26
3.65367	26
3.65733	26
3.66100	26
3.66467	26
3.66833	26
3.67200	26
3.67567	26
3.67933	26
3.68300	26
3.68667	26
3.69033	26
3.69400	26
3.69767	26
3.70133	26
3.70500	26
3.70867	26
3.71233	26
3.71600	26
3.71967	26
3.72333	27
3.72700	27
3.73067	27
3.73433	27
3.73800	27
3.74167	27
3.74533	27
3.74900	27
3.75267	26
3.75633	26
3.76000	26
3.76367	26
3.76733	26
3.77100	26
3.77467	26
3.77833	26
3.78200	26
3.78567	26
3.78933	26
3.79300	27
3.79667	27
3.80033	27
3.80400	27
3.80767	27
3.81133	27
3.81500	27
3.81867	27
3.82233	27
3.82600	27
3.82967	26
3.83333	26
3.83700	26
3.84067	26
3.84433	26
3.84800	26
3.85167	26
3.85533	26
3.85900	25
3.86267	25
3.86633	24
3.87000	24
3.87367	24
3.87733	24
3.88100	24
3.88467	24
3.88833	24
3.89200	24
3.89567	25
3.89933	25
3.90300	25
3.90667	25
3.91033	26
3.91400	26
3.91767	26
3.92133	27
3.92500	27
3.92867	27
3.93233	28
3.93600	28
3.93967	28
3.94333	28
3.94700	29
3.95067	29
3.95433	29
3.95800	29
3.96167	30
3.96533	30
3.96900	30
3.97267	30
3.97633	29
3.98000	29
3.98367	29
3.98733	29
3.99100	29
3.99467	29
3.99833	29

[Chromatogram (Ch3)]
Interval(msec)	220
# of Points	1091
Start Time(min)	0.002
End Time(min)	3.998
R.Time (min)	Intensity
0.00167	-1
0.00533	-3
0.00900	-4
0.01267	-5
0.01633	-3
0.02000	1
0.02367	3
0.02733	1
0.03100	-1
0.03467	-0
0.03833	1
0.04200	1
0.04567	-1
0.04933	-2
0.05300	1
0.05667	3
0.06033	2
0.06400	1
0.06767	-1
0.07133	1
0.07500	2
0.07867	2
0.08233	4
0.08600	5
0.08967	7
0.09333	7
0.09700	6
0.10067	5
0.10433	6
0.10800	8
0.11167	9
0.11533	10
0.11900	11
0.12267	11
0.12633	11
0.13000	10
0.13367	9
0.13733	10
0.14100	9
0.14467	7
0.14833	5
0.15200	5
0.15567	3
0.15933	3
0.16300	4
0.16667	4
0.17033	4
0.17400	5
0.17767	6
0.18133	3
0.18500	2
0.18867	4
0.19233	7
0.19600	11
0.19967	14
0.20333	13
0.20700	12
0.21067	10
0.21433	9
0.21800	7
0.22167	6
0.22533	5
0.22900	5
0.23267	5
0.23633	3
0.24000	2
0.24367	3
0.24733	4
0.25100	5
0.25467	5
0.25833	5
0.26200	4
0.26567	5
0.26933	7
0.27300	9
0.27667	10
0.28033	9
0.28400	9
0.28767	9
0.29133	9
0.29500	9
0.29867	10
0.30233	10
0.30600	8
0.30967	7
0.31333	7
0.31700	7
0.32067	7
0.32433	6
0.32800	7
0.33167	6
0.33533	6
0.33900	8
0.34267	8
0.34633	8
0.35000	7
0.35367	8
0.35733	7
0.36100	5
0.36467	6
0.36833	7
0.37200	8
0.37567	9
0.37933	8
0.38300	8
0.38667	9
0.39033	9
0.39400	7
0.39767	4
0.40133	3
0.40500	5
0.40867	9
0.41233	12
0.41600	11
0.41967	11
0.42333	11
0.42700	11
0.43067	12
0.43433	12
0.43800	13
0.44167	13
0.44533	12
0.44900	12
0.45267	11
0.45633	11
0.46000	11
0.46367	13
0.46733	13
0.47100	13
0.47467	11
0.47833	11
0.48200	11
0.48567	11
0.48933	11
0.49300	9
0.49667	10
0.50033	10
0.50400	12
0.50767	14
0.51133	13
0.51500	13
0.51867	11
0.52233	10
0.52600	8
0.52967	9
0.53333	8
0.53700	8
0.54067	8
0.54433	8
0.54800	6
0.55167	7
0.55533	9
0.55900	11
0.56267	10
0.56633	8
0.57000	7
0.57367	8
0.57733	6
0.58100	4
0.58467	5
0.58833	6
0.59200	9
0.59567	10
0.59933	11
0.60300	12
0.60667	14
0.61033	15
0.61400	17
0.61767	17
0.62133	15
0.62500	13
0.62867	13
0.63233	15
0.63600	16
0.63967	15
0.64333	14
0.64700	12
0.65067	11
0.65433	10
0.65800	13
0.66167	16
0.66533	14
0.66900	13
0.67267	13
0.67633	12
0.68000	11
0.68367	11
0.68733	11
0.69100	11
0.69467	12
0.69833	14
0.70200	15
0.70567	18
0.70933	21
0.71300	20
0.71667	17
0.72033	16
0.72400	15
0.72767	14
0.73133	13
0.73500	11
0.73867	11
0.74233	12
0.74600	12
0.74967	10
0.75333	9
0.75700	11
0.76067	12
0.76433	11
0.76800	10
0.77167	12
0.77533	14
0.77900	15
0.78267	15
0.78633	13
0.79000	12
0.79367	11
0.79733	13
0.80100	14
0.80467	14
0.80833	13
0.81200	14
0.81567	15
0.81933	16
0.82300	16
0.82667	14
0.83033	14
0.83400	14
0.83767	15
0.84133	15
0.84500	14
0.84867	13
0.85233	9
0.85600	6
0.85967	5
0.86333	5
0.86700	5
0.87067	5
0.87433	6
0.87800	7
0.88167	6
0.88533	7
0.88900	9
0.89267	10
0.89633	9
0.90000	8
0.90367	10
0.90733	11
0.91100	9
0.91467	9
0.91833	10
0.92200	10
0.92567	9
0.92933	8
0.93300	8
0.93667	5
0.94033	2
0.94400	-0
0.94767	1
0.95133	3
0.95500	5
0.95867	6
0.96233	6
0.96600	5
0.96967	6
0.97333	7
0.97700	7
0.98067	6
0.98433	6
0.98800	7
0.99167	9
0.99533	11
0.99900	11
1.00267	8
1.00633	7
1.01000	6
1.01367	6
1.01733	7
1.02100	9
1.02467	10
1.02833	8
1.03200	5
1.03567	3
1.03933	5
1.04300	5
1.04667	3
1.05033	4
1.05400	3
1.05767	2
1.06133	2
1.06500	1
1.06867	2
1.07233	2
1.07600	3
1.07967	5
1.08333	5
1.08700	6
1.09067	6
1.09433	6
1.09800	6
1.10167	6
1.10533	7
1.10900	7
1.11267	6
1.11633	6
1.12000	9
1.12367	11
1.12733	11
1.13100	8
1.13467	7
1.13833	7
1.14200	7
1.14567	8
1.14933	9
1.15300	7
1.15667	6
1.16033	4
1.16400	3
1.16767	3
1.17133	3
1.17500	4
1.17867	4
1.18233	6
1.18600	5
1.18967	3
1.19333	2
1.19700	4
1.20067	5
1.20433	7
1.20800	9
1.21167	8
1.21533	7
1.21900	4
1.22267	3
1.22633	3
1.23000	3
1.23367	4
1.23733	6
1.24100	7
1.24467	6
1.24833	7
1.25200	9
1.25567	10
1.25933	12
1.26300	12
1.26667	10
1.27033	9
1.27400	10
1.27767	9
1.28133	8
1.28500	10
1.28867	13
1.29233	12
1.29600	9
1.29967	6
1.30333	5
1.30700	4
1.31067	5
1.31433	5
1.31800	6
1.32167	5
1.32533	3
1.32900	1
1.33267	2
1.33633	3
1.34000	6
1.34367	8
1.34733	9
1.35100	8
1.35467	7
1.35833	5
1.36200	4
1.36567	4
1.36933	4
1.37300	7
1.37667	9
1.38033	10
1.38400	11
1.38767	12
1.39133	12
1.39500	12
1.39867	10
1.40233	10
1.40600	13
1.40967	13
1.41333	11
1.41700	10
1.42067	10
1.42433	11
1.42800	11
1.43167	11
1.43533	11
1.43900	11
1.44267	12
1.44633	12
1.45000	11
1.45367	10
1.45733	8
1.46100	5
1.46467	4
1.46833	5
1.47200	6
1.47567	8
1.47933	7
1.48300	6
1.48667	6
1.49033	7
1.49400	9
1.49767	8
1.50133	7
1.50500	7
1.50867	6
1.51233	5
1.51600	4
1.51967	4
1.52333	5
1.52700	5
1.53067	4
1.53433	5
1.53800	7
1.54167	6
1.54533	6
1.54900	8
1.55267	10
1.55633	9
1.56000	8
1.56367	8
1.56733	7
1.57100	5
1.57467	5
1.57833	6
1.58200	8
1.58567	10
1.58933	12
1.59300	16
1.59667	18
1.60033	16
1.60400	12
1.60767	10
1.61133	9
1.61500	7
1.61867	7
1.62233	6
1.62600	9
1.62967	11
1.63333	9
1.63700	8
1.64067	10
1.64433	10
1.64800	10
1.65167	11
1.65533	11
1.65900	13
1.66267	15
1.66633	14
1.67000	12
1.67367	12
1.67733	14
1.68100	15
1.68467	16
1.68833	15
1.69200	14
1.69567	14
1.69933	14
1.70300	15
1.70667	16
1.71033	19
1.71400	21
1.71767	19
1.72133	16
1.72500	14
1.72867	15
1.73233	15
1.73600	19
1.73967	20
1.74333	20
1.74700	22
1.75067	24
1.75433	26
1.75800	29
1.76167	28
1.76533	26
1.76900	25
1.77267	25
1.77633	26
1.78000	27
1.78367	25
1.78733	26
1.79100	26
1.79467	24
1.79833	25
1.80200	26
1.80567	28
1.80933	27
1.81300	26
1.81667	26
1.82033	26
1.82400	26
1.82767	27
1.83133	29
1.83500	31
1.83867	33
1.84233	35
1.84600	35
1.84967	35
1.85333	34
1.85700	32
1.86067	32
1.86433	32
1.86800	32
1.87167	32
1.87533	30
1.87900	29
1.88267	29
1.88633	30
1.89000	32
1.89367	32
1.89733	31
1.90100	31
1.90467	31
1.90833	30
1.91200	31
1.91567	32
1.91933	32
1.92300	33
1.92667	34
1.93033	34
1.93400	34
1.93767	34
1.94133	34
1.94500	33
1.94867	34
1.95233	36
1.95600	37
1.95967	39
1.96333	41
1.96700	43
1.97067	45
1.97433	47
1.97800	48
1.98167	48
1.98533	47
1.98900	47
1.99267	47
1.99633	46
2.00000	46
2.00367	45
2.00733	44
2.01100	45
2.01467	48
2.01833	50
2.02200	52
2.02567	53
2.02933	53
2.03300	53
2.03667	54
2.04033	54
2.04400	54
2.04767	52
2.05133	52
2.05500	55
2.05867	56
2.06233	59
2.06600	61
2.06967	61
2.07333	61
2.07700	60
2.08067	60
2.08433	62
2.08800	64
2.09167	68
2.09533	69
2.09900	72
2.10267	72
2.10633	74
2.11000	74
2.11367	73
2.11733	71
2.12100	71
2.12467	71
2.12833	70
2.13200	68
2.13567	68
2.13933	70
2.14300	71
2.14667	73
2.15033	75
2.15400	76
2.15767	78
2.16133	80
2.16500	80
2.16867	79
2.17233	81
2.17600	81
2.17967	79
2.18333	79
2.18700	80
2.19067	81
2.19433	82
2.19800	81
2.20167	82
2.20533	85
2.20900	86
2.21267	86
2.21633	87
2.22000	87
2.22367	87
2.22733	87
2.23100	88
2.23467	90
2.23833	93
2.24200	94
2.24567	97
2.24933	99
2.25300	101
2.25667	102
2.26033	103
2.26400	102
2.26767	103
2.27133	103
2.27500	101
2.27867	99
2.28233	99
2.28600	101
2.28967	103
2.29333	106
2.29700	109
2.30067	112
2.30433	114
2.30800	114
2.31167	115
2.31533	118
2.31900	120
2.32267	120
2.32633	119
2.33000	119
2.33367	119
2.33733	117
2.34100	118
2.34467	118
2.34833	118
2.35200	120
2.35567	122
2.35933	125
2.36300	128
2.36667	129
2.37033	127
2.37400	127
2.37767	126
2.38133	125
2.38500	125
2.38867	125
2.39233	126
2.39600	130
2.39967	133
2.40333	136
2.40700	138
2.41067	140
2.41433	141
2.41800	142
2.42167	142
2.42533	143
2.42900	143
2.43267	144
2.43633	145
2.44000	147
2.44367	166
2.44733	213
2.45100	265
2.45467	297
2.45833	293
2.46200	267
2.46567	241
2.46933	221
2.47300	203
2.47667	183
2.48033	159
2.48400	135
2.48767	112
2.49133	93
2.49500	79
2.49867	70
2.50233	63
2.50600	60
2.50967	61
2.51333	65
2.51700	70
2.52067	73
2.52433	71
2.52800	63
2.53167	52
2.53533	41
2.53900	29
2.54267	17
2.54633	8
2.55000	-3
2.55367	-12
2.55733	-19
2.56100	-25
2.56467	-30
2.56833	-32
2.57200	-30
2.57567	-29
2.57933	-29
2.58300	-28
2.58667	-28
2.59033	-27
2.59400	-26
2.59767	-22
2.60133	-18
2.60500	-16
2.60867	-16
2.61233	-22
2.61600	-36
2.61967	-55
2.62333	-81
2.62700	-109
2.63067	-138
2.63433	-168
2.63800	-200
2.64167	-229
2.64533	-254
2.64900	-272
2.65267	-283
2.65633	-291
2.66000	-295
2.66367	-296
2.66733	-297
2.67100	-297
2.67467	-295
2.67833	-295
2.68200	-293
2.68567	-288
2.68933	-281
2.69300	-271
2.69667	-261
2.70033	-254
2.70400	-247
2.70767	-241
2.71133	-233
2.71500	-224
2.71867	-215
2.72233	-208
2.72600	-202
2.72967	-198
2.73333	-194
2.73700	-191
2.74067	-188
2.74433	-181
2.74800	-176
2.75167	-169
2.75533	-164
2.75900	-159
2.76267	-156
2.76633	-153
2.77000	-152
2.77367	-148
2.77733	-143
2.78100	-138
2.78467	-136
2.78833	-132
2.79200	-130
2.79567	-128
2.79933	-125
2.80300	-120
2.80667	-117
2.81033	-115
2.81400	-110
2.81767	-104
2.82133	-98
2.82500	-93
2.82867	-88
2.83233	-77
2.83600	-48
2.83967	11
2.84333	118
2.84700	302
2.85067	583
2.85433	976
2.85800	1479
2.86167	2074
2.86533	2727
2.86900	3387
2.87267	3999
2.87633	4516
2.88000	4895
2.88367	5119
2.88733	5181
2.89100	5098
2.89467	4897
2.89833	4609
2.90200	4266
2.90567	3892
2.90933	3509
2.91300	3131
2.91667	2769
2.92033	2434
2.92400	2130
2.92767	1852
2.93133	1604
2.93500	1384
2.93867	1191
2.94233	1021
2.94600	871
2.94967	739
2.95333	625
2.95700	526
2.96067	441
2.96433	368
2.96800	306
2.97167	252
2.97533	205
2.97900	166
2.98267	131
2.98633	102
2.99000	80
2.99367	61
2.99733	44
3.00100	29
3.00467	16
3.00833	2
3.01200	-12
3.01567	-21
3.01933	-28
3.02300	-36
3.02667	-42
3.03033	-46
3.03400	-48
3.03767	-51
3.04133	-54
3.04500	-59
3.04867	-64
3.05233	-68
3.05600	-70
3.05967	-70
3.06333	-71
3.06700	-74
3.07067	-76
3.07433	-75
3.07800	-74
3.08167	-72
3.08533	-71
3.08900	-73
3.09267	-73
3.09633	-73
3.10000	-74
3.10367	-75
3.10733	-77
3.11100	-78
3.11467	-78
3.11833	-78
3.12200	-77
3.12567	-74
3.12933	-73
3.13300	-72
3.13667	-70
3.14033	-68
3.14400	-68
3.14767	-68
3.15133	-67
3.15500	-67
3.15867	-66
3.16233	-66
3.16600	-64
3.16967	-63
3.17333	-65
3.17700	-65
3.18067	-64
3.18433	-62
3.18800	-63
3.19167	-63
3.19533	-62
3.19900	-59
3.20267	-57
3.20633	-56
3.21000	-56
3.21367	-57
3.21733	-55
3.22100	-52
3.22467	-49
3.22833	-44
3.23200	-40
3.23567	-38
3.23933	-38
3.24300	-37
3.24667	-34
3.25033	-31
3.25400	-30
3.25767	-30
3.26133	-30
3.26500	-28
3.26867	-27
3.27233	-27
3.27600	-26
3.27967	-23
3.28333	-20
3.28700	-18
3.29067	-18
3.29433	-17
3.29800	-15
3.30167	-12
3.30533	-9
3.30900	-8
3.31267	-9
3.31633	-9
3.32000	-8
3.32367	-8
3.32733	-7
3.33100	-7
3.33467	-7
3.33833	-8
3.34200	-8
3.34567	-8
3.34933	-14
3.35300	-29
3.35667	-41
3.36033	-45
3.36400	-50
3.36767	-62
3.37133	-84
3.37500	-109
3.37867	-128
3.38233	-141
3.38600	-148
3.38967	-151
3.39333	-148
3.39700	-139
3.40067	-126
3.40433	-111
3.40800	-96
3.41167	-79
3.41533	-63
3.41900	-45
3.42267	-27
3.42633	-13
3.43000	0
3.43367	14
3.43733	24
3.44100	33
3.44467	41
3.44833	50
3.45200	59
3.45567	68
3.45933	76
3.46300	85
3.46667	95
3.47033	104
3.47400	112
3.47767	119
3.48133	124
3.48500	126
3.48867	129
3.49233	134
3.49600	139
3.49967	142
3.50333	146
3.50700	149
3.51067	153
3.51433	156
3.51800	158
3.52167	162
3.52533	163
3.52900	161
3.53267	160
3.53633	160
3.54000	160
3.54367	160
3.54733	162
3.55100	166
3.55467	167
3.55833	166
3.56200	165
3.56567	164
3.56933	166
3.57300	169
3.57667	168
3.58033	166
3.58400	164
3.58767	163
3.59133	164
3.59500	166
3.59867	166
3.60233	165
3.60600	164
3.60967	164
3.61333	162
3.61700	160
3.62067	159
3.62433	159
3.62800	160
3.63167	160
3.63533	161
3.63900	160
3.64267	161
3.64633	161
3.65000	160
3.65367	159
3.65733	159
3.66100	156
3.66467	152
3.66833	150
3.67200	150
3.67567	151
3.67933	150
3.68300	151
3.68667	153
3.69033	153
3.69400	151
3.69767	149
3.70133	149
3.70500	150
3.70867	150
3.71233	150
3.71600	148
3.71967	145
3.72333	146
3.72700	145
3.73067	143
3.73433	143
3.73800	143
3.74167	144
3.74533	143
3.74900	141
3.75267	139
3.75633	138
3.76000	137
3.76367	134
3.76733	133
3.77100	132
3.77467	130
3.77833	129
3.78200	129
3.78567	127
3.78933	124
3.79300	124
3.79667	124
3.80033	123
3.80400	123
3.80767	120
3.81133	117
3.81500	117
3.81867	116
3.82233	116
3.82600	116
3.82967	118
3.83333	120
3.83700	120
3.84067	120
3.84433	122
3.84800	122
3.85167	120
3.85533	119
3.85900	116
3.86267	113
3.86633	111
3.87000	109
3.87367	108
3.87733	107
3.88100	107
3.88467	108
3.88833	107
3.89200	106
3.89567	103
3.89933	101
3.90300	100
3.90667	101
3.91033	102
3.91400	102
3.91767	101
3.92133	100
3.92500	98
3.92867	96
3.93233	96
3.93600	96
3.93967	95
3.94333	92
3.94700	91
3.95067	92
3.95433	89
3.95800	85
3.96167	87
3.96533	87
3.96900	88
3.97267	88
3.97633	85
3.98000	84
3.98367	84
3.98733	85
3.99100	86
3.99467	85
3.99833	84

[Status Trace (Column Oven Temperature)]
Interval(msec)	1000
# of Points	240
Start Time(min)	0.008
End Time(min)	3.991
Intensity Units	
Intensity Multiplier	1
R.Time (min)	Intensity
0.00782	35.00
0.02448	35.00
0.04115	35.00
0.05782	34.99
0.07448	34.99
0.09115	34.99
0.10782	35.00
0.12448	35.00
0.14115	35.01
0.15782	35.00
0.17448	35.00
0.19115	35.00
0.20782	34.99
0.22448	34.99
0.24115	34.99
0.25782	34.98
0.27448	34.98
0.29115	34.97
0.30782	34.98
0.32448	34.97
0.34115	34.98
0.35782	34.98
0.37448	34.98
0.39115	34.97
0.40782	34.98
0.42448	34.98
0.44115	34.99
0.45782	34.99
0.47448	35.01
0.49115	35.00
0.50782	35.00
0.52448	35.00
0.54115	35.00
0.55782	35.00
0.57448	34.99
0.59115	34.99
0.60782	35.00
0.62448	35.00
0.64115	35.00
0.65782	35.01
0.67448	35.00
0.69115	35.00
0.70782	35.00
0.72448	35.00
0.74115	35.00
0.75782	35.00
0.77448	34.99
0.79115	34.98
0.80782	34.98
0.82448	34.99
0.84115	34.99
0.85782	35.00
0.87448	35.01
0.89115	35.01
0.90782	35.01
0.92448	35.00
0.94115	35.00
0.95782	35.00
0.97448	35.00
0.99115	34.99
1.00782	34.99
1.02448	34.99
1.04115	35.00
1.05782	35.00
1.07448	35.01
1.09115	35.00
1.10782	35.00
1.12448	35.00
1.14115	35.00
1.15782	34.99
1.17448	34.99
1.19115	35.01
1.20782	35.02
1.22448	35.02
1.24115	35.03
1.25782	35.04
1.27448	35.03
1.29115	35.02
1.30782	35.00
1.32448	35.00
1.34115	34.99
1.35782	35.00
1.37448	35.00
1.39115	35.00
1.40782	35.01
1.42448	35.01
1.44115	35.03
1.45782	35.03
1.47448	35.02
1.49115	35.01
1.50782	35.00
1.52448	34.99
1.54115	34.99
1.55782	34.99
1.57448	34.98
1.59115	35.00
1.60782	35.05
1.62448	35.17
1.64115	35.36
1.65782	35.63
1.67448	35.98
1.69115	36.36
1.70782	36.71
1.72448	37.02
1.74115	37.33
1.75782	37.67
1.77448	38.02
1.79115	38.35
1.80782	38.66
1.82448	39.00
1.84115	39.34
1.85782	39.66
1.87448	39.99
1.89115	40.33
1.90782	40.65
1.92448	40.98
1.94115	41.31
1.95782	41.64
1.97448	41.96
1.99115	42.29
2.00782	42.63
2.02448	42.95
2.04115	43.28
2.05782	43.58
2.07448	43.92
2.09115	44.25
2.10782	44.58
2.12448	44.89
2.14115	45.23
2.15782	45.56
2.17448	45.89
2.19115	46.19
2.20782	46.53
2.22448	46.86
2.24115	47.16
2.25782	47.50
2.27448	47.83
2.29115	48.15
2.30782	48.50
2.32448	48.83
2.34115	49.15
2.35782	49.44
2.37448	49.67
2.39115	49.74
2.40782	49.73
2.42448	49.73
2.44115	49.75
2.45782	49.75
2.47448	49.75
2.49115	49.77
2.50782	49.78
2.52448	49.80
2.54115	49.81
2.55782	49.81
2.57448	49.80
2.59115	49.82
2.60782	49.83
2.62448	49.83
2.64115	49.84
2.65782	49.84
2.67448	49.84
2.69115	49.87
2.70782	49.86
2.72448	49.85
2.74115	49.86
2.75782	49.88
2.77448	49.88
2.79115	49.88
2.80782	49.88
2.82448	49.88
2.84115	49.88
2.85782	49.89
2.87448	49.89
2.89115	49.90
2.90782	49.91
2.92448	49.93
2.94115	49.95
2.95782	49.97
2.97448	49.98
2.99115	50.00
3.00782	50.00
3.02448	50.01
3.04115	50.01
3.05782	50.02
3.07448	50.03
3.09115	50.04
3.10782	50.05
3.12448	50.06
3.14115	50.06
3.15782	50.07
3.17448	50.07
3.19115	50.08
3.20782	50.09
3.22448	50.11
3.24115	50.12
3.25782	50.12
3.27448	50.10
3.29115	50.08
3.30782	50.07
3.32448	50.06
3.34115	50.05
3.35782	50.05
3.37448	50.04
3.39115	50.03
3.40782	50.03
3.42448	50.03
3.44115	50.04
3.45782	50.04
3.47448	50.04
3.49115	50.04
3.50782	50.04
3.52448	50.04
3.54115	50.04
3.55782	50.05
3.57448	50.06
3.59115	50.06
3.60782	50.06
3.62448	50.07
3.64115	50.07
3.65782	50.07
3.67448	50.08
3.69115	50.07
3.70782	50.08
3.72448	50.08
3.74115	50.08
3.75782	50.08
3.77448	50.07
3.79115	50.08
3.80782	50.08
3.82448	50.08
3.84115	50.09
3.85782	50.09
3.87448	50.11
3.89115	50.11
3.90782	50.10
3.92448	50.08
3.94115	50.06
3.95782	50.04
3.97448	50.03
3.99115	50.01

[Status Trace (Injection Unit Temperature)]
Interval(msec)	1000
# of Points	240
Start Time(min)	0.008
End Time(min)	3.991
Intensity Units	
Intensity Multiplier	1
R.Time (min)	Intensity
0.00782	99.98
0.02448	99.98
0.04115	99.98
0.05782	99.98
0.07448	99.98
0.09115	99.98
0.10782	99.98
0.12448	99.99
0.14115	99.98
0.15782	99.99
0.17448	99.98
0.19115	99.98
0.20782	99.98
0.22448	99.98
0.24115	99.98
0.25782	99.99
0.27448	99.99
0.29115	99.99
0.30782	99.98
0.32448	99.98
0.34115	99.98
0.35782	99.99
0.37448	99.98
0.39115	99.98
0.40782	99.99
0.42448	99.98
0.44115	99.98
0.45782	99.99
0.47448	99.99
0.49115	99.98
0.50782	99.99
0.52448	99.98
0.54115	99.99
0.55782	99.98
0.57448	99.99
0.59115	99.99
0.60782	99.98
0.62448	99.98
0.64115	99.98
0.65782	99.99
0.67448	99.98
0.69115	99.98
0.70782	99.98
0.72448	99.99
0.74115	99.98
0.75782	99.98
0.77448	99.98
0.79115	99.98
0.80782	99.99
0.82448	99.98
0.84115	99.98
0.85782	99.98
0.87448	99.99
0.89115	99.98
0.90782	99.98
0.92448	99.99
0.94115	99.98
0.95782	99.98
0.97448	99.98
0.99115	99.98
1.00782	99.98
1.02448	99.99
1.04115	99.98
1.05782	99.98
1.07448	99.98
1.09115	99.98
1.10782	99.98
1.12448	99.98
1.14115	99.98
1.15782	99.99
1.17448	99.98
1.19115	99.98
1.20782	99.98
1.22448	99.98
1.24115	99.99
1.25782	99.98
1.27448	99.98
1.29115	99.99
1.30782	99.99
1.32448	99.99
1.34115	99.99
1.35782	99.99
1.37448	99.99
1.39115	99.99
1.40782	99.99
1.42448	99.99
1.44115	99.99
1.45782	99.99
1.47448	99.99
1.49115	99.99
1.50782	99.99
1.52448	99.99
1.54115	99.99
1.55782	99.99
1.57448	99.99
1.59115	99.99
1.60782	99.99
1.62448	99.99
1.64115	99.99
1.65782	99.99
1.67448	99.99
1.69115	99.99
1.70782	99.99
1.72448	99.99
1.74115	99.99
1.75782	99.99
1.77448	99.99
1.79115	99.99
1.80782	99.99
1.82448	99.99
1.84115	99.99
1.85782	99.99
1.87448	99.99
1.89115	99.99
1.90782	99.99
1.92448	99.98
1.94115	99.98
1.95782	99.98
1.97448	99.98
1.99115	99.98
2.00782	99.98
2.02448	99.98
2.04115	99.98
2.05782	99.98
2.07448	99.98
2.09115	99.97
2.10782	99.98
2.12448	99.98
2.14115	99.97
2.15782	99.97
2.17448	99.97
2.19115	99.97
2.20782	99.97
2.22448	99.97
2.24115	99.97
2.25782	99.97
2.27448	99.97
2.29115	99.97
2.30782	99.97
2.32448	99.97
2.34115	99.97
2.35782	99.97
2.37448	99.97
2.39115	99.97
2.40782	99.97
2.42448	99.97
2.44115	99.97
2.45782	99.97
2.47448	99.97
2.49115	99.97
2.50782	99.97
2.52448	99.97
2.54115	99.97
2.55782	99.97
2.57448	99.97
2.59115	99.98
2.60782	99.98
2.62448	99.98
2.64115	99.98
2.65782	99.98
2.67448	99.98
2.69115	99.98
2.70782	99.99
2.72448	99.99
2.74115	99.99
2.75782	99.99
2.77448	99.99
2.79115	99.99
2.80782	99.99
2.82448	99.99
2.84115	100.00
2.85782	100.00
2.87448	100.00
2.89115	100.00
2.90782	100.00
2.92448	100.00
2.94115	100.01
2.95782	100.01
2.97448	100.02
2.99115	100.01
3.00782	100.01
3.02448	100.02
3.04115	100.02
3.05782	100.02
3.07448	100.01
3.09115	100.02
3.10782	100.02
3.12448	100.02
3.14115	100.02
3.15782	100.02
3.17448	100.02
3.19115	100.02
3.20782	100.03
3.22448	100.02
3.24115	100.03
3.25782	100.03
3.27448	100.03
3.29115	100.03
3.30782	100.03
3.32448	100.03
3.34115	100.03
3.35782	100.03
3.37448	100.04
3.39115	100.03
3.40782	100.03
3.42448	100.03
3.44115	100.03
3.45782	100.03
3.47448	100.03
3.49115	100.04
3.50782	100.03
3.52448	100.04
3.54115	100.04
3.55782	100.04
3.57448	100.04
3.59115	100.04
3.60782	100.04
3.62448	100.04
3.64115	100.04
3.65782	100.04
3.67448	100.04
3.69115	100.04
3.70782	100.04
3.72448	100.04
3.74115	100.04
3.75782	100.04
3.77448	100.04
3.79115	100.05
3.80782	100.04
3.82448	100.04
3.84115	100.04
3.85782	100.05
3.87448	100.05
3.89115	100.05
3.90782	100.05
3.92448	100.05
3.94115	100.05
3.95782	100.05
3.97448	100.05
3.99115	100.05

[Status Trace (Carrier Gas Pressure)]
Interval(msec)	1000
# of Points	240
Start Time(min)	0.008
End Time(min)	3.991
Intensity Units	
Intensity Multiplier	1
R.Time (min)	Intensity
0.00782	58.00
0.02448	55.41
0.04115	57.09
0.05782	59.13
0.07448	59.52
0.09115	58.08
0.10782	57.97
0.12448	58.01
0.14115	58.01
0.15782	58.01
0.17448	58.00
0.19115	58.00
0.20782	58.00
0.22448	58.00
0.24115	58.00
0.25782	58.00
0.27448	58.00
0.29115	58.00
0.30782	58.00
0.32448	58.00
0.34115	58.00
0.35782	58.00
0.37448	58.00
0.39115	58.00
0.40782	58.00
0.42448	58.00
0.44115	58.00
0.45782	58.00
0.47448	58.00
0.49115	58.00
0.50782	58.00
0.52448	58.00
0.54115	58.00
0.55782	58.00
0.57448	58.00
0.59115	58.00
0.60782	58.00
0.62448	58.00
0.64115	58.00
0.65782	58.00
0.67448	58.00
0.69115	58.00
0.70782	58.00
0.72448	58.00
0.74115	58.00
0.75782	58.00
0.77448	58.00
0.79115	58.00
0.80782	58.00
0.82448	58.00
0.84115	58.00
0.85782	58.00
0.87448	58.00
0.89115	58.00
0.90782	58.00
0.92448	58.00
0.94115	58.00
0.95782	58.00
0.97448	58.00
0.99115	58.00
1.00782	58.00
1.02448	58.00
1.04115	58.00
1.05782	58.00
1.07448	58.00
1.09115	58.00
1.10782	58.00
1.12448	58.00
1.14115	58.00
1.15782	58.00
1.17448	58.00
1.19115	58.00
1.20782	58.00
1.22448	58.00
1.24115	58.00
1.25782	58.00
1.27448	58.00
1.29115	58.00
1.30782	58.00
1.32448	58.00
1.34115	58.00
1.35782	58.00
1.37448	58.00
1.39115	58.00
1.40782	58.00
1.42448	58.00
1.44115	58.00
1.45782	58.00
1.47448	58.00
1.49115	58.00
1.50782	58.00
1.52448	58.00
1.54115	58.00
1.55782	58.00
1.57448	58.00
1.59115	58.00
1.60782	58.00
1.62448	58.00
1.64115	58.00
1.65782	58.00
1.67448	58.01
1.69115	58.00
1.70782	58.00
1.72448	58.00
1.74115	58.00
1.75782	58.00
1.77448	58.00
1.79115	58.00
1.80782	58.00
1.82448	58.00
1.84115	58.00
1.85782	58.00
1.87448	58.00
1.89115	58.00
1.90782	58.00
1.92448	58.00
1.94115	58.00
1.95782	58.00
1.97448	58.00
1.99115	58.00
2.00782	58.00
2.02448	58.00
2.04115	58.00
2.05782	58.00
2.07448	58.00
2.09115	58.00
2.10782	58.00
2.12448	58.00
2.14115	58.00
2.15782	58.00
2.17448	58.00
2.19115	58.00
2.20782	58.00
2.22448	58.00
2.24115	58.00
2.25782	58.00
2.27448	58.00
2.29115	58.00
2.30782	58.00
2.32448	58.00
2.34115	58.00
2.35782	58.00
2.37448	58.00
2.39115	57.99
2.40782	57.99
2.42448	58.00
2.44115	58.00
2.45782	58.00
2.47448	58.00
2.49115	58.00
2.50782	58.00
2.52448	57.99
2.54115	58.00
2.55782	58.00
2.57448	58.00
2.59115	58.00
2.60782	58.00
2.62448	58.00
2.64115	58.00
2.65782	58.00
2.67448	58.00
2.69115	58.00
2.70782	58.00
2.72448	58.00
2.74115	58.00
2.75782	58.00
2.77448	58.00
2.79115	58.00
2.80782	58.00
2.82448	58.00
2.84115	58.00
2.85782	58.00
2.87448	58.00
2.89115	58.00
2.90782	58.00
2.92448	58.00
2.94115	58.00
2.95782	58.00
2.97448	58.00
2.99115	58.00
3.00782	58.00
3.02448	58.00
3.04115	58.00
3.05782	58.00
3.07448	58.00
3.09115	58.00
3.10782	58.00
3.12448	58.00
3.14115	58.00
3.15782	58.00
3.17448	58.00
3.19115	58.00
3.20782	58.00
3.22448	58.00
3.24115	58.00
3.25782	58.00
3.27448	58.00
3.29115	58.00
3.30782	58.00
3.32448	58.00
3.34115	58.00
3.35782	58.00
3.37448	58.00
3.39115	58.00
3.40782	58.00
3.42448	58.00
3.44115	58.00
3.45782	58.00
3.47448	58.00
3.49115	58.00
3.50782	58.00
3.52448	58.00
3.54115	58.00
3.55782	58.00
3.57448	58.00
3.59115	58.00
3.60782	58.00
3.62448	58.00
3.64115	58.00
3.65782	58.00
3.67448	58.00
3.69115	58.00
3.70782	58.00
3.72448	58.00
3.74115	58.00
3.75782	58.00
3.77448	58.00
3.79115	58.00
3.80782	58.00
3.82448	58.00
3.84115	58.00
3.85782	58.00
3.87448	58.00
3.89115	58.00
3.90782	58.00
3.92448	58.00
3.94115	58.00
3.95782	58.00
3.97448	58.00
3.99115	58.00

[Status Trace (Carrier Gas Flow)]
Interval(msec)	1000
# of Points	240
Start Time(min)	0.008
End Time(min)	3.991
Intensity Units	
Intensity Multiplier	1
R.Time (min)	Intensity
0.00782	34.52
0.02448	34.54
0.04115	34.54
0.05782	34.55
0.07448	34.49
0.09115	34.52
0.10782	34.52
0.12448	34.52
0.14115	34.52
0.15782	34.52
0.17448	34.52
0.19115	34.52
0.20782	34.52
0.22448	34.52
0.24115	34.52
0.25782	34.52
0.27448	34.52
0.29115	34.52
0.30782	34.52
0.32448	34.52
0.34115	34.52
0.35782	34.52
0.37448	34.52
0.39115	34.52
0.40782	34.52
0.42448	34.52
0.44115	34.52
0.45782	34.52
0.47448	34.52
0.49115	34.52
0.50782	34.52
0.52448	34.52
0.54115	34.52
0.55782	34.52
0.57448	34.52
0.59115	34.52
0.60782	34.52
0.62448	34.52
0.64115	34.52
0.65782	34.52
0.67448	34.52
0.69115	34.52
0.70782	34.52
0.72448	34.52
0.74115	34.52
0.75782	34.52
0.77448	34.52
0.79115	34.52
0.80782	34.52
0.82448	34.52
0.84115	34.52
0.85782	34.52
0.87448	34.52
0.89115	34.52
0.90782	34.52
0.92448	34.52
0.94115	34.52
0.95782	34.52
0.97448	34.52
0.99115	34.52
1.00782	34.52
1.02448	34.52
1.04115	34.52
1.05782	34.52
1.07448	34.52
1.09115	34.52
1.10782	34.52
1.12448	34.52
1.14115	34.52
1.15782	34.52
1.17448	34.52
1.19115	34.52
1.20782	34.52
1.22448	34.52
1.24115	34.52
1.25782	34.52
1.27448	34.52
1.29115	34.52
1.30782	34.52
1.32448	34.52
1.34115	34.52
1.35782	34.52
1.37448	34.52
1.39115	34.52
1.40782	34.52
1.42448	34.52
1.44115	34.52
1.45782	34.52
1.47448	34.52
1.49115	34.52
1.50782	34.52
1.52448	34.52
1.54115	34.52
1.55782	34.52
1.57448	34.52
1.59115	34.52
1.60782	34.52
1.62448	34.52
1.64115	34.52
1.65782	34.52
1.67448	34.52
1.69115	34.52
1.70782	34.52
1.72448	34.52
1.74115	34.52
1.75782	34.52
1.77448	34.52
1.79115	34.52
1.80782	34.52
1.82448	34.52
1.84115	34.52
1.85782	34.52
1.87448	34.52
1.89115	34.52
1.90782	34.52
1.92448	34.52
1.94115	34.52
1.95782	34.52
1.97448	34.52
1.99115	34.52
2.00782	34.52
2.02448	34.52
2.04115	34.52
2.05782	34.52
2.07448	34.52
2.09115	34.52
2.10782	34.52
2.12448	34.52
2.14115	34.52
2.15782	34.52
2.17448	34.52
2.19115	34.52
2.20782	34.52
2.22448	34.52
2.24115	34.52
2.25782	34.52
2.27448	34.52
2.29115	34.52
2.30782	34.52
2.32448	34.52
2.34115	34.52
2.35782	34.52
2.37448	34.52
2.39115	34.51
2.40782	34.52
2.42448	34.52
2.44115	34.52
2.45782	34.52
2.47448	34.52
2.49115	34.52
2.50782	34.36
2.52448	34.52
2.54115	34.52
2.55782	34.52
2.57448	34.52
2.59115	34.52
2.60782	34.52
2.62448	34.52
2.64115	34.52
2.65782	34.52
2.67448	34.52
2.69115	34.52
2.70782	34.52
2.72448	34.52
2.74115	34.52
2.75782	34.52
2.77448	34.52
2.79115	34.52
2.80782	34.52
2.82448	34.52
2.84115	34.52
2.85782	34.52
2.87448	34.52
2.89115	34.52
2.90782	34.52
2.92448	34.52
2.94115	34.52
2.95782	34.52
2.97448	34.52
2.99115	34.52
3.00782	34.52
3.02448	34.52
3.04115	34.52
3.05782	34.52
3.07448	34.52
3.09115	34.52
3.10782	34.52
3.12448	34.52
3.14115	34.52
3.15782	34.52
3.17448	34.52
3.19115	34.52
3.20782	34.50
3.22448	34.52
3.24115	34.52
3.25782	34.52
3.27448	34.52
3.29115	34.52
3.30782	34.52
3.32448	34.52
3.34115	34.52
3.35782	34.52
3.37448	34.52
3.39115	34.52
3.40782	34.52
3.42448	34.52
3.44115	34.52
3.45782	34.52
3.47448	34.52
3.49115	34.52
3.50782	34.52
3.52448	34.52
3.54115	34.52
3.55782	34.52
3.57448	34.52
3.59115	34.52
3.60782	34.52
3.62448	34.52
3.64115	34.52
3.65782	34.52
3.67448	34.52
3.69115	34.52
3.70782	34.52
3.72448	34.52
3.74115	34.52
3.75782	34.52
3.77448	34.52
3.79115	34.52
3.80782	34.52
3.82448	34.52
3.84115	34.52
3.85782	34.52
3.87448	34.52
3.89115	34.52
3.90782	34.52
3.92448	34.52
3.94115	34.52
3.95782	34.52
3.97448	34.52
3.99115	34.52

[Status Trace (Column Flow)]
Interval(msec)	1000
# of Points	240
Start Time(min)	0.008
End Time(min)	3.991
Intensity Units	
Intensity Multiplier	1
R.Time (min)	Intensity
0.00782	5.44
0.02448	5.14
0.04115	5.34
0.05782	5.57
0.07448	5.62
0.09115	5.45
0.10782	5.44
0.12448	5.44
0.14115	5.44
0.15782	5.44
0.17448	5.44
0.19115	5.44
0.20782	5.44
0.22448	5.44
0.24115	5.44
0.25782	5.44
0.27448	5.44
0.29115	5.44
0.30782	5.44
0.32448	5.44
0.34115	5.44
0.35782	5.44
0.37448	5.44
0.39115	5.44
0.40782	5.44
0.42448	5.44
0.44115	5.44
0.45782	5.44
0.47448	5.44
0.49115	5.44
0.50782	5.44
0.52448	5.44
0.54115	5.44
0.55782	5.44
0.57448	5.44
0.59115	5.44
0.60782	5.44
0.62448	5.44
0.64115	5.44
0.65782	5.44
0.67448	5.44
0.69115	5.44
0.70782	5.44
0.72448	5.44
0.74115	5.44
0.75782	5.44
0.77448	5.44
0.79115	5.44
0.80782	5.44
0.82448	5.44
0.84115	5.44
0.85782	5.44
0.87448	5.44
0.89115	5.44
0.90782	5.44
0.92448	5.44
0.94115	5.44
0.95782	5.44
0.97448	5.44
0.99115	5.44
1.00782	5.44
1.02448	5.44
1.04115	5.44
1.05782	5.44
1.07448	5.44
1.09115	5.44
1.10782	5.44
1.12448	5.44
1.14115	5.44
1.15782	5.44
1.17448	5.44
1.19115	5.44
1.20782	5.44
1.22448	5.44
1.24115	5.44
1.25782	5.44
1.27448	5.44
1.29115	5.44
1.30782	5.44
1.32448	5.44
1.34115	5.44
1.35782	5.44
1.37448	5.44
1.39115	5.44
1.40782	5.44
1.42448	5.44
1.44115	5.44
1.45782	5.44
1.47448	5.44
1.49115	5.44
1.50782	5.44
1.52448	5.44
1.54115	5.44
1.55782	5.44
1.57448	5.44
1.59115	5.44
1.60782	5.44
1.62448	5.44
1.64115	5.43
1.65782	5.42
1.67448	5.41
1.69115	5.40
1.70782	5.39
1.72448	5.38
1.74115	5.37
1.75782	5.36
1.77448	5.35
1.79115	5.34
1.80782	5.33
1.82448	5.32
1.84115	5.31
1.85782	5.30
1.87448	5.29
1.89115	5.28
1.90782	5.27
1.92448	5.26
1.94115	5.25
1.95782	5.24
1.97448	5.23
1.99115	5.22
2.00782	5.21
2.02448	5.20
2.04115	5.19
2.05782	5.18
2.07448	5.17
2.09115	5.16
2.10782	5.15
2.12448	5.15
2.14115	5.14
2.15782	5.13
2.17448	5.12
2.19115	5.11
2.20782	5.10
2.22448	5.09
2.24115	5.08
2.25782	5.07
2.27448	5.06
2.29115	5.05
2.30782	5.04
2.32448	5.04
2.34115	5.03
2.35782	5.02
2.37448	5.01
2.39115	5.01
2.40782	5.01
2.42448	5.01
2.44115	5.01
2.45782	5.01
2.47448	5.01
2.49115	5.01
2.50782	5.01
2.52448	5.01
2.54115	5.01
2.55782	5.01
2.57448	5.01
2.59115	5.01
2.60782	5.01
2.62448	5.01
2.64115	5.01
2.65782	5.01
2.67448	5.01
2.69115	5.01
2.70782	5.01
2.72448	5.01
2.74115	5.01
2.75782	5.01
2.77448	5.01
2.79115	5.01
2.80782	5.01
2.82448	5.01
2.84115	5.01
2.85782	5.01
2.87448	5.01
2.89115	5.01
2.90782	5.01
2.92448	5.01
2.94115	5.00
2.95782	5.00
2.97448	5.00
2.99115	5.00
3.00782	5.00
3.02448	5.00
3.04115	5.00
3.05782	5.00
3.07448	5.00
3.09115	5.00
3.10782	5.00
3.12448	5.00
3.14115	5.00
3.15782	5.00
3.17448	5.00
3.19115	5.00
3.20782	5.00
3.22448	5.00
3.24115	5.00
3.25782	5.00
3.27448	5.00
3.29115	5.00
3.30782	5.00
3.32448	5.00
3.34115	5.00
3.35782	5.00
3.37448	5.00
3.39115	5.00
3.40782	5.00
3.42448	5.00
3.44115	5.00
3.45782	5.00
3.47448	5.00
3.49115	5.00
3.50782	5.00
3.52448	5.00
3.54115	5.00
3.55782	5.00
3.57448	5.00
3.59115	5.00
3.60782	5.00
3.62448	5.00
3.64115	5.00
3.65782	5.00
3.67448	5.00
3.69115	5.00
3.70782	5.00
3.72448	5.00
3.74115	5.00
3.75782	5.00
3.77448	5.00
3.79115	5.00
3.80782	5.00
3.82448	5.00
3.84115	5.00
3.85782	5.00
3.87448	5.00
3.89115	5.00
3.90782	5.00
3.92448	5.00
3.94115	5.00
3.95782	5.00
3.97448	5.00
3.99115	5.00

[Status Trace (Linear Velocity)]
Interval(msec)	1000
# of Points	240
Start Time(min)	0.008
End Time(min)	3.991
Intensity Units	
Intensity Multiplier	1
R.Time (min)	Intensity
0.00782	39.00
0.02448	37.30
0.04115	38.40
0.05782	39.74
0.07448	40.00
0.09115	39.05
0.10782	38.98
0.12448	39.00
0.14115	39.00
0.15782	39.00
0.17448	39.00
0.19115	39.00
0.20782	39.00
0.22448	39.00
0.24115	39.00
0.25782	39.00
0.27448	39.00
0.29115	39.00
0.30782	39.00
0.32448	39.00
0.34115	39.00
0.35782	39.00
0.37448	39.00
0.39115	39.00
0.40782	39.00
0.42448	39.00
0.44115	39.00
0.45782	39.00
0.47448	39.00
0.49115	39.00
0.50782	39.00
0.52448	39.00
0.54115	39.00
0.55782	39.00
0.57448	39.00
0.59115	39.00
0.60782	39.00
0.62448	39.00
0.64115	39.00
0.65782	39.00
0.67448	39.00
0.69115	39.00
0.70782	39.00
0.72448	39.00
0.74115	39.00
0.75782	39.00
0.77448	39.00
0.79115	39.00
0.80782	39.00
0.82448	39.00
0.84115	39.00
0.85782	39.00
0.87448	39.00
0.89115	39.00
0.90782	39.00
0.92448	39.00
0.94115	39.00
0.95782	39.00
0.97448	39.00
0.99115	39.00
1.00782	39.00
1.02448	39.00
1.04115	39.00
1.05782	39.00
1.07448	39.00
1.09115	39.00
1.10782	39.00
1.12448	39.00
1.14115	39.00
1.15782	39.00
1.17448	39.00
1.19115	39.00
1.20782	39.00
1.22448	38.99
1.24115	38.99
1.25782	38.99
1.27448	38.99
1.29115	39.00
1.30782	39.00
1.32448	39.00
1.34115	39.00
1.35782	39.00
1.37448	39.00
1.39115	39.00
1.40782	39.00
1.42448	39.00
1.44115	38.99
1.45782	38.99
1.47448	39.00
1.49115	39.00
1.50782	39.00
1.52448	39.00
1.54115	39.00
1.55782	39.00
1.57448	39.00
1.59115	39.00
1.60782	38.99
1.62448	38.99
1.64115	38.97
1.65782	38.94
1.67448	38.91
1.69115	38.87
1.70782	38.84
1.72448	38.81
1.74115	38.77
1.75782	38.75
1.77448	38.71
1.79115	38.68
1.80782	38.65
1.82448	38.62
1.84115	38.58
1.85782	38.56
1.87448	38.53
1.89115	38.49
1.90782	38.46
1.92448	38.43
1.94115	38.40
1.95782	38.37
1.97448	38.34
1.99115	38.31
2.00782	38.28
2.02448	38.25
2.04115	38.22
2.05782	38.19
2.07448	38.16
2.09115	38.13
2.10782	38.10
2.12448	38.07
2.14115	38.04
2.15782	38.01
2.17448	37.98
2.19115	37.95
2.20782	37.93
2.22448	37.90
2.24115	37.87
2.25782	37.84
2.27448	37.81
2.29115	37.78
2.30782	37.75
2.32448	37.72
2.34115	37.69
2.35782	37.66
2.37448	37.64
2.39115	37.63
2.40782	37.63
2.42448	37.64
2.44115	37.64
2.45782	37.63
2.47448	37.63
2.49115	37.63
2.50782	37.63
2.52448	37.62
2.54115	37.63
2.55782	37.63
2.57448	37.63
2.59115	37.63
2.60782	37.63
2.62448	37.63
2.64115	37.63
2.65782	37.63
2.67448	37.63
2.69115	37.63
2.70782	37.63
2.72448	37.63
2.74115	37.63
2.75782	37.62
2.77448	37.62
2.79115	37.62
2.80782	37.62
2.82448	37.62
2.84115	37.62
2.85782	37.62
2.87448	37.62
2.89115	37.62
2.90782	37.62
2.92448	37.62
2.94115	37.62
2.95782	37.62
2.97448	37.62
2.99115	37.61
3.00782	37.61
3.02448	37.61
3.04115	37.61
3.05782	37.61
3.07448	37.61
3.09115	37.61
3.10782	37.61
3.12448	37.61
3.14115	37.61
3.15782	37.61
3.17448	37.61
3.19115	37.61
3.20782	37.61
3.22448	37.60
3.24115	37.60
3.25782	37.60
3.27448	37.60
3.29115	37.61
3.30782	37.61
3.32448	37.61
3.34115	37.61
3.35782	37.61
3.37448	37.61
3.39115	37.61
3.40782	37.61
3.42448	37.61
3.44115	37.61
3.45782	37.61
3.47448	37.61
3.49115	37.61
3.50782	37.61
3.52448	37.61
3.54115	37.61
3.55782	37.61
3.57448	37.61
3.59115	37.61
3.60782	37.61
3.62448	37.61
3.64115	37.61
3.65782	37.61
3.67448	37.61
3.69115	37.61
3.70782	37.61
3.72448	37.61
3.74115	37.61
3.75782	37.61
3.77448	37.61
3.79115	37.61
3.80782	37.61
3.82448	37.61
3.84115	37.61
3.85782	37.61
3.87448	37.60
3.89115	37.60
3.90782	37.60
3.92448	37.61
3.94115	37.61
3.95782	37.61
3.97448	37.61
3.99115	37.61

