[Header]
Application Name	LabSolutions
Version	5.110
Data File Name	C:\Users\User\Desktop\GC Analyses\Jack\UIC Prairie Sampling\9.30.22\220930_015.gcd
Output Date	1/4/2023
Output Time	2:28:00 PM

[File Information]
Type	Data File
Generated	11/29/2022 1:19:35 PM
Generated by	System Administrator
Modified	11/29/2022 1:23:55 PM
Modified by	System Administrator

[Sample Information]
Operator Name	System Administrator
Acquired	11/29/2022 1:19:55 PM
Sample Type	1:Standard
Level	1
Sample Name	220930_UICPrairie
Sample ID	220930_UICPrairie
ISTD Amount1	1
ISTD Amount2	1
ISTD Amount3	1
ISTD Amount4	1
ISTD Amount5	1
ISTD Amount6	1
ISTD Amount7	1
ISTD Amount8	1
ISTD Amount9	1
ISTD Amount10	1
ISTD Amount11	1
ISTD Amount12	1
ISTD Amount13	1
ISTD Amount14	1
ISTD Amount15	1
ISTD Amount16	1
ISTD Amount17	1
ISTD Amount18	1
ISTD Amount19	1
ISTD Amount20	1
ISTD Amount21	1
ISTD Amount22	1
ISTD Amount23	1
ISTD Amount24	1
ISTD Amount25	1
ISTD Amount26	1
ISTD Amount27	1
ISTD Amount28	1
ISTD Amount29	1
ISTD Amount30	1
ISTD Amount31	1
ISTD Amount32	1
Sample Amount	1
Dilution Factor	1
Vial#	1
Injection Volume	1
Injection Count	1
Bar Code	

[Original Files]
Data File	C:\Users\User\Desktop\GC Analyses\Jack\UIC Prairie Sampling\9.30.22\220930_015.gcd
Method File	C:\LabSolutions\Data\GHG_4min_2022\ghg3_togas_w_acet_4 min_new_int.gcm
Batch File	
Report Format File	c:\LabSolutions\System\DEFAULT.lsr

[File Description]


[Configuration]
Instrument Name	C0B7VH3-Instrument1
Instrument #	1
Line #	1
# of Detectors	3
Detector ID	DET#1	DET#2	DET#3
Detector Name	FID	PTCD	ECD
# of Channels	1	1	1

[Peak Table(Ch1)]
# of Peaks	3
Peak#	R.Time	I.Time	F.Time	Area	Height	A/H	Conc.	Mark	ID#	Name	k'	Plate #	Plate Ht.	Tailing	Resolution	Sep.Factor	Area Ratio	Height Ratio	Conc. %	Norm Conc.
1	1.476	1.432	1.538	18257	8437	2.164	100.000	   	1	CO	0.000	8877	16.898	1.321	0.000	0.000	0	0	16.667	16.667
2	1.571	1.538	1.630	5266	2670	1.973	100.000	 V 	2	CH4	0.065	11545	12.992	1.039	1.574	0.000	0	0	16.667	16.667
3	2.000	1.952	2.345	1286117	620583	2.072	400.000	   	3	CO2	0.355	17748	8.452	1.213	7.238	5.500	0	0	66.667	66.667

[Peak Table(Ch2)]
# of Peaks	0

[Peak Table(Ch3)]
# of Peaks	6
Peak#	R.Time	I.Time	F.Time	Area	Height	A/H	Conc.	Mark	ID#	Name	k'	Plate #	Plate Ht.	Tailing	Resolution	Sep.Factor	Area Ratio	Height Ratio	Conc. %	Norm Conc.
1	0.786	0.214	1.366	761	20	37.284	0.000	   			0.000	185	809.646	1.003	0.000	0.000	0	0	0.000	0.000
2	2.458	2.326	2.502	1408	325	4.336	0.000	   			2.126	7211	20.802	0.000	9.640	0.000	0	0	0.000	0.000
3	2.521	2.502	2.565	659	199	3.307	0.000	 V 			2.206	1730	86.697	0.000	0.348	1.037	0	0	0.000	0.000
4	2.609	2.565	2.656	752	202	3.727	0.000	 V 			2.318	3632	41.295	0.000	0.424	1.051	0	0	0.000	0.000
5	2.884	2.678	3.129	24608	5200	4.732	1.000	   	1	N2O	2.667	13868	10.817	0.000	2.029	1.151	0	0	50.000	50.000
6	3.217	3.129	3.962	12399	463	26.758	1.000	 V 	2	SF6	3.092	29	5093.678	0.000	0.270	1.159	0	0	50.000	50.000

[Compound Results(Ch1)]
# of IDs	6
ID#	Name	R.Time	Area	Height	Conc.	Curve	3rd	2nd	1st	Constant	Area Ratio	Height Ratio	Conc. %	Norm Conc.
1	CO	1.476	18257	8437	100.000	Linear	0.000000e+00	0.000000e+00	1.825669e+002	0.000000e+00	0	0	16.667	16.667
2	CH4	1.571	5266	2670	100.000	Linear	0.000000e+00	0.000000e+00	5.265946e+001	0.000000e+00	0	0	16.667	16.667
3	CO2	2.000	1286117	620583	400.000	Linear	0.000000e+00	0.000000e+00	3.215292e+003	0.000000e+00	0	0	66.667	66.667
4	Ethylene	0.000	0	0	0.000	Linear	0.000000e+00	0.000000e+00	0.000000e+00	0.000000e+00	0	0	0.000	0.000
5	Acetylene	0.000	0	0	0.000	Linear	0.000000e+00	0.000000e+00	0.000000e+00	0.000000e+00	0	0	0.000	0.000
6	Ethane	0.000	0	0	0.000	Linear	0.000000e+00	0.000000e+00	0.000000e+00	0.000000e+00	0	0	0.000	0.000

[Compound Results(Ch2)]
# of IDs	5
ID#	Name	R.Time	Area	Height	Conc.	Curve	3rd	2nd	1st	Constant	Area Ratio	Height Ratio	Conc. %	Norm Conc.
1	Hydrogen	0.000	0	0	0.000	Linear	0.000000e+00	0.000000e+00	0.000000e+00	0.000000e+00	0	0	0.000	0.000
2	Oxygen	0.000	0	0	0.000	Linear	0.000000e+00	0.000000e+00	0.000000e+00	0.000000e+00	0	0	0.000	0.000
3	Nitrogen	0.000	0	0	0.000	Linear	0.000000e+00	0.000000e+00	0.000000e+00	0.000000e+00	0	0	0.000	0.000
4	Methane	0.000	0	0	0.000	Linear	0.000000e+00	0.000000e+00	0.000000e+00	0.000000e+00	0	0	0.000	0.000
5	Carbon Monoxide	0.000	0	0	0.000	Linear	0.000000e+00	0.000000e+00	0.000000e+00	0.000000e+00	0	0	0.000	0.000

[Compound Results(Ch3)]
# of IDs	2
ID#	Name	R.Time	Area	Height	Conc.	Curve	3rd	2nd	1st	Constant	Area Ratio	Height Ratio	Conc. %	Norm Conc.
1	N2O	2.884	24608	5200	1.000	Linear	0.000000e+00	0.000000e+00	2.460837e+004	0.000000e+00	0	0	50.000	50.000
2	SF6	3.217	12399	463	1.000	Linear	0.000000e+00	0.000000e+00	1.239885e+004	0.000000e+00	0	0	50.000	50.000

[Group Results(Ch1)]
# of Groups	0

[Group Results(Ch2)]
# of Groups	0

[Group Results(Ch3)]
# of Groups	0

[Chromatogram (Ch1)]
Interval(msec)	220
# of Points	1091
Start Time(min)	0.002
End Time(min)	3.998
R.Time (min)	Intensity
0.00167	-10
0.00533	-4
0.00900	2
0.01267	7
0.01633	11
0.02000	13
0.02367	13
0.02733	14
0.03100	18
0.03467	21
0.03833	17
0.04200	8
0.04567	-0
0.04933	-6
0.05300	-9
0.05667	-6
0.06033	0
0.06400	8
0.06767	16
0.07133	21
0.07500	25
0.07867	28
0.08233	29
0.08600	26
0.08967	21
0.09333	13
0.09700	5
0.10067	-2
0.10433	-7
0.10800	-10
0.11167	-10
0.11533	-8
0.11900	-7
0.12267	-6
0.12633	-5
0.13000	-2
0.13367	-3
0.13733	-11
0.14100	-21
0.14467	-28
0.14833	-31
0.15200	-31
0.15567	-28
0.15933	-24
0.16300	-23
0.16667	-22
0.17033	-19
0.17400	-15
0.17767	-11
0.18133	-7
0.18500	-4
0.18867	1
0.19233	1
0.19600	-3
0.19967	-7
0.20333	-10
0.20700	-13
0.21067	-14
0.21433	-13
0.21800	-13
0.22167	-15
0.22533	-17
0.22900	-17
0.23267	-13
0.23633	-8
0.24000	-1
0.24367	3
0.24733	5
0.25100	6
0.25467	6
0.25833	3
0.26200	-1
0.26567	-7
0.26933	-14
0.27300	-18
0.27667	-18
0.28033	-12
0.28400	6
0.28767	32
0.29133	53
0.29500	64
0.29867	69
0.30233	69
0.30600	69
0.30967	67
0.31333	65
0.31700	66
0.32067	69
0.32433	70
0.32800	70
0.33167	68
0.33533	68
0.33900	69
0.34267	69
0.34633	67
0.35000	57
0.35367	43
0.35733	30
0.36100	24
0.36467	20
0.36833	18
0.37200	21
0.37567	29
0.37933	34
0.38300	37
0.38667	38
0.39033	38
0.39400	39
0.39767	44
0.40133	48
0.40500	49
0.40867	50
0.41233	52
0.41600	54
0.41967	52
0.42333	47
0.42700	45
0.43067	50
0.43433	56
0.43800	61
0.44167	61
0.44533	58
0.44900	51
0.45267	45
0.45633	43
0.46000	41
0.46367	39
0.46733	38
0.47100	37
0.47467	37
0.47833	40
0.48200	46
0.48567	51
0.48933	53
0.49300	54
0.49667	55
0.50033	55
0.50400	56
0.50767	56
0.51133	51
0.51500	42
0.51867	31
0.52233	24
0.52600	21
0.52967	24
0.53333	28
0.53700	29
0.54067	32
0.54433	33
0.54800	31
0.55167	26
0.55533	22
0.55900	22
0.56267	29
0.56633	41
0.57000	51
0.57367	55
0.57733	55
0.58100	50
0.58467	42
0.58833	34
0.59200	28
0.59567	20
0.59933	15
0.60300	13
0.60667	15
0.61033	20
0.61400	23
0.61767	20
0.62133	16
0.62500	15
0.62867	19
0.63233	24
0.63600	24
0.63967	22
0.64333	19
0.64700	17
0.65067	14
0.65433	11
0.65800	5
0.66167	-1
0.66533	-4
0.66900	-2
0.67267	5
0.67633	13
0.68000	18
0.68367	23
0.68733	27
0.69100	25
0.69467	24
0.69833	27
0.70200	30
0.70567	34
0.70933	38
0.71300	38
0.71667	37
0.72033	35
0.72400	34
0.72767	27
0.73133	18
0.73500	11
0.73867	4
0.74233	-2
0.74600	-5
0.74967	-4
0.75333	-0
0.75700	3
0.76067	4
0.76433	5
0.76800	7
0.77167	10
0.77533	13
0.77900	13
0.78267	10
0.78633	7
0.79000	8
0.79367	9
0.79733	9
0.80100	8
0.80467	7
0.80833	5
0.81200	3
0.81567	-0
0.81933	-5
0.82300	-11
0.82667	-16
0.83033	-18
0.83400	-20
0.83767	-24
0.84133	-26
0.84500	-25
0.84867	-21
0.85233	-18
0.85600	-18
0.85967	-21
0.86333	-24
0.86700	-26
0.87067	-27
0.87433	-27
0.87800	-25
0.88167	-23
0.88533	-20
0.88900	-15
0.89267	-12
0.89633	-10
0.90000	-8
0.90367	-7
0.90733	-9
0.91100	-12
0.91467	-15
0.91833	-19
0.92200	-25
0.92567	-27
0.92933	-25
0.93300	-21
0.93667	-16
0.94033	-12
0.94400	-8
0.94767	-5
0.95133	-4
0.95500	-6
0.95867	-10
0.96233	-15
0.96600	-21
0.96967	-24
0.97333	-23
0.97700	-21
0.98067	-22
0.98433	-22
0.98800	-21
0.99167	-21
0.99533	-19
0.99900	-18
1.00267	-20
1.00633	-22
1.01000	-26
1.01367	-28
1.01733	-31
1.02100	-32
1.02467	-31
1.02833	-29
1.03200	-30
1.03567	-33
1.03933	-34
1.04300	-35
1.04667	-38
1.05033	-43
1.05400	-47
1.05767	-49
1.06133	-50
1.06500	-48
1.06867	-45
1.07233	-44
1.07600	-42
1.07967	-39
1.08333	-35
1.08700	-32
1.09067	-32
1.09433	-34
1.09800	-36
1.10167	-35
1.10533	-34
1.10900	-35
1.11267	-36
1.11633	-38
1.12000	-38
1.12367	-37
1.12733	-36
1.13100	-33
1.13467	-29
1.13833	-28
1.14200	-30
1.14567	-38
1.14933	-44
1.15300	-47
1.15667	-46
1.16033	-45
1.16400	-46
1.16767	-53
1.17133	-63
1.17500	-70
1.17867	-70
1.18233	-68
1.18600	-66
1.18967	-65
1.19333	-64
1.19700	-60
1.20067	-55
1.20433	-48
1.20800	-41
1.21167	-35
1.21533	-33
1.21900	-36
1.22267	-40
1.22633	-42
1.23000	-43
1.23367	-43
1.23733	-42
1.24100	-44
1.24467	-50
1.24833	-56
1.25200	-58
1.25567	-59
1.25933	-62
1.26300	-68
1.26667	-74
1.27033	-74
1.27400	-71
1.27767	-69
1.28133	-70
1.28500	-76
1.28867	-80
1.29233	-81
1.29600	-78
1.29967	-72
1.30333	-64
1.30700	-55
1.31067	-51
1.31433	-50
1.31800	-49
1.32167	-50
1.32533	-49
1.32900	-50
1.33267	-52
1.33633	-54
1.34000	-57
1.34367	-63
1.34733	-70
1.35100	-77
1.35467	-83
1.35833	-86
1.36200	-84
1.36567	-79
1.36933	-73
1.37300	-67
1.37667	-64
1.38033	-65
1.38400	-66
1.38767	-63
1.39133	-58
1.39500	-55
1.39867	-54
1.40233	-56
1.40600	-60
1.40967	-67
1.41333	-77
1.41700	-84
1.42067	-87
1.42433	-85
1.42800	-81
1.43167	-76
1.43533	-68
1.43900	-49
1.44267	26
1.44633	216
1.45000	582
1.45367	1302
1.45733	2523
1.46100	4086
1.46467	5648
1.46833	6954
1.47200	7886
1.47567	8371
1.47933	8340
1.48300	7769
1.48667	6759
1.49033	5519
1.49400	4276
1.49767	3187
1.50133	2314
1.50500	1657
1.50867	1180
1.51233	842
1.51600	604
1.51967	432
1.52333	306
1.52700	214
1.53067	147
1.53433	101
1.53800	80
1.54167	105
1.54533	239
1.54900	546
1.55267	1010
1.55633	1529
1.56000	2001
1.56367	2363
1.56733	2582
1.57100	2624
1.57467	2465
1.57833	2130
1.58200	1698
1.58567	1262
1.58933	886
1.59300	592
1.59667	378
1.60033	231
1.60400	136
1.60767	73
1.61133	31
1.61500	7
1.61867	-7
1.62233	-18
1.62600	-27
1.62967	-33
1.63333	-37
1.63700	-39
1.64067	-46
1.64433	-53
1.64800	-62
1.65167	-69
1.65533	-74
1.65900	-73
1.66267	-71
1.66633	-71
1.67000	-73
1.67367	-75
1.67733	-79
1.68100	-81
1.68467	-81
1.68833	-79
1.69200	-75
1.69567	-75
1.69933	-75
1.70300	-76
1.70667	-79
1.71033	-80
1.71400	-81
1.71767	-81
1.72133	-81
1.72500	-81
1.72867	-80
1.73233	-77
1.73600	-73
1.73967	-69
1.74333	-71
1.74700	-75
1.75067	-79
1.75433	-80
1.75800	-76
1.76167	-71
1.76533	-66
1.76900	-63
1.77267	-62
1.77633	-64
1.78000	-67
1.78367	-68
1.78733	-66
1.79100	-64
1.79467	-64
1.79833	-68
1.80200	-76
1.80567	-83
1.80933	-89
1.81300	-91
1.81667	-93
1.82033	-90
1.82400	-82
1.82767	-76
1.83133	-76
1.83500	-75
1.83867	-76
1.84233	-77
1.84600	-80
1.84967	-84
1.85333	-84
1.85700	-78
1.86067	-72
1.86433	-68
1.86800	-67
1.87167	-68
1.87533	-67
1.87900	-65
1.88267	-62
1.88633	-63
1.89000	-70
1.89367	-79
1.89733	-84
1.90100	-84
1.90467	-79
1.90833	-70
1.91200	-61
1.91567	-53
1.91933	-51
1.92300	-56
1.92667	-63
1.93033	-67
1.93400	-67
1.93767	-66
1.94133	-63
1.94500	-59
1.94867	-55
1.95233	-45
1.95600	-3
1.95967	240
1.96333	1489
1.96700	6519
1.97067	21946
1.97433	58448
1.97800	125757
1.98167	224072
1.98533	340825
1.98900	455887
1.99267	549554
1.99633	607168
2.00000	620589
2.00367	589479
2.00733	522174
2.01100	433487
2.01467	339985
2.01833	254611
2.02200	184206
2.02567	130231
2.02933	90933
2.03300	63315
2.03667	44341
2.04033	31470
2.04400	22781
2.04767	16900
2.05133	12888
2.05500	10114
2.05867	8164
2.06233	6765
2.06600	5738
2.06967	4962
2.07333	4359
2.07700	3876
2.08067	3486
2.08433	3171
2.08800	2908
2.09167	2682
2.09533	2485
2.09900	2312
2.10267	2158
2.10633	2023
2.11000	1905
2.11367	1798
2.11733	1699
2.12100	1610
2.12467	1532
2.12833	1462
2.13200	1397
2.13567	1338
2.13933	1281
2.14300	1231
2.14667	1186
2.15033	1145
2.15400	1109
2.15767	1074
2.16133	1036
2.16500	994
2.16867	957
2.17233	925
2.17600	896
2.17967	869
2.18333	844
2.18700	821
2.19067	796
2.19433	773
2.19800	753
2.20167	735
2.20533	716
2.20900	697
2.21267	678
2.21633	660
2.22000	642
2.22367	621
2.22733	603
2.23100	590
2.23467	581
2.23833	573
2.24200	566
2.24567	557
2.24933	548
2.25300	535
2.25667	519
2.26033	505
2.26400	494
2.26767	484
2.27133	476
2.27500	468
2.27867	465
2.28233	462
2.28600	458
2.28967	452
2.29333	445
2.29700	434
2.30067	421
2.30433	407
2.30800	391
2.31167	378
2.31533	374
2.31900	374
2.32267	373
2.32633	373
2.33000	371
2.33367	369
2.33733	371
2.34100	374
2.34467	375
2.34833	371
2.35200	362
2.35567	358
2.35933	362
2.36300	368
2.36667	370
2.37033	364
2.37400	348
2.37767	331
2.38133	313
2.38500	295
2.38867	279
2.39233	271
2.39600	268
2.39967	264
2.40333	259
2.40700	255
2.41067	250
2.41433	248
2.41800	251
2.42167	255
2.42533	259
2.42900	264
2.43267	269
2.43633	274
2.44000	281
2.44367	286
2.44733	283
2.45100	275
2.45467	267
2.45833	262
2.46200	261
2.46567	264
2.46933	266
2.47300	267
2.47667	267
2.48033	265
2.48400	260
2.48767	255
2.49133	250
2.49500	248
2.49867	248
2.50233	249
2.50600	249
2.50967	249
2.51333	253
2.51700	255
2.52067	253
2.52433	250
2.52800	245
2.53167	242
2.53533	237
2.53900	232
2.54267	229
2.54633	226
2.55000	222
2.55367	217
2.55733	214
2.56100	215
2.56467	220
2.56833	225
2.57200	227
2.57567	227
2.57933	227
2.58300	225
2.58667	220
2.59033	216
2.59400	213
2.59767	207
2.60133	202
2.60500	202
2.60867	202
2.61233	202
2.61600	197
2.61967	188
2.62333	183
2.62700	181
2.63067	180
2.63433	178
2.63800	178
2.64167	181
2.64533	184
2.64900	188
2.65267	188
2.65633	185
2.66000	183
2.66367	179
2.66733	176
2.67100	176
2.67467	176
2.67833	181
2.68200	187
2.68567	191
2.68933	193
2.69300	195
2.69667	194
2.70033	189
2.70400	185
2.70767	179
2.71133	171
2.71500	164
2.71867	159
2.72233	159
2.72600	165
2.72967	170
2.73333	174
2.73700	174
2.74067	171
2.74433	167
2.74800	166
2.75167	166
2.75533	168
2.75900	170
2.76267	169
2.76633	164
2.77000	158
2.77367	156
2.77733	155
2.78100	155
2.78467	156
2.78833	157
2.79200	159
2.79567	160
2.79933	161
2.80300	159
2.80667	158
2.81033	159
2.81400	158
2.81767	159
2.82133	158
2.82500	154
2.82867	149
2.83233	146
2.83600	143
2.83967	145
2.84333	151
2.84700	160
2.85067	168
2.85433	175
2.85800	177
2.86167	176
2.86533	170
2.86900	164
2.87267	159
2.87633	152
2.88000	144
2.88367	139
2.88733	140
2.89100	144
2.89467	147
2.89833	149
2.90200	151
2.90567	155
2.90933	159
2.91300	161
2.91667	163
2.92033	161
2.92400	155
2.92767	149
2.93133	146
2.93500	149
2.93867	157
2.94233	165
2.94600	170
2.94967	170
2.95333	171
2.95700	171
2.96067	172
2.96433	173
2.96800	172
2.97167	169
2.97533	164
2.97900	157
2.98267	150
2.98633	148
2.99000	150
2.99367	155
2.99733	163
3.00100	170
3.00467	174
3.00833	177
3.01200	179
3.01567	180
3.01933	180
3.02300	180
3.02667	180
3.03033	180
3.03400	180
3.03767	179
3.04133	176
3.04500	174
3.04867	174
3.05233	173
3.05600	169
3.05967	162
3.06333	154
3.06700	146
3.07067	141
3.07433	138
3.07800	139
3.08167	142
3.08533	145
3.08900	143
3.09267	140
3.09633	139
3.10000	141
3.10367	147
3.10733	156
3.11100	163
3.11467	170
3.11833	176
3.12200	179
3.12567	179
3.12933	173
3.13300	164
3.13667	156
3.14033	149
3.14400	142
3.14767	138
3.15133	139
3.15500	140
3.15867	136
3.16233	130
3.16600	128
3.16967	130
3.17333	132
3.17700	133
3.18067	133
3.18433	135
3.18800	140
3.19167	146
3.19533	151
3.19900	152
3.20267	152
3.20633	150
3.21000	146
3.21367	141
3.21733	138
3.22100	136
3.22467	137
3.22833	140
3.23200	143
3.23567	145
3.23933	144
3.24300	143
3.24667	139
3.25033	137
3.25400	136
3.25767	134
3.26133	131
3.26500	127
3.26867	124
3.27233	122
3.27600	122
3.27967	122
3.28333	121
3.28700	119
3.29067	117
3.29433	116
3.29800	117
3.30167	122
3.30533	130
3.30900	132
3.31267	132
3.31633	136
3.32000	142
3.32367	146
3.32733	145
3.33100	140
3.33467	134
3.33833	129
3.34200	127
3.34567	128
3.34933	132
3.35300	134
3.35667	134
3.36033	132
3.36400	128
3.36767	123
3.37133	121
3.37500	120
3.37867	121
3.38233	124
3.38600	125
3.38967	125
3.39333	122
3.39700	115
3.40067	108
3.40433	105
3.40800	106
3.41167	110
3.41533	114
3.41900	116
3.42267	116
3.42633	116
3.43000	118
3.43367	121
3.43733	125
3.44100	130
3.44467	132
3.44833	129
3.45200	124
3.45567	122
3.45933	126
3.46300	132
3.46667	135
3.47033	137
3.47400	137
3.47767	134
3.48133	130
3.48500	122
3.48867	115
3.49233	109
3.49600	107
3.49967	107
3.50333	108
3.50700	108
3.51067	108
3.51433	106
3.51800	103
3.52167	102
3.52533	110
3.52900	120
3.53267	128
3.53633	130
3.54000	125
3.54367	117
3.54733	107
3.55100	100
3.55467	97
3.55833	100
3.56200	106
3.56567	113
3.56933	120
3.57300	126
3.57667	129
3.58033	127
3.58400	122
3.58767	118
3.59133	114
3.59500	111
3.59867	109
3.60233	105
3.60600	101
3.60967	97
3.61333	96
3.61700	96
3.62067	99
3.62433	104
3.62800	110
3.63167	116
3.63533	124
3.63900	130
3.64267	132
3.64633	130
3.65000	126
3.65367	121
3.65733	116
3.66100	110
3.66467	103
3.66833	97
3.67200	95
3.67567	93
3.67933	94
3.68300	99
3.68667	107
3.69033	114
3.69400	116
3.69767	115
3.70133	113
3.70500	112
3.70867	107
3.71233	104
3.71600	105
3.71967	110
3.72333	117
3.72700	122
3.73067	128
3.73433	130
3.73800	125
3.74167	116
3.74533	111
3.74900	111
3.75267	114
3.75633	115
3.76000	114
3.76367	108
3.76733	104
3.77100	101
3.77467	98
3.77833	95
3.78200	96
3.78567	101
3.78933	106
3.79300	110
3.79667	114
3.80033	119
3.80400	122
3.80767	118
3.81133	110
3.81500	102
3.81867	97
3.82233	96
3.82600	100
3.82967	104
3.83333	107
3.83700	112
3.84067	116
3.84433	116
3.84800	114
3.85167	114
3.85533	115
3.85900	118
3.86267	116
3.86633	107
3.87000	96
3.87367	87
3.87733	80
3.88100	73
3.88467	71
3.88833	72
3.89200	78
3.89567	87
3.89933	94
3.90300	96
3.90667	98
3.91033	100
3.91400	98
3.91767	96
3.92133	99
3.92500	101
3.92867	105
3.93233	110
3.93600	115
3.93967	121
3.94333	124
3.94700	123
3.95067	119
3.95433	116
3.95800	112
3.96167	110
3.96533	110
3.96900	111
3.97267	110
3.97633	108
3.98000	106
3.98367	106
3.98733	104
3.99100	103
3.99467	104
3.99833	104

[Chromatogram (Ch2)]
Interval(msec)	220
# of Points	1091
Start Time(min)	0.002
End Time(min)	3.998
R.Time (min)	Intensity
0.00167	-0
0.00533	-0
0.00900	-1
0.01267	-1
0.01633	-1
0.02000	-1
0.02367	-1
0.02733	-2
0.03100	-2
0.03467	-2
0.03833	-2
0.04200	-2
0.04567	-2
0.04933	-2
0.05300	-2
0.05667	-2
0.06033	-2
0.06400	-2
0.06767	-2
0.07133	-1
0.07500	-1
0.07867	-1
0.08233	-1
0.08600	-1
0.08967	-0
0.09333	0
0.09700	0
0.10067	0
0.10433	1
0.10800	1
0.11167	1
0.11533	1
0.11900	1
0.12267	1
0.12633	1
0.13000	2
0.13367	2
0.13733	2
0.14100	2
0.14467	2
0.14833	2
0.15200	2
0.15567	2
0.15933	2
0.16300	2
0.16667	2
0.17033	2
0.17400	2
0.17767	2
0.18133	2
0.18500	2
0.18867	2
0.19233	3
0.19600	3
0.19967	3
0.20333	2
0.20700	2
0.21067	2
0.21433	2
0.21800	2
0.22167	2
0.22533	2
0.22900	1
0.23267	1
0.23633	1
0.24000	1
0.24367	1
0.24733	1
0.25100	1
0.25467	1
0.25833	1
0.26200	1
0.26567	0
0.26933	-0
0.27300	-0
0.27667	-1
0.28033	-1
0.28400	-1
0.28767	-0
0.29133	-0
0.29500	-0
0.29867	-0
0.30233	-0
0.30600	-0
0.30967	-0
0.31333	-0
0.31700	-0
0.32067	-0
0.32433	-1
0.32800	-1
0.33167	-1
0.33533	-1
0.33900	-1
0.34267	-1
0.34633	-1
0.35000	-1
0.35367	-1
0.35733	-1
0.36100	-2
0.36467	-2
0.36833	-2
0.37200	-2
0.37567	-2
0.37933	-2
0.38300	-2
0.38667	-2
0.39033	-2
0.39400	-1
0.39767	-1
0.40133	-1
0.40500	-1
0.40867	-2
0.41233	-2
0.41600	-2
0.41967	-2
0.42333	-2
0.42700	-2
0.43067	-2
0.43433	-2
0.43800	-2
0.44167	-2
0.44533	-1
0.44900	-1
0.45267	-1
0.45633	-1
0.46000	-1
0.46367	-1
0.46733	-2
0.47100	-2
0.47467	-2
0.47833	-2
0.48200	-2
0.48567	-2
0.48933	-2
0.49300	-2
0.49667	-2
0.50033	-2
0.50400	-1
0.50767	-1
0.51133	-1
0.51500	-1
0.51867	-1
0.52233	-2
0.52600	-2
0.52967	-2
0.53333	-2
0.53700	-2
0.54067	-1
0.54433	-1
0.54800	-1
0.55167	-1
0.55533	-1
0.55900	-1
0.56267	-1
0.56633	-1
0.57000	-1
0.57367	-1
0.57733	-0
0.58100	-0
0.58467	-0
0.58833	-0
0.59200	-0
0.59567	-0
0.59933	-0
0.60300	0
0.60667	0
0.61033	-0
0.61400	-0
0.61767	-0
0.62133	-0
0.62500	-0
0.62867	-1
0.63233	-1
0.63600	-1
0.63967	-1
0.64333	-1
0.64700	-1
0.65067	-1
0.65433	-1
0.65800	-1
0.66167	-1
0.66533	-0
0.66900	-0
0.67267	-0
0.67633	-0
0.68000	-0
0.68367	-0
0.68733	-0
0.69100	-1
0.69467	-1
0.69833	-1
0.70200	-1
0.70567	-1
0.70933	-1
0.71300	-1
0.71667	-1
0.72033	-1
0.72400	-1
0.72767	-1
0.73133	-1
0.73500	-2
0.73867	-2
0.74233	-3
0.74600	-3
0.74967	-3
0.75333	-4
0.75700	-4
0.76067	-4
0.76433	-4
0.76800	-4
0.77167	-4
0.77533	-4
0.77900	-4
0.78267	-4
0.78633	-4
0.79000	-3
0.79367	-3
0.79733	-3
0.80100	-3
0.80467	-2
0.80833	-2
0.81200	-2
0.81567	-2
0.81933	-2
0.82300	-2
0.82667	-3
0.83033	-3
0.83400	-3
0.83767	-3
0.84133	-3
0.84500	-3
0.84867	-3
0.85233	-3
0.85600	-2
0.85967	-2
0.86333	-2
0.86700	-2
0.87067	-1
0.87433	-1
0.87800	-1
0.88167	-1
0.88533	-1
0.88900	-2
0.89267	-2
0.89633	-2
0.90000	-2
0.90367	-2
0.90733	-2
0.91100	-2
0.91467	-2
0.91833	-1
0.92200	-1
0.92567	-1
0.92933	-1
0.93300	-1
0.93667	-1
0.94033	-1
0.94400	-1
0.94767	-1
0.95133	-1
0.95500	-2
0.95867	-2
0.96233	-2
0.96600	-2
0.96967	-2
0.97333	-2
0.97700	-2
0.98067	-2
0.98433	-2
0.98800	-1
0.99167	-1
0.99533	-1
0.99900	-1
1.00267	-1
1.00633	-1
1.01000	-1
1.01367	-1
1.01733	-1
1.02100	-1
1.02467	-1
1.02833	-1
1.03200	-1
1.03567	-1
1.03933	-1
1.04300	-2
1.04667	-2
1.05033	-2
1.05400	-3
1.05767	-3
1.06133	-3
1.06500	-3
1.06867	-3
1.07233	-3
1.07600	-3
1.07967	-3
1.08333	-3
1.08700	-3
1.09067	-3
1.09433	-3
1.09800	-3
1.10167	-3
1.10533	-3
1.10900	-3
1.11267	-3
1.11633	-3
1.12000	-3
1.12367	-2
1.12733	-2
1.13100	-2
1.13467	-2
1.13833	-2
1.14200	-2
1.14567	-2
1.14933	-2
1.15300	-2
1.15667	-2
1.16033	-2
1.16400	-2
1.16767	-2
1.17133	-1
1.17500	-1
1.17867	-1
1.18233	-2
1.18600	-2
1.18967	-2
1.19333	-2
1.19700	-2
1.20067	-2
1.20433	-2
1.20800	-2
1.21167	-2
1.21533	-2
1.21900	-2
1.22267	-2
1.22633	-2
1.23000	-2
1.23367	-2
1.23733	-2
1.24100	-2
1.24467	-2
1.24833	-2
1.25200	-2
1.25567	-2
1.25933	-2
1.26300	-2
1.26667	-2
1.27033	-2
1.27400	-2
1.27767	-2
1.28133	-2
1.28500	-2
1.28867	-2
1.29233	-2
1.29600	-2
1.29967	-2
1.30333	-2
1.30700	-1
1.31067	-1
1.31433	-1
1.31800	-2
1.32167	-2
1.32533	-2
1.32900	-2
1.33267	-3
1.33633	-3
1.34000	-3
1.34367	-4
1.34733	-4
1.35100	-4
1.35467	-4
1.35833	-4
1.36200	-4
1.36567	-4
1.36933	-3
1.37300	-3
1.37667	-3
1.38033	-3
1.38400	-3
1.38767	-3
1.39133	-3
1.39500	-3
1.39867	-3
1.40233	-3
1.40600	-3
1.40967	-3
1.41333	-3
1.41700	-3
1.42067	-3
1.42433	-3
1.42800	-3
1.43167	-3
1.43533	-3
1.43900	-4
1.44267	-4
1.44633	-4
1.45000	-4
1.45367	-4
1.45733	-4
1.46100	-3
1.46467	-3
1.46833	-3
1.47200	-3
1.47567	-3
1.47933	-3
1.48300	-3
1.48667	-4
1.49033	-4
1.49400	-4
1.49767	-4
1.50133	-5
1.50500	-5
1.50867	-5
1.51233	-5
1.51600	-5
1.51967	-4
1.52333	-4
1.52700	-4
1.53067	-4
1.53433	-4
1.53800	-4
1.54167	-4
1.54533	-4
1.54900	-4
1.55267	-4
1.55633	-4
1.56000	-4
1.56367	-3
1.56733	-3
1.57100	-3
1.57467	-3
1.57833	-2
1.58200	-2
1.58567	-2
1.58933	-2
1.59300	-2
1.59667	-3
1.60033	-3
1.60400	-4
1.60767	-5
1.61133	-7
1.61500	-9
1.61867	-11
1.62233	-14
1.62600	-16
1.62967	-19
1.63333	-22
1.63700	-26
1.64067	-29
1.64433	-33
1.64800	-36
1.65167	-40
1.65533	-44
1.65900	-48
1.66267	-52
1.66633	-56
1.67000	-61
1.67367	-65
1.67733	-70
1.68100	-75
1.68467	-80
1.68833	-84
1.69200	-89
1.69567	-92
1.69933	-96
1.70300	-98
1.70667	-101
1.71033	-103
1.71400	-105
1.71767	-106
1.72133	-107
1.72500	-108
1.72867	-108
1.73233	-109
1.73600	-109
1.73967	-109
1.74333	-110
1.74700	-110
1.75067	-110
1.75433	-111
1.75800	-112
1.76167	-112
1.76533	-113
1.76900	-114
1.77267	-114
1.77633	-114
1.78000	-115
1.78367	-115
1.78733	-115
1.79100	-115
1.79467	-115
1.79833	-116
1.80200	-117
1.80567	-118
1.80933	-118
1.81300	-118
1.81667	-119
1.82033	-119
1.82400	-119
1.82767	-118
1.83133	-118
1.83500	-118
1.83867	-118
1.84233	-118
1.84600	-119
1.84967	-119
1.85333	-119
1.85700	-119
1.86067	-119
1.86433	-119
1.86800	-119
1.87167	-119
1.87533	-118
1.87900	-119
1.88267	-118
1.88633	-118
1.89000	-118
1.89367	-117
1.89733	-117
1.90100	-117
1.90467	-117
1.90833	-116
1.91200	-116
1.91567	-116
1.91933	-115
1.92300	-115
1.92667	-114
1.93033	-114
1.93400	-114
1.93767	-113
1.94133	-113
1.94500	-113
1.94867	-113
1.95233	-113
1.95600	-113
1.95967	-114
1.96333	-114
1.96700	-114
1.97067	-114
1.97433	-113
1.97800	-113
1.98167	-112
1.98533	-112
1.98900	-112
1.99267	-111
1.99633	-111
2.00000	-112
2.00367	-112
2.00733	-112
2.01100	-112
2.01467	-112
2.01833	-111
2.02200	-111
2.02567	-110
2.02933	-109
2.03300	-109
2.03667	-108
2.04033	-108
2.04400	-107
2.04767	-107
2.05133	-106
2.05500	-106
2.05867	-106
2.06233	-106
2.06600	-106
2.06967	-106
2.07333	-106
2.07700	-106
2.08067	-106
2.08433	-106
2.08800	-106
2.09167	-106
2.09533	-105
2.09900	-105
2.10267	-105
2.10633	-105
2.11000	-104
2.11367	-104
2.11733	-104
2.12100	-103
2.12467	-102
2.12833	-102
2.13200	-101
2.13567	-100
2.13933	-100
2.14300	-99
2.14667	-99
2.15033	-99
2.15400	-99
2.15767	-99
2.16133	-98
2.16500	-98
2.16867	-98
2.17233	-97
2.17600	-97
2.17967	-96
2.18333	-96
2.18700	-96
2.19067	-96
2.19433	-96
2.19800	-96
2.20167	-96
2.20533	-96
2.20900	-95
2.21267	-95
2.21633	-95
2.22000	-95
2.22367	-95
2.22733	-95
2.23100	-95
2.23467	-95
2.23833	-95
2.24200	-95
2.24567	-94
2.24933	-94
2.25300	-94
2.25667	-93
2.26033	-93
2.26400	-93
2.26767	-92
2.27133	-91
2.27500	-91
2.27867	-91
2.28233	-90
2.28600	-90
2.28967	-90
2.29333	-90
2.29700	-89
2.30067	-89
2.30433	-88
2.30800	-88
2.31167	-87
2.31533	-86
2.31900	-86
2.32267	-85
2.32633	-85
2.33000	-84
2.33367	-84
2.33733	-84
2.34100	-84
2.34467	-84
2.34833	-83
2.35200	-82
2.35567	-81
2.35933	-80
2.36300	-80
2.36667	-79
2.37033	-77
2.37400	-76
2.37767	-74
2.38133	-71
2.38500	-69
2.38867	-65
2.39233	-61
2.39600	-58
2.39967	-54
2.40333	-49
2.40700	-45
2.41067	-41
2.41433	-37
2.41800	-33
2.42167	-30
2.42533	-27
2.42900	-25
2.43267	-22
2.43633	-20
2.44000	-17
2.44367	-15
2.44733	-13
2.45100	-11
2.45467	-9
2.45833	-8
2.46200	-6
2.46567	-5
2.46933	-3
2.47300	-1
2.47667	1
2.48033	2
2.48400	3
2.48767	4
2.49133	4
2.49500	5
2.49867	5
2.50233	6
2.50600	6
2.50967	6
2.51333	7
2.51700	7
2.52067	8
2.52433	9
2.52800	9
2.53167	10
2.53533	11
2.53900	11
2.54267	11
2.54633	11
2.55000	11
2.55367	12
2.55733	12
2.56100	12
2.56467	13
2.56833	13
2.57200	13
2.57567	14
2.57933	14
2.58300	14
2.58667	14
2.59033	14
2.59400	14
2.59767	15
2.60133	15
2.60500	15
2.60867	16
2.61233	16
2.61600	16
2.61967	17
2.62333	17
2.62700	17
2.63067	18
2.63433	18
2.63800	18
2.64167	18
2.64533	19
2.64900	19
2.65267	19
2.65633	19
2.66000	19
2.66367	19
2.66733	19
2.67100	19
2.67467	19
2.67833	19
2.68200	20
2.68567	20
2.68933	21
2.69300	21
2.69667	21
2.70033	21
2.70400	21
2.70767	21
2.71133	21
2.71500	21
2.71867	22
2.72233	22
2.72600	22
2.72967	22
2.73333	23
2.73700	23
2.74067	23
2.74433	24
2.74800	24
2.75167	24
2.75533	24
2.75900	24
2.76267	23
2.76633	23
2.77000	23
2.77367	23
2.77733	24
2.78100	24
2.78467	24
2.78833	24
2.79200	24
2.79567	25
2.79933	25
2.80300	25
2.80667	25
2.81033	25
2.81400	24
2.81767	24
2.82133	24
2.82500	24
2.82867	24
2.83233	25
2.83600	25
2.83967	25
2.84333	25
2.84700	25
2.85067	24
2.85433	23
2.85800	21
2.86167	16
2.86533	10
2.86900	0
2.87267	-12
2.87633	-29
2.88000	-49
2.88367	-73
2.88733	-102
2.89100	-134
2.89467	-169
2.89833	-208
2.90200	-249
2.90567	-293
2.90933	-339
2.91300	-387
2.91667	-436
2.92033	-486
2.92400	-536
2.92767	-586
2.93133	-636
2.93500	-686
2.93867	-735
2.94233	-784
2.94600	-834
2.94967	-888
2.95333	-948
2.95700	-1009
2.96067	-1060
2.96433	-1090
2.96800	-1095
2.97167	-1074
2.97533	-1030
2.97900	-969
2.98267	-896
2.98633	-817
2.99000	-737
2.99367	-657
2.99733	-582
3.00100	-511
3.00467	-446
3.00833	-387
3.01200	-335
3.01567	-288
3.01933	-247
3.02300	-211
3.02667	-179
3.03033	-152
3.03400	-129
3.03767	-109
3.04133	-91
3.04500	-76
3.04867	-63
3.05233	-52
3.05600	-43
3.05967	-35
3.06333	-28
3.06700	-23
3.07067	-17
3.07433	-13
3.07800	-9
3.08167	-6
3.08533	-3
3.08900	-1
3.09267	1
3.09633	3
3.10000	4
3.10367	6
3.10733	7
3.11100	8
3.11467	9
3.11833	10
3.12200	10
3.12567	11
3.12933	11
3.13300	12
3.13667	12
3.14033	12
3.14400	12
3.14767	13
3.15133	13
3.15500	13
3.15867	14
3.16233	14
3.16600	15
3.16967	15
3.17333	15
3.17700	16
3.18067	16
3.18433	16
3.18800	16
3.19167	16
3.19533	17
3.19900	17
3.20267	17
3.20633	18
3.21000	18
3.21367	18
3.21733	18
3.22100	19
3.22467	19
3.22833	19
3.23200	20
3.23567	20
3.23933	20
3.24300	20
3.24667	20
3.25033	20
3.25400	20
3.25767	20
3.26133	20
3.26500	20
3.26867	20
3.27233	20
3.27600	20
3.27967	20
3.28333	20
3.28700	21
3.29067	21
3.29433	21
3.29800	21
3.30167	21
3.30533	22
3.30900	22
3.31267	22
3.31633	22
3.32000	23
3.32367	23
3.32733	23
3.33100	24
3.33467	24
3.33833	24
3.34200	24
3.34567	24
3.34933	24
3.35300	24
3.35667	24
3.36033	24
3.36400	24
3.36767	24
3.37133	24
3.37500	24
3.37867	24
3.38233	24
3.38600	24
3.38967	24
3.39333	24
3.39700	24
3.40067	24
3.40433	24
3.40800	24
3.41167	24
3.41533	24
3.41900	24
3.42267	24
3.42633	24
3.43000	24
3.43367	24
3.43733	24
3.44100	25
3.44467	25
3.44833	25
3.45200	25
3.45567	24
3.45933	24
3.46300	24
3.46667	24
3.47033	24
3.47400	24
3.47767	24
3.48133	24
3.48500	24
3.48867	24
3.49233	24
3.49600	24
3.49967	25
3.50333	25
3.50700	25
3.51067	25
3.51433	24
3.51800	24
3.52167	24
3.52533	24
3.52900	24
3.53267	24
3.53633	24
3.54000	24
3.54367	24
3.54733	24
3.55100	23
3.55467	23
3.55833	23
3.56200	24
3.56567	24
3.56933	24
3.57300	23
3.57667	23
3.58033	23
3.58400	23
3.58767	23
3.59133	23
3.59500	23
3.59867	23
3.60233	24
3.60600	24
3.60967	24
3.61333	23
3.61700	23
3.62067	23
3.62433	23
3.62800	23
3.63167	23
3.63533	23
3.63900	23
3.64267	23
3.64633	23
3.65000	23
3.65367	23
3.65733	23
3.66100	23
3.66467	23
3.66833	23
3.67200	23
3.67567	23
3.67933	23
3.68300	23
3.68667	24
3.69033	24
3.69400	24
3.69767	24
3.70133	24
3.70500	24
3.70867	24
3.71233	24
3.71600	25
3.71967	25
3.72333	25
3.72700	25
3.73067	25
3.73433	25
3.73800	25
3.74167	25
3.74533	25
3.74900	25
3.75267	25
3.75633	25
3.76000	26
3.76367	26
3.76733	26
3.77100	26
3.77467	26
3.77833	26
3.78200	26
3.78567	25
3.78933	25
3.79300	25
3.79667	25
3.80033	25
3.80400	25
3.80767	25
3.81133	25
3.81500	25
3.81867	25
3.82233	25
3.82600	24
3.82967	24
3.83333	24
3.83700	24
3.84067	24
3.84433	24
3.84800	24
3.85167	24
3.85533	24
3.85900	24
3.86267	24
3.86633	24
3.87000	24
3.87367	23
3.87733	23
3.88100	23
3.88467	23
3.88833	23
3.89200	23
3.89567	23
3.89933	23
3.90300	23
3.90667	23
3.91033	23
3.91400	24
3.91767	24
3.92133	24
3.92500	24
3.92867	24
3.93233	24
3.93600	24
3.93967	24
3.94333	24
3.94700	24
3.95067	24
3.95433	24
3.95800	24
3.96167	24
3.96533	25
3.96900	25
3.97267	25
3.97633	25
3.98000	25
3.98367	26
3.98733	26
3.99100	26
3.99467	26
3.99833	26

[Chromatogram (Ch3)]
Interval(msec)	220
# of Points	1091
Start Time(min)	0.002
End Time(min)	3.998
R.Time (min)	Intensity
0.00167	0
0.00533	2
0.00900	4
0.01267	4
0.01633	1
0.02000	1
0.02367	3
0.02733	4
0.03100	7
0.03467	6
0.03833	5
0.04200	7
0.04567	8
0.04933	10
0.05300	10
0.05667	11
0.06033	10
0.06400	8
0.06767	4
0.07133	1
0.07500	-2
0.07867	-2
0.08233	1
0.08600	2
0.08967	5
0.09333	8
0.09700	9
0.10067	9
0.10433	8
0.10800	7
0.11167	8
0.11533	9
0.11900	9
0.12267	9
0.12633	9
0.13000	10
0.13367	9
0.13733	10
0.14100	11
0.14467	10
0.14833	9
0.15200	10
0.15567	9
0.15933	9
0.16300	9
0.16667	8
0.17033	10
0.17400	10
0.17767	8
0.18133	8
0.18500	8
0.18867	8
0.19233	9
0.19600	9
0.19967	7
0.20333	7
0.20700	9
0.21067	8
0.21433	8
0.21800	13
0.22167	15
0.22533	16
0.22900	17
0.23267	18
0.23633	18
0.24000	19
0.24367	19
0.24733	18
0.25100	16
0.25467	15
0.25833	14
0.26200	14
0.26567	14
0.26933	13
0.27300	14
0.27667	14
0.28033	13
0.28400	14
0.28767	16
0.29133	17
0.29500	16
0.29867	14
0.30233	15
0.30600	14
0.30967	14
0.31333	16
0.31700	18
0.32067	21
0.32433	21
0.32800	22
0.33167	23
0.33533	23
0.33900	24
0.34267	23
0.34633	22
0.35000	22
0.35367	20
0.35733	19
0.36100	19
0.36467	20
0.36833	18
0.37200	17
0.37567	16
0.37933	16
0.38300	19
0.38667	21
0.39033	23
0.39400	25
0.39767	26
0.40133	26
0.40500	26
0.40867	27
0.41233	28
0.41600	27
0.41967	26
0.42333	21
0.42700	18
0.43067	19
0.43433	23
0.43800	25
0.44167	27
0.44533	27
0.44900	28
0.45267	26
0.45633	26
0.46000	24
0.46367	24
0.46733	23
0.47100	25
0.47467	27
0.47833	25
0.48200	23
0.48567	24
0.48933	25
0.49300	26
0.49667	26
0.50033	27
0.50400	28
0.50767	27
0.51133	28
0.51500	29
0.51867	26
0.52233	23
0.52600	21
0.52967	24
0.53333	24
0.53700	25
0.54067	28
0.54433	31
0.54800	33
0.55167	31
0.55533	29
0.55900	28
0.56267	27
0.56633	28
0.57000	28
0.57367	28
0.57733	30
0.58100	32
0.58467	33
0.58833	33
0.59200	34
0.59567	34
0.59933	33
0.60300	30
0.60667	28
0.61033	27
0.61400	28
0.61767	28
0.62133	29
0.62500	30
0.62867	30
0.63233	31
0.63600	32
0.63967	33
0.64333	36
0.64700	38
0.65067	38
0.65433	34
0.65800	33
0.66167	34
0.66533	33
0.66900	31
0.67267	30
0.67633	31
0.68000	34
0.68367	36
0.68733	36
0.69100	34
0.69467	33
0.69833	31
0.70200	29
0.70567	29
0.70933	33
0.71300	35
0.71667	34
0.72033	33
0.72400	31
0.72767	30
0.73133	31
0.73500	35
0.73867	38
0.74233	38
0.74600	38
0.74967	38
0.75333	37
0.75700	35
0.76067	34
0.76433	36
0.76800	37
0.77167	37
0.77533	37
0.77900	39
0.78267	41
0.78633	43
0.79000	43
0.79367	42
0.79733	42
0.80100	41
0.80467	38
0.80833	36
0.81200	36
0.81567	39
0.81933	39
0.82300	38
0.82667	38
0.83033	38
0.83400	37
0.83767	38
0.84133	39
0.84500	40
0.84867	39
0.85233	40
0.85600	39
0.85967	38
0.86333	41
0.86700	42
0.87067	44
0.87433	45
0.87800	43
0.88167	43
0.88533	42
0.88900	41
0.89267	41
0.89633	41
0.90000	40
0.90367	39
0.90733	37
0.91100	38
0.91467	39
0.91833	38
0.92200	38
0.92567	38
0.92933	39
0.93300	38
0.93667	37
0.94033	37
0.94400	37
0.94767	38
0.95133	39
0.95500	39
0.95867	39
0.96233	41
0.96600	41
0.96967	40
0.97333	41
0.97700	43
0.98067	44
0.98433	43
0.98800	41
0.99167	39
0.99533	38
0.99900	39
1.00267	38
1.00633	38
1.01000	38
1.01367	40
1.01733	42
1.02100	43
1.02467	44
1.02833	46
1.03200	46
1.03567	45
1.03933	44
1.04300	44
1.04667	44
1.05033	44
1.05400	45
1.05767	47
1.06133	45
1.06500	41
1.06867	39
1.07233	40
1.07600	40
1.07967	40
1.08333	42
1.08700	43
1.09067	43
1.09433	41
1.09800	41
1.10167	42
1.10533	42
1.10900	41
1.11267	41
1.11633	44
1.12000	46
1.12367	45
1.12733	43
1.13100	41
1.13467	40
1.13833	39
1.14200	38
1.14567	39
1.14933	41
1.15300	44
1.15667	45
1.16033	45
1.16400	43
1.16767	43
1.17133	43
1.17500	42
1.17867	41
1.18233	41
1.18600	42
1.18967	42
1.19333	40
1.19700	42
1.20067	43
1.20433	44
1.20800	46
1.21167	48
1.21533	50
1.21900	49
1.22267	47
1.22633	46
1.23000	47
1.23367	48
1.23733	48
1.24100	48
1.24467	47
1.24833	49
1.25200	47
1.25567	45
1.25933	44
1.26300	41
1.26667	40
1.27033	38
1.27400	40
1.27767	41
1.28133	42
1.28500	44
1.28867	44
1.29233	45
1.29600	45
1.29967	47
1.30333	48
1.30700	46
1.31067	45
1.31433	45
1.31800	46
1.32167	44
1.32533	44
1.32900	47
1.33267	49
1.33633	50
1.34000	48
1.34367	45
1.34733	41
1.35100	41
1.35467	41
1.35833	40
1.36200	38
1.36567	38
1.36933	36
1.37300	34
1.37667	35
1.38033	37
1.38400	37
1.38767	37
1.39133	36
1.39500	38
1.39867	40
1.40233	39
1.40600	40
1.40967	40
1.41333	42
1.41700	43
1.42067	44
1.42433	44
1.42800	45
1.43167	45
1.43533	45
1.43900	46
1.44267	47
1.44633	47
1.45000	46
1.45367	45
1.45733	44
1.46100	43
1.46467	43
1.46833	41
1.47200	40
1.47567	39
1.47933	38
1.48300	37
1.48667	38
1.49033	39
1.49400	40
1.49767	38
1.50133	38
1.50500	40
1.50867	41
1.51233	43
1.51600	44
1.51967	43
1.52333	42
1.52700	40
1.53067	38
1.53433	36
1.53800	35
1.54167	37
1.54533	40
1.54900	41
1.55267	42
1.55633	43
1.56000	44
1.56367	43
1.56733	45
1.57100	47
1.57467	45
1.57833	44
1.58200	42
1.58567	42
1.58933	40
1.59300	40
1.59667	40
1.60033	40
1.60400	39
1.60767	39
1.61133	41
1.61500	41
1.61867	42
1.62233	43
1.62600	42
1.62967	41
1.63333	41
1.63700	41
1.64067	41
1.64433	41
1.64800	42
1.65167	44
1.65533	46
1.65900	46
1.66267	45
1.66633	46
1.67000	49
1.67367	54
1.67733	55
1.68100	55
1.68467	55
1.68833	54
1.69200	53
1.69567	50
1.69933	48
1.70300	51
1.70667	56
1.71033	57
1.71400	56
1.71767	55
1.72133	54
1.72500	55
1.72867	57
1.73233	57
1.73600	58
1.73967	58
1.74333	58
1.74700	58
1.75067	58
1.75433	58
1.75800	58
1.76167	58
1.76533	57
1.76900	56
1.77267	57
1.77633	60
1.78000	62
1.78367	63
1.78733	63
1.79100	62
1.79467	62
1.79833	63
1.80200	63
1.80567	62
1.80933	62
1.81300	62
1.81667	63
1.82033	65
1.82400	65
1.82767	65
1.83133	67
1.83500	70
1.83867	71
1.84233	72
1.84600	71
1.84967	69
1.85333	68
1.85700	69
1.86067	69
1.86433	67
1.86800	66
1.87167	65
1.87533	65
1.87900	68
1.88267	71
1.88633	72
1.89000	72
1.89367	71
1.89733	71
1.90100	70
1.90467	70
1.90833	68
1.91200	69
1.91567	69
1.91933	71
1.92300	72
1.92667	71
1.93033	70
1.93400	70
1.93767	71
1.94133	72
1.94500	73
1.94867	74
1.95233	75
1.95600	77
1.95967	78
1.96333	78
1.96700	77
1.97067	79
1.97433	82
1.97800	84
1.98167	83
1.98533	82
1.98900	82
1.99267	81
1.99633	82
2.00000	85
2.00367	86
2.00733	88
2.01100	89
2.01467	93
2.01833	96
2.02200	97
2.02567	97
2.02933	96
2.03300	96
2.03667	96
2.04033	97
2.04400	98
2.04767	99
2.05133	98
2.05500	100
2.05867	102
2.06233	100
2.06600	101
2.06967	102
2.07333	105
2.07700	108
2.08067	110
2.08433	111
2.08800	113
2.09167	114
2.09533	116
2.09900	117
2.10267	120
2.10633	122
2.11000	123
2.11367	122
2.11733	120
2.12100	118
2.12467	116
2.12833	116
2.13200	119
2.13567	119
2.13933	119
2.14300	122
2.14667	122
2.15033	122
2.15400	123
2.15767	123
2.16133	123
2.16500	123
2.16867	125
2.17233	126
2.17600	126
2.17967	126
2.18333	126
2.18700	126
2.19067	127
2.19433	129
2.19800	131
2.20167	131
2.20533	133
2.20900	134
2.21267	133
2.21633	133
2.22000	135
2.22367	138
2.22733	138
2.23100	139
2.23467	142
2.23833	143
2.24200	145
2.24567	146
2.24933	148
2.25300	147
2.25667	144
2.26033	144
2.26400	144
2.26767	144
2.27133	145
2.27500	147
2.27867	150
2.28233	151
2.28600	151
2.28967	153
2.29333	156
2.29700	156
2.30067	155
2.30433	155
2.30800	156
2.31167	157
2.31533	160
2.31900	162
2.32267	163
2.32633	162
2.33000	160
2.33367	159
2.33733	159
2.34100	162
2.34467	165
2.34833	166
2.35200	167
2.35567	169
2.35933	169
2.36300	169
2.36667	170
2.37033	172
2.37400	172
2.37767	173
2.38133	172
2.38500	171
2.38867	169
2.39233	168
2.39600	169
2.39967	172
2.40333	176
2.40700	178
2.41067	182
2.41433	185
2.41800	186
2.42167	187
2.42533	189
2.42900	192
2.43267	194
2.43633	194
2.44000	192
2.44367	210
2.44733	258
2.45100	310
2.45467	343
2.45833	344
2.46200	326
2.46567	306
2.46933	288
2.47300	274
2.47667	258
2.48033	235
2.48400	212
2.48767	189
2.49133	171
2.49500	158
2.49867	149
2.50233	144
2.50600	144
2.50967	148
2.51333	154
2.51700	153
2.52067	150
2.52433	146
2.52800	139
2.53167	130
2.53533	120
2.53900	107
2.54267	94
2.54633	85
2.55000	77
2.55367	69
2.55733	61
2.56100	55
2.56467	51
2.56833	49
2.57200	49
2.57567	47
2.57933	46
2.58300	48
2.58667	49
2.59033	50
2.59400	53
2.59767	56
2.60133	57
2.60500	59
2.60867	57
2.61233	53
2.61600	43
2.61967	24
2.62333	0
2.62700	-26
2.63067	-54
2.63433	-82
2.63800	-110
2.64167	-133
2.64533	-152
2.64900	-169
2.65267	-184
2.65633	-196
2.66000	-205
2.66367	-211
2.66733	-213
2.67100	-211
2.67467	-208
2.67833	-203
2.68200	-198
2.68567	-193
2.68933	-187
2.69300	-181
2.69667	-177
2.70033	-173
2.70400	-169
2.70767	-164
2.71133	-158
2.71500	-152
2.71867	-147
2.72233	-143
2.72600	-138
2.72967	-132
2.73333	-125
2.73700	-118
2.74067	-113
2.74433	-109
2.74800	-107
2.75167	-104
2.75533	-104
2.75900	-103
2.76267	-102
2.76633	-98
2.77000	-94
2.77367	-92
2.77733	-91
2.78100	-90
2.78467	-88
2.78833	-85
2.79200	-82
2.79567	-81
2.79933	-80
2.80300	-80
2.80667	-78
2.81033	-76
2.81400	-73
2.81767	-71
2.82133	-71
2.82500	-69
2.82867	-61
2.83233	-46
2.83600	-20
2.83967	32
2.84333	131
2.84700	301
2.85067	567
2.85433	946
2.85800	1435
2.86167	2020
2.86533	2665
2.86900	3321
2.87267	3941
2.87633	4468
2.88000	4847
2.88367	5049
2.88733	5044
2.89100	4836
2.89467	4534
2.89833	4199
2.90200	3845
2.90567	3482
2.90933	3125
2.91300	2788
2.91667	2480
2.92033	2203
2.92400	1965
2.92767	1760
2.93133	1583
2.93500	1429
2.93867	1294
2.94233	1175
2.94600	1071
2.94967	979
2.95333	896
2.95700	827
2.96067	766
2.96433	711
2.96800	662
2.97167	619
2.97533	584
2.97900	554
2.98267	526
2.98633	502
2.99000	483
2.99367	464
2.99733	447
3.00100	433
3.00467	423
3.00833	414
3.01200	405
3.01567	399
3.01933	395
3.02300	392
3.02667	387
3.03033	383
3.03400	379
3.03767	377
3.04133	375
3.04500	374
3.04867	372
3.05233	371
3.05600	370
3.05967	367
3.06333	363
3.06700	361
3.07067	360
3.07433	359
3.07800	358
3.08167	359
3.08533	361
3.08900	363
3.09267	363
3.09633	361
3.10000	358
3.10367	357
3.10733	356
3.11100	354
3.11467	356
3.11833	357
3.12200	358
3.12567	360
3.12933	360
3.13300	359
3.13667	359
3.14033	361
3.14400	365
3.14767	369
3.15133	370
3.15500	371
3.15867	371
3.16233	372
3.16600	373
3.16967	374
3.17333	377
3.17700	379
3.18067	380
3.18433	382
3.18800	386
3.19167	389
3.19533	390
3.19900	390
3.20267	391
3.20633	391
3.21000	392
3.21367	395
3.21733	396
3.22100	397
3.22467	397
3.22833	397
3.23200	396
3.23567	398
3.23933	398
3.24300	399
3.24667	400
3.25033	399
3.25400	399
3.25767	399
3.26133	399
3.26500	398
3.26867	397
3.27233	395
3.27600	392
3.27967	389
3.28333	385
3.28700	383
3.29067	381
3.29433	378
3.29800	375
3.30167	374
3.30533	373
3.30900	374
3.31267	372
3.31633	368
3.32000	366
3.32367	363
3.32733	360
3.33100	358
3.33467	356
3.33833	356
3.34200	354
3.34567	351
3.34933	352
3.35300	352
3.35667	351
3.36033	349
3.36400	346
3.36767	342
3.37133	337
3.37500	334
3.37867	330
3.38233	327
3.38600	328
3.38967	328
3.39333	325
3.39700	324
3.40067	325
3.40433	324
3.40800	320
3.41167	317
3.41533	313
3.41900	311
3.42267	310
3.42633	308
3.43000	308
3.43367	307
3.43733	307
3.44100	305
3.44467	301
3.44833	297
3.45200	293
3.45567	292
3.45933	290
3.46300	287
3.46667	286
3.47033	284
3.47400	283
3.47767	282
3.48133	281
3.48500	281
3.48867	280
3.49233	281
3.49600	279
3.49967	276
3.50333	274
3.50700	272
3.51067	268
3.51433	263
3.51800	259
3.52167	255
3.52533	254
3.52900	255
3.53267	255
3.53633	254
3.54000	253
3.54367	251
3.54733	250
3.55100	250
3.55467	249
3.55833	247
3.56200	246
3.56567	247
3.56933	246
3.57300	244
3.57667	243
3.58033	244
3.58400	245
3.58767	246
3.59133	245
3.59500	242
3.59867	239
3.60233	235
3.60600	231
3.60967	230
3.61333	230
3.61700	229
3.62067	228
3.62433	227
3.62800	225
3.63167	220
3.63533	217
3.63900	214
3.64267	217
3.64633	219
3.65000	220
3.65367	219
3.65733	218
3.66100	217
3.66467	213
3.66833	210
3.67200	209
3.67567	209
3.67933	206
3.68300	204
3.68667	201
3.69033	197
3.69400	197
3.69767	197
3.70133	197
3.70500	193
3.70867	191
3.71233	188
3.71600	186
3.71967	187
3.72333	188
3.72700	189
3.73067	189
3.73433	189
3.73800	188
3.74167	185
3.74533	181
3.74900	178
3.75267	176
3.75633	175
3.76000	177
3.76367	179
3.76733	178
3.77100	176
3.77467	176
3.77833	176
3.78200	175
3.78567	176
3.78933	173
3.79300	173
3.79667	175
3.80033	176
3.80400	174
3.80767	170
3.81133	168
3.81500	164
3.81867	162
3.82233	161
3.82600	162
3.82967	162
3.83333	161
3.83700	161
3.84067	162
3.84433	164
3.84800	164
3.85167	165
3.85533	164
3.85900	161
3.86267	158
3.86633	157
3.87000	158
3.87367	158
3.87733	155
3.88100	151
3.88467	149
3.88833	148
3.89200	149
3.89567	147
3.89933	144
3.90300	145
3.90667	145
3.91033	146
3.91400	147
3.91767	145
3.92133	143
3.92500	142
3.92867	141
3.93233	140
3.93600	138
3.93967	138
3.94333	134
3.94700	130
3.95067	126
3.95433	124
3.95800	122
3.96167	121
3.96533	120
3.96900	120
3.97267	120
3.97633	119
3.98000	119
3.98367	120
3.98733	121
3.99100	122
3.99467	119
3.99833	117

[Status Trace (Column Oven Temperature)]
Interval(msec)	1000
# of Points	240
Start Time(min)	0.012
End Time(min)	3.995
Intensity Units	
Intensity Multiplier	1
R.Time (min)	Intensity
0.01168	35.04
0.02835	35.04
0.04502	35.05
0.06168	35.06
0.07835	35.05
0.09502	35.05
0.11168	35.04
0.12835	35.04
0.14502	35.03
0.16168	35.02
0.17835	35.00
0.19502	34.99
0.21168	34.98
0.22835	34.98
0.24502	34.98
0.26168	34.98
0.27835	34.98
0.29502	34.98
0.31168	34.98
0.32835	34.98
0.34502	34.98
0.36168	34.99
0.37835	34.98
0.39502	34.99
0.41168	35.00
0.42835	35.00
0.44502	35.00
0.46168	35.00
0.47835	34.99
0.49502	34.99
0.51168	35.00
0.52835	35.00
0.54502	35.00
0.56168	34.99
0.57835	34.99
0.59502	34.99
0.61168	34.99
0.62835	34.98
0.64502	34.98
0.66168	34.98
0.67835	34.97
0.69502	34.97
0.71168	34.98
0.72835	34.99
0.74502	35.00
0.76168	35.01
0.77835	35.02
0.79502	35.01
0.81168	35.01
0.82835	35.01
0.84502	35.00
0.86168	35.00
0.87835	35.00
0.89502	35.00
0.91168	35.00
0.92835	35.00
0.94502	34.99
0.96168	34.99
0.97835	34.99
0.99502	34.99
1.01168	34.98
1.02835	34.98
1.04502	34.99
1.06168	35.00
1.07835	35.01
1.09502	35.00
1.11168	35.00
1.12835	35.00
1.14502	35.00
1.16168	34.99
1.17835	34.98
1.19502	34.98
1.21168	34.99
1.22835	34.98
1.24502	34.99
1.26168	34.99
1.27835	34.99
1.29502	34.98
1.31168	34.98
1.32835	34.98
1.34502	34.98
1.36168	34.98
1.37835	34.99
1.39502	34.99
1.41168	34.99
1.42835	34.99
1.44502	34.98
1.46168	34.99
1.47835	34.99
1.49502	35.00
1.51168	35.00
1.52835	35.01
1.54502	35.00
1.56168	35.00
1.57835	35.00
1.59502	35.01
1.61168	35.08
1.62835	35.22
1.64502	35.42
1.66168	35.69
1.67835	36.06
1.69502	36.42
1.71168	36.77
1.72835	37.10
1.74502	37.43
1.76168	37.77
1.77835	38.08
1.79502	38.41
1.81168	38.75
1.82835	39.07
1.84502	39.42
1.86168	39.76
1.87835	40.07
1.89502	40.40
1.91168	40.73
1.92835	41.06
1.94502	41.37
1.96168	41.71
1.97835	42.02
1.99502	42.35
2.01168	42.69
2.02835	43.01
2.04502	43.33
2.06168	43.65
2.07835	43.99
2.09502	44.30
2.11168	44.64
2.12835	44.95
2.14502	45.28
2.16168	45.59
2.17835	45.93
2.19502	46.25
2.21168	46.59
2.22835	46.93
2.24502	47.25
2.26168	47.58
2.27835	47.90
2.29502	48.25
2.31168	48.57
2.32835	48.91
2.34502	49.23
2.36168	49.50
2.37835	49.65
2.39502	49.71
2.41168	49.68
2.42835	49.70
2.44502	49.70
2.46168	49.71
2.47835	49.71
2.49502	49.72
2.51168	49.76
2.52835	49.76
2.54502	49.79
2.56168	49.80
2.57835	49.82
2.59502	49.83
2.61168	49.83
2.62835	49.83
2.64502	49.83
2.66168	49.85
2.67835	49.85
2.69502	49.86
2.71168	49.86
2.72835	49.85
2.74502	49.86
2.76168	49.87
2.77835	49.87
2.79502	49.87
2.81168	49.88
2.82835	49.89
2.84502	49.89
2.86168	49.90
2.87835	49.90
2.89502	49.90
2.91168	49.91
2.92835	49.92
2.94502	49.92
2.96168	49.94
2.97835	49.96
2.99502	49.98
3.01168	50.00
3.02835	50.00
3.04502	50.02
3.06168	50.03
3.07835	50.03
3.09502	50.03
3.11168	50.04
3.12835	50.06
3.14502	50.06
3.16168	50.07
3.17835	50.08
3.19502	50.08
3.21168	50.08
3.22835	50.08
3.24502	50.09
3.26168	50.10
3.27835	50.10
3.29502	50.11
3.31168	50.10
3.32835	50.09
3.34502	50.09
3.36168	50.08
3.37835	50.07
3.39502	50.06
3.41168	50.06
3.42835	50.05
3.44502	50.05
3.46168	50.06
3.47835	50.05
3.49502	50.05
3.51168	50.04
3.52835	50.05
3.54502	50.05
3.56168	50.05
3.57835	50.06
3.59502	50.06
3.61168	50.07
3.62835	50.07
3.64502	50.08
3.66168	50.09
3.67835	50.09
3.69502	50.09
3.71168	50.09
3.72835	50.08
3.74502	50.07
3.76168	50.07
3.77835	50.06
3.79502	50.06
3.81168	50.06
3.82835	50.06
3.84502	50.07
3.86168	50.08
3.87835	50.09
3.89502	50.10
3.91168	50.10
3.92835	50.10
3.94502	50.10
3.96168	50.09
3.97835	50.09
3.99502	50.08

[Status Trace (Injection Unit Temperature)]
Interval(msec)	1000
# of Points	240
Start Time(min)	0.012
End Time(min)	3.995
Intensity Units	
Intensity Multiplier	1
R.Time (min)	Intensity
0.01168	99.98
0.02835	99.98
0.04502	99.98
0.06168	99.98
0.07835	99.99
0.09502	99.98
0.11168	99.98
0.12835	99.98
0.14502	99.98
0.16168	99.99
0.17835	99.98
0.19502	99.99
0.21168	99.98
0.22835	99.99
0.24502	99.98
0.26168	99.98
0.27835	99.98
0.29502	99.98
0.31168	99.98
0.32835	99.98
0.34502	99.98
0.36168	99.98
0.37835	99.98
0.39502	99.98
0.41168	99.98
0.42835	99.98
0.44502	99.98
0.46168	99.98
0.47835	99.98
0.49502	99.98
0.51168	99.98
0.52835	99.98
0.54502	99.98
0.56168	99.99
0.57835	99.98
0.59502	99.98
0.61168	99.98
0.62835	99.98
0.64502	99.98
0.66168	99.98
0.67835	99.98
0.69502	99.98
0.71168	99.98
0.72835	99.98
0.74502	99.98
0.76168	99.98
0.77835	99.98
0.79502	99.98
0.81168	99.98
0.82835	99.98
0.84502	99.98
0.86168	99.98
0.87835	99.98
0.89502	99.99
0.91168	99.98
0.92835	99.99
0.94502	99.99
0.96168	99.99
0.97835	99.99
0.99502	99.98
1.01168	99.98
1.02835	99.98
1.04502	99.99
1.06168	99.99
1.07835	99.99
1.09502	99.99
1.11168	99.99
1.12835	99.99
1.14502	99.99
1.16168	99.98
1.17835	99.98
1.19502	99.99
1.21168	99.99
1.22835	99.99
1.24502	99.99
1.26168	99.99
1.27835	99.98
1.29502	99.99
1.31168	99.99
1.32835	99.98
1.34502	99.98
1.36168	99.99
1.37835	99.99
1.39502	99.99
1.41168	99.99
1.42835	99.99
1.44502	99.99
1.46168	99.99
1.47835	99.99
1.49502	99.99
1.51168	99.99
1.52835	99.99
1.54502	99.98
1.56168	99.98
1.57835	99.99
1.59502	99.99
1.61168	99.98
1.62835	99.98
1.64502	99.98
1.66168	99.98
1.67835	99.99
1.69502	99.99
1.71168	99.98
1.72835	99.99
1.74502	99.99
1.76168	99.99
1.77835	99.99
1.79502	99.98
1.81168	99.98
1.82835	99.98
1.84502	99.98
1.86168	99.98
1.87835	99.98
1.89502	99.98
1.91168	99.98
1.92835	99.98
1.94502	99.98
1.96168	99.98
1.97835	99.98
1.99502	99.98
2.01168	99.98
2.02835	99.98
2.04502	99.98
2.06168	99.98
2.07835	99.97
2.09502	99.97
2.11168	99.98
2.12835	99.98
2.14502	99.97
2.16168	99.97
2.17835	99.97
2.19502	99.98
2.21168	99.98
2.22835	99.97
2.24502	99.97
2.26168	99.97
2.27835	99.97
2.29502	99.97
2.31168	99.97
2.32835	99.98
2.34502	99.97
2.36168	99.97
2.37835	99.98
2.39502	99.98
2.41168	99.97
2.42835	99.97
2.44502	99.97
2.46168	99.98
2.47835	99.98
2.49502	99.98
2.51168	99.98
2.52835	99.98
2.54502	99.98
2.56168	99.98
2.57835	99.98
2.59502	99.98
2.61168	99.98
2.62835	99.98
2.64502	99.98
2.66168	99.98
2.67835	99.98
2.69502	99.98
2.71168	99.99
2.72835	99.99
2.74502	99.99
2.76168	99.99
2.77835	99.99
2.79502	99.99
2.81168	99.99
2.82835	100.00
2.84502	99.99
2.86168	100.00
2.87835	100.00
2.89502	100.00
2.91168	100.00
2.92835	100.00
2.94502	100.00
2.96168	100.01
2.97835	100.01
2.99502	100.01
3.01168	100.01
3.02835	100.01
3.04502	100.01
3.06168	100.02
3.07835	100.02
3.09502	100.01
3.11168	100.02
3.12835	100.02
3.14502	100.02
3.16168	100.02
3.17835	100.02
3.19502	100.02
3.21168	100.02
3.22835	100.03
3.24502	100.02
3.26168	100.02
3.27835	100.03
3.29502	100.03
3.31168	100.03
3.32835	100.03
3.34502	100.03
3.36168	100.03
3.37835	100.03
3.39502	100.03
3.41168	100.03
3.42835	100.03
3.44502	100.03
3.46168	100.03
3.47835	100.03
3.49502	100.03
3.51168	100.03
3.52835	100.03
3.54502	100.04
3.56168	100.04
3.57835	100.04
3.59502	100.04
3.61168	100.04
3.62835	100.04
3.64502	100.04
3.66168	100.04
3.67835	100.04
3.69502	100.04
3.71168	100.04
3.72835	100.04
3.74502	100.04
3.76168	100.04
3.77835	100.04
3.79502	100.04
3.81168	100.05
3.82835	100.04
3.84502	100.04
3.86168	100.04
3.87835	100.05
3.89502	100.04
3.91168	100.04
3.92835	100.05
3.94502	100.04
3.96168	100.05
3.97835	100.05
3.99502	100.05

[Status Trace (Carrier Gas Pressure)]
Interval(msec)	1000
# of Points	240
Start Time(min)	0.012
End Time(min)	3.995
Intensity Units	
Intensity Multiplier	1
R.Time (min)	Intensity
0.01168	58.00
0.02835	54.95
0.04502	57.53
0.06168	59.62
0.07835	59.01
0.09502	58.01
0.11168	57.99
0.12835	58.01
0.14502	58.01
0.16168	58.00
0.17835	58.00
0.19502	58.00
0.21168	58.00
0.22835	58.00
0.24502	58.00
0.26168	58.00
0.27835	58.00
0.29502	58.00
0.31168	58.00
0.32835	58.00
0.34502	58.00
0.36168	58.00
0.37835	58.00
0.39502	58.00
0.41168	58.00
0.42835	58.00
0.44502	58.00
0.46168	58.00
0.47835	58.00
0.49502	58.00
0.51168	58.00
0.52835	58.00
0.54502	58.00
0.56168	58.00
0.57835	58.00
0.59502	58.00
0.61168	58.00
0.62835	58.00
0.64502	58.00
0.66168	58.00
0.67835	58.00
0.69502	58.00
0.71168	58.00
0.72835	58.00
0.74502	58.00
0.76168	58.00
0.77835	58.00
0.79502	58.00
0.81168	58.00
0.82835	58.00
0.84502	58.00
0.86168	58.00
0.87835	58.00
0.89502	58.00
0.91168	58.00
0.92835	58.00
0.94502	58.00
0.96168	58.00
0.97835	58.00
0.99502	58.00
1.01168	58.00
1.02835	58.00
1.04502	58.00
1.06168	58.00
1.07835	58.00
1.09502	58.00
1.11168	58.00
1.12835	58.00
1.14502	58.00
1.16168	58.00
1.17835	58.00
1.19502	58.00
1.21168	58.00
1.22835	58.00
1.24502	58.00
1.26168	58.00
1.27835	58.00
1.29502	58.00
1.31168	58.00
1.32835	58.00
1.34502	58.00
1.36168	58.00
1.37835	58.00
1.39502	58.00
1.41168	58.00
1.42835	58.00
1.44502	58.00
1.46168	58.00
1.47835	58.00
1.49502	58.00
1.51168	58.00
1.52835	58.00
1.54502	58.00
1.56168	58.00
1.57835	58.00
1.59502	58.00
1.61168	58.00
1.62835	58.00
1.64502	58.01
1.66168	58.01
1.67835	58.01
1.69502	58.00
1.71168	58.00
1.72835	58.00
1.74502	58.00
1.76168	58.00
1.77835	58.00
1.79502	58.00
1.81168	58.00
1.82835	58.00
1.84502	58.00
1.86168	58.00
1.87835	58.00
1.89502	58.00
1.91168	58.00
1.92835	58.00
1.94502	58.00
1.96168	58.00
1.97835	58.00
1.99502	58.00
2.01168	58.00
2.02835	58.00
2.04502	58.00
2.06168	58.00
2.07835	58.00
2.09502	58.00
2.11168	58.00
2.12835	58.00
2.14502	58.00
2.16168	58.00
2.17835	58.00
2.19502	58.00
2.21168	58.00
2.22835	58.00
2.24502	58.00
2.26168	58.00
2.27835	58.00
2.29502	58.00
2.31168	58.00
2.32835	58.00
2.34502	58.00
2.36168	58.00
2.37835	58.00
2.39502	57.99
2.41168	57.99
2.42835	58.00
2.44502	58.00
2.46168	58.00
2.47835	58.00
2.49502	58.00
2.51168	58.00
2.52835	57.98
2.54502	58.00
2.56168	58.00
2.57835	58.00
2.59502	58.00
2.61168	58.00
2.62835	58.00
2.64502	58.00
2.66168	58.00
2.67835	58.00
2.69502	58.00
2.71168	58.00
2.72835	58.00
2.74502	58.00
2.76168	58.00
2.77835	58.00
2.79502	58.00
2.81168	58.00
2.82835	58.00
2.84502	58.00
2.86168	58.00
2.87835	58.00
2.89502	58.00
2.91168	58.00
2.92835	58.00
2.94502	58.00
2.96168	58.00
2.97835	58.00
2.99502	58.00
3.01168	58.00
3.02835	58.00
3.04502	58.00
3.06168	58.00
3.07835	58.00
3.09502	58.00
3.11168	58.00
3.12835	58.00
3.14502	58.00
3.16168	58.00
3.17835	58.00
3.19502	58.00
3.21168	58.00
3.22835	58.00
3.24502	58.00
3.26168	58.00
3.27835	58.00
3.29502	58.00
3.31168	58.00
3.32835	58.00
3.34502	58.00
3.36168	58.00
3.37835	58.00
3.39502	58.00
3.41168	58.00
3.42835	58.00
3.44502	58.00
3.46168	58.00
3.47835	58.00
3.49502	58.00
3.51168	58.00
3.52835	58.00
3.54502	58.00
3.56168	58.00
3.57835	58.00
3.59502	58.00
3.61168	58.00
3.62835	58.00
3.64502	58.00
3.66168	58.00
3.67835	58.00
3.69502	58.00
3.71168	58.00
3.72835	58.00
3.74502	58.00
3.76168	58.00
3.77835	58.00
3.79502	58.00
3.81168	58.00
3.82835	58.00
3.84502	58.00
3.86168	58.00
3.87835	58.00
3.89502	58.00
3.91168	58.00
3.92835	58.00
3.94502	58.00
3.96168	58.00
3.97835	58.00
3.99502	58.00

[Status Trace (Carrier Gas Flow)]
Interval(msec)	1000
# of Points	240
Start Time(min)	0.012
End Time(min)	3.995
Intensity Units	
Intensity Multiplier	1
R.Time (min)	Intensity
0.01168	34.53
0.02835	34.54
0.04502	34.54
0.06168	34.54
0.07835	34.51
0.09502	34.52
0.11168	34.52
0.12835	34.52
0.14502	34.52
0.16168	34.52
0.17835	34.52
0.19502	34.52
0.21168	34.52
0.22835	34.52
0.24502	34.52
0.26168	34.52
0.27835	34.52
0.29502	34.52
0.31168	34.52
0.32835	34.52
0.34502	34.52
0.36168	34.52
0.37835	34.52
0.39502	34.52
0.41168	34.52
0.42835	34.52
0.44502	34.52
0.46168	34.52
0.47835	34.52
0.49502	34.52
0.51168	34.52
0.52835	34.52
0.54502	34.52
0.56168	34.52
0.57835	34.52
0.59502	34.52
0.61168	34.52
0.62835	34.52
0.64502	34.52
0.66168	34.52
0.67835	34.52
0.69502	34.52
0.71168	34.52
0.72835	34.52
0.74502	34.51
0.76168	34.52
0.77835	34.52
0.79502	34.52
0.81168	34.53
0.82835	34.52
0.84502	34.52
0.86168	34.52
0.87835	34.52
0.89502	34.52
0.91168	34.52
0.92835	34.51
0.94502	34.52
0.96168	34.52
0.97835	34.53
0.99502	34.51
1.01168	34.52
1.02835	34.52
1.04502	34.52
1.06168	34.51
1.07835	34.52
1.09502	34.51
1.11168	34.51
1.12835	34.52
1.14502	34.52
1.16168	34.52
1.17835	34.51
1.19502	34.52
1.21168	34.51
1.22835	34.52
1.24502	34.52
1.26168	34.51
1.27835	34.53
1.29502	34.52
1.31168	34.52
1.32835	34.52
1.34502	34.52
1.36168	34.52
1.37835	34.52
1.39502	34.52
1.41168	34.52
1.42835	34.52
1.44502	34.52
1.46168	34.52
1.47835	34.52
1.49502	34.52
1.51168	34.52
1.52835	34.52
1.54502	34.52
1.56168	34.52
1.57835	34.52
1.59502	34.52
1.61168	34.52
1.62835	34.52
1.64502	34.52
1.66168	34.52
1.67835	34.52
1.69502	34.52
1.71168	34.52
1.72835	34.52
1.74502	34.52
1.76168	34.52
1.77835	34.52
1.79502	34.52
1.81168	34.52
1.82835	34.52
1.84502	34.52
1.86168	34.52
1.87835	34.52
1.89502	34.52
1.91168	34.52
1.92835	34.52
1.94502	34.52
1.96168	34.52
1.97835	34.52
1.99502	34.52
2.01168	34.52
2.02835	34.52
2.04502	34.52
2.06168	34.52
2.07835	34.52
2.09502	34.52
2.11168	34.52
2.12835	34.52
2.14502	34.52
2.16168	34.52
2.17835	34.52
2.19502	34.52
2.21168	34.52
2.22835	34.52
2.24502	34.52
2.26168	34.52
2.27835	34.52
2.29502	34.52
2.31168	34.52
2.32835	34.52
2.34502	34.52
2.36168	34.52
2.37835	34.52
2.39502	34.52
2.41168	34.52
2.42835	34.52
2.44502	34.52
2.46168	34.52
2.47835	34.52
2.49502	34.52
2.51168	34.52
2.52835	34.52
2.54502	34.52
2.56168	34.52
2.57835	34.52
2.59502	34.52
2.61168	34.52
2.62835	34.52
2.64502	34.52
2.66168	34.52
2.67835	34.52
2.69502	34.52
2.71168	34.52
2.72835	34.52
2.74502	34.52
2.76168	34.52
2.77835	34.52
2.79502	34.52
2.81168	34.52
2.82835	34.52
2.84502	34.52
2.86168	34.52
2.87835	34.52
2.89502	34.52
2.91168	34.52
2.92835	34.52
2.94502	34.52
2.96168	34.52
2.97835	34.52
2.99502	34.52
3.01168	34.52
3.02835	34.52
3.04502	34.52
3.06168	34.52
3.07835	34.52
3.09502	34.52
3.11168	34.52
3.12835	34.52
3.14502	34.52
3.16168	34.52
3.17835	34.52
3.19502	34.52
3.21168	34.52
3.22835	34.52
3.24502	34.52
3.26168	34.52
3.27835	34.52
3.29502	34.52
3.31168	34.52
3.32835	34.52
3.34502	34.52
3.36168	34.52
3.37835	34.52
3.39502	34.52
3.41168	34.52
3.42835	34.52
3.44502	34.52
3.46168	34.52
3.47835	34.52
3.49502	34.52
3.51168	34.52
3.52835	34.52
3.54502	34.52
3.56168	34.52
3.57835	34.52
3.59502	34.52
3.61168	34.52
3.62835	34.52
3.64502	34.52
3.66168	34.52
3.67835	34.52
3.69502	34.52
3.71168	34.52
3.72835	34.52
3.74502	34.52
3.76168	34.52
3.77835	34.52
3.79502	34.52
3.81168	34.52
3.82835	34.52
3.84502	34.52
3.86168	34.52
3.87835	34.52
3.89502	34.52
3.91168	34.52
3.92835	34.52
3.94502	34.52
3.96168	34.52
3.97835	34.52
3.99502	34.52

[Status Trace (Column Flow)]
Interval(msec)	1000
# of Points	240
Start Time(min)	0.012
End Time(min)	3.995
Intensity Units	
Intensity Multiplier	1
R.Time (min)	Intensity
0.01168	5.44
0.02835	5.09
0.04502	5.38
0.06168	5.63
0.07835	5.56
0.09502	5.44
0.11168	5.44
0.12835	5.44
0.14502	5.44
0.16168	5.44
0.17835	5.44
0.19502	5.44
0.21168	5.44
0.22835	5.44
0.24502	5.44
0.26168	5.44
0.27835	5.44
0.29502	5.44
0.31168	5.44
0.32835	5.44
0.34502	5.44
0.36168	5.44
0.37835	5.44
0.39502	5.44
0.41168	5.44
0.42835	5.44
0.44502	5.44
0.46168	5.44
0.47835	5.44
0.49502	5.44
0.51168	5.44
0.52835	5.44
0.54502	5.44
0.56168	5.44
0.57835	5.44
0.59502	5.44
0.61168	5.44
0.62835	5.44
0.64502	5.44
0.66168	5.44
0.67835	5.44
0.69502	5.44
0.71168	5.44
0.72835	5.44
0.74502	5.44
0.76168	5.44
0.77835	5.44
0.79502	5.44
0.81168	5.44
0.82835	5.44
0.84502	5.44
0.86168	5.44
0.87835	5.44
0.89502	5.44
0.91168	5.44
0.92835	5.44
0.94502	5.44
0.96168	5.44
0.97835	5.44
0.99502	5.44
1.01168	5.44
1.02835	5.44
1.04502	5.44
1.06168	5.44
1.07835	5.44
1.09502	5.44
1.11168	5.44
1.12835	5.44
1.14502	5.44
1.16168	5.44
1.17835	5.44
1.19502	5.44
1.21168	5.44
1.22835	5.44
1.24502	5.44
1.26168	5.44
1.27835	5.44
1.29502	5.44
1.31168	5.44
1.32835	5.44
1.34502	5.44
1.36168	5.44
1.37835	5.44
1.39502	5.44
1.41168	5.44
1.42835	5.44
1.44502	5.44
1.46168	5.44
1.47835	5.44
1.49502	5.44
1.51168	5.44
1.52835	5.44
1.54502	5.44
1.56168	5.44
1.57835	5.44
1.59502	5.44
1.61168	5.44
1.62835	5.43
1.64502	5.43
1.66168	5.42
1.67835	5.41
1.69502	5.40
1.71168	5.39
1.72835	5.38
1.74502	5.37
1.76168	5.36
1.77835	5.35
1.79502	5.34
1.81168	5.33
1.82835	5.32
1.84502	5.31
1.86168	5.30
1.87835	5.29
1.89502	5.28
1.91168	5.27
1.92835	5.26
1.94502	5.25
1.96168	5.24
1.97835	5.23
1.99502	5.22
2.01168	5.21
2.02835	5.20
2.04502	5.19
2.06168	5.18
2.07835	5.17
2.09502	5.16
2.11168	5.15
2.12835	5.14
2.14502	5.14
2.16168	5.13
2.17835	5.12
2.19502	5.11
2.21168	5.10
2.22835	5.09
2.24502	5.08
2.26168	5.07
2.27835	5.06
2.29502	5.05
2.31168	5.04
2.32835	5.03
2.34502	5.02
2.36168	5.02
2.37835	5.01
2.39502	5.01
2.41168	5.01
2.42835	5.01
2.44502	5.01
2.46168	5.01
2.47835	5.01
2.49502	5.01
2.51168	5.01
2.52835	5.01
2.54502	5.01
2.56168	5.01
2.57835	5.01
2.59502	5.01
2.61168	5.01
2.62835	5.01
2.64502	5.01
2.66168	5.01
2.67835	5.01
2.69502	5.01
2.71168	5.01
2.72835	5.01
2.74502	5.01
2.76168	5.01
2.77835	5.01
2.79502	5.01
2.81168	5.01
2.82835	5.01
2.84502	5.01
2.86168	5.01
2.87835	5.01
2.89502	5.01
2.91168	5.01
2.92835	5.01
2.94502	5.01
2.96168	5.00
2.97835	5.00
2.99502	5.00
3.01168	5.00
3.02835	5.00
3.04502	5.00
3.06168	5.00
3.07835	5.00
3.09502	5.00
3.11168	5.00
3.12835	5.00
3.14502	5.00
3.16168	5.00
3.17835	5.00
3.19502	5.00
3.21168	5.00
3.22835	5.00
3.24502	5.00
3.26168	5.00
3.27835	5.00
3.29502	5.00
3.31168	5.00
3.32835	5.00
3.34502	5.00
3.36168	5.00
3.37835	5.00
3.39502	5.00
3.41168	5.00
3.42835	5.00
3.44502	5.00
3.46168	5.00
3.47835	5.00
3.49502	5.00
3.51168	5.00
3.52835	5.00
3.54502	5.00
3.56168	5.00
3.57835	5.00
3.59502	5.00
3.61168	5.00
3.62835	5.00
3.64502	5.00
3.66168	5.00
3.67835	5.00
3.69502	5.00
3.71168	5.00
3.72835	5.00
3.74502	5.00
3.76168	5.00
3.77835	5.00
3.79502	5.00
3.81168	5.00
3.82835	5.00
3.84502	5.00
3.86168	5.00
3.87835	5.00
3.89502	5.00
3.91168	5.00
3.92835	5.00
3.94502	5.00
3.96168	5.00
3.97835	5.00
3.99502	5.00

[Status Trace (Linear Velocity)]
Interval(msec)	1000
# of Points	240
Start Time(min)	0.012
End Time(min)	3.995
Intensity Units	
Intensity Multiplier	1
R.Time (min)	Intensity
0.01168	38.99
0.02835	36.99
0.04502	38.68
0.06168	40.05
0.07835	39.65
0.09502	39.00
0.11168	38.99
0.12835	39.00
0.14502	39.00
0.16168	39.00
0.17835	39.00
0.19502	39.00
0.21168	39.00
0.22835	39.00
0.24502	39.00
0.26168	39.00
0.27835	39.00
0.29502	39.00
0.31168	39.00
0.32835	39.00
0.34502	39.00
0.36168	39.00
0.37835	39.00
0.39502	39.00
0.41168	39.00
0.42835	39.00
0.44502	39.00
0.46168	39.00
0.47835	39.00
0.49502	39.00
0.51168	39.00
0.52835	39.00
0.54502	39.00
0.56168	39.00
0.57835	39.00
0.59502	39.00
0.61168	39.00
0.62835	39.00
0.64502	39.00
0.66168	39.00
0.67835	39.00
0.69502	39.00
0.71168	39.00
0.72835	39.00
0.74502	39.00
0.76168	39.00
0.77835	39.00
0.79502	39.00
0.81168	39.00
0.82835	39.00
0.84502	39.00
0.86168	39.00
0.87835	39.00
0.89502	39.00
0.91168	39.00
0.92835	39.00
0.94502	39.00
0.96168	39.00
0.97835	39.00
0.99502	39.00
1.01168	39.00
1.02835	39.00
1.04502	39.00
1.06168	39.00
1.07835	39.00
1.09502	39.00
1.11168	39.00
1.12835	39.00
1.14502	39.00
1.16168	39.00
1.17835	39.00
1.19502	39.00
1.21168	39.00
1.22835	39.00
1.24502	39.00
1.26168	39.00
1.27835	39.00
1.29502	39.00
1.31168	39.00
1.32835	39.00
1.34502	39.00
1.36168	39.00
1.37835	39.00
1.39502	39.00
1.41168	39.00
1.42835	39.00
1.44502	39.00
1.46168	39.00
1.47835	39.00
1.49502	39.00
1.51168	39.00
1.52835	39.00
1.54502	39.00
1.56168	39.00
1.57835	39.00
1.59502	39.00
1.61168	38.99
1.62835	38.98
1.64502	38.96
1.66168	38.94
1.67835	38.90
1.69502	38.87
1.71168	38.83
1.72835	38.80
1.74502	38.77
1.76168	38.74
1.77835	38.70
1.79502	38.68
1.81168	38.64
1.82835	38.61
1.84502	38.58
1.86168	38.55
1.87835	38.52
1.89502	38.49
1.91168	38.46
1.92835	38.42
1.94502	38.40
1.96168	38.37
1.97835	38.33
1.99502	38.31
2.01168	38.28
2.02835	38.24
2.04502	38.22
2.06168	38.19
2.07835	38.15
2.09502	38.13
2.11168	38.10
2.12835	38.07
2.14502	38.04
2.16168	38.01
2.17835	37.98
2.19502	37.95
2.21168	37.92
2.22835	37.89
2.24502	37.86
2.26168	37.83
2.27835	37.80
2.29502	37.77
2.31168	37.74
2.32835	37.71
2.34502	37.68
2.36168	37.66
2.37835	37.64
2.39502	37.63
2.41168	37.64
2.42835	37.64
2.44502	37.64
2.46168	37.64
2.47835	37.64
2.49502	37.64
2.51168	37.63
2.52835	37.63
2.54502	37.63
2.56168	37.63
2.57835	37.63
2.59502	37.63
2.61168	37.63
2.62835	37.63
2.64502	37.63
2.66168	37.63
2.67835	37.63
2.69502	37.63
2.71168	37.63
2.72835	37.63
2.74502	37.63
2.76168	37.63
2.77835	37.62
2.79502	37.62
2.81168	37.62
2.82835	37.62
2.84502	37.62
2.86168	37.62
2.87835	37.62
2.89502	37.62
2.91168	37.62
2.92835	37.62
2.94502	37.62
2.96168	37.62
2.97835	37.62
2.99502	37.62
3.01168	37.61
3.02835	37.61
3.04502	37.61
3.06168	37.61
3.07835	37.61
3.09502	37.61
3.11168	37.61
3.12835	37.61
3.14502	37.61
3.16168	37.61
3.17835	37.61
3.19502	37.61
3.21168	37.61
3.22835	37.61
3.24502	37.61
3.26168	37.61
3.27835	37.60
3.29502	37.60
3.31168	37.60
3.32835	37.60
3.34502	37.61
3.36168	37.61
3.37835	37.61
3.39502	37.61
3.41168	37.61
3.42835	37.61
3.44502	37.61
3.46168	37.61
3.47835	37.61
3.49502	37.61
3.51168	37.61
3.52835	37.61
3.54502	37.61
3.56168	37.61
3.57835	37.61
3.59502	37.61
3.61168	37.61
3.62835	37.61
3.64502	37.61
3.66168	37.61
3.67835	37.61
3.69502	37.61
3.71168	37.61
3.72835	37.61
3.74502	37.61
3.76168	37.61
3.77835	37.61
3.79502	37.61
3.81168	37.61
3.82835	37.61
3.84502	37.61
3.86168	37.61
3.87835	37.61
3.89502	37.61
3.91168	37.60
3.92835	37.60
3.94502	37.60
3.96168	37.61
3.97835	37.61
3.99502	37.61

