[Header]
Application Name	LabSolutions
Version	5.110
Data File Name	C:\Users\User\Desktop\GC Analyses\Jack\UIC Prairie Sampling\9.30.22\220930_032.gcd
Output Date	1/4/2023
Output Time	2:27:58 PM

[File Information]
Type	Data File
Generated	11/30/2022 10:38:54 AM
Generated by	System Administrator
Modified	11/30/2022 10:43:47 AM
Modified by	System Administrator

[Sample Information]
Operator Name	System Administrator
Acquired	11/30/2022 10:39:45 AM
Sample Type	1:Standard
Level	1
Sample Name	220930_UICPrairie
Sample ID	220930_UICPrairie
ISTD Amount1	1
ISTD Amount2	1
ISTD Amount3	1
ISTD Amount4	1
ISTD Amount5	1
ISTD Amount6	1
ISTD Amount7	1
ISTD Amount8	1
ISTD Amount9	1
ISTD Amount10	1
ISTD Amount11	1
ISTD Amount12	1
ISTD Amount13	1
ISTD Amount14	1
ISTD Amount15	1
ISTD Amount16	1
ISTD Amount17	1
ISTD Amount18	1
ISTD Amount19	1
ISTD Amount20	1
ISTD Amount21	1
ISTD Amount22	1
ISTD Amount23	1
ISTD Amount24	1
ISTD Amount25	1
ISTD Amount26	1
ISTD Amount27	1
ISTD Amount28	1
ISTD Amount29	1
ISTD Amount30	1
ISTD Amount31	1
ISTD Amount32	1
Sample Amount	1
Dilution Factor	1
Vial#	1
Injection Volume	1
Injection Count	1
Bar Code	

[Original Files]
Data File	C:\Users\User\Desktop\GC Analyses\Jack\UIC Prairie Sampling\9.30.22\220930_032.gcd
Method File	C:\LabSolutions\Data\GHG_4min_2022\ghg3_togas_w_acet_4 min_new_int.gcm
Batch File	
Report Format File	c:\LabSolutions\System\DEFAULT.lsr

[File Description]


[Configuration]
Instrument Name	C0B7VH3-Instrument1
Instrument #	1
Line #	1
# of Detectors	3
Detector ID	DET#1	DET#2	DET#3
Detector Name	FID	PTCD	ECD
# of Channels	1	1	1

[Peak Table(Ch1)]
# of Peaks	3
Peak#	R.Time	I.Time	F.Time	Area	Height	A/H	Conc.	Mark	ID#	Name	k'	Plate #	Plate Ht.	Tailing	Resolution	Sep.Factor	Area Ratio	Height Ratio	Conc. %	Norm Conc.
1	1.465	1.439	1.534	3128	951	3.289	100.000	   	1	CO	0.000	5098	29.421	0.000	0.000	0.000	0	0	16.667	16.667
2	1.571	1.534	1.648	21117	10591	1.994	100.000	 V 	2	CH4	0.073	11428	13.126	1.152	1.510	0.000	0	0	16.667	16.667
3	2.000	1.941	2.667	2152324	1010452	2.130	400.000	   	3	CO2	0.365	17332	8.655	1.193	7.177	5.034	0	0	66.667	66.667

[Peak Table(Ch2)]
# of Peaks	0

[Peak Table(Ch3)]
# of Peaks	6
Peak#	R.Time	I.Time	F.Time	Area	Height	A/H	Conc.	Mark	ID#	Name	k'	Plate #	Plate Ht.	Tailing	Resolution	Sep.Factor	Area Ratio	Height Ratio	Conc. %	Norm Conc.
1	2.455	2.326	2.502	1188	270	4.393	0.000	   			0.000	10985	13.656	0.000	0.000	0.000	0	0	0.000	0.000
2	2.521	2.502	2.576	389	125	3.103	0.000	 V 			0.027	4695	31.949	0.000	0.548	0.000	0	0	0.000	0.000
3	2.587	2.576	2.601	83	76	1.100	0.000	 V 			0.054	20941	7.163	0.000	0.604	2.000	0	0	0.000	0.000
4	2.620	2.601	2.649	114	73	1.563	0.000	 V 			0.067	47957	3.128	0.000	0.553	1.250	0	0	0.000	0.000
5	2.785	2.660	2.818	2699	418	6.454	0.034	   	1	N2O	0.134	327	459.357	0.000	0.497	2.000	0	0	3.414	3.414
6	2.887	2.818	3.936	76369	16782	4.551	0.966	 V 	1	N2O	0.176	12324	12.171	1.625	0.285	1.311	0	0	96.586	96.586

[Compound Results(Ch1)]
# of IDs	6
ID#	Name	R.Time	Area	Height	Conc.	Curve	3rd	2nd	1st	Constant	Area Ratio	Height Ratio	Conc. %	Norm Conc.
1	CO	1.465	3128	951	100.000	Linear	0.000000e+00	0.000000e+00	3.127874e+001	0.000000e+00	0	0	16.667	16.667
2	CH4	1.571	21117	10591	100.000	Linear	0.000000e+00	0.000000e+00	2.111653e+002	0.000000e+00	0	0	16.667	16.667
3	CO2	2.000	2152324	1010452	400.000	Linear	0.000000e+00	0.000000e+00	5.380811e+003	0.000000e+00	0	0	66.667	66.667
4	Ethylene	0.000	0	0	0.000	Linear	0.000000e+00	0.000000e+00	0.000000e+00	0.000000e+00	0	0	0.000	0.000
5	Acetylene	0.000	0	0	0.000	Linear	0.000000e+00	0.000000e+00	0.000000e+00	0.000000e+00	0	0	0.000	0.000
6	Ethane	0.000	0	0	0.000	Linear	0.000000e+00	0.000000e+00	0.000000e+00	0.000000e+00	0	0	0.000	0.000

[Compound Results(Ch2)]
# of IDs	5
ID#	Name	R.Time	Area	Height	Conc.	Curve	3rd	2nd	1st	Constant	Area Ratio	Height Ratio	Conc. %	Norm Conc.
1	Hydrogen	0.000	0	0	0.000	Linear	0.000000e+00	0.000000e+00	0.000000e+00	0.000000e+00	0	0	0.000	0.000
2	Oxygen	0.000	0	0	0.000	Linear	0.000000e+00	0.000000e+00	0.000000e+00	0.000000e+00	0	0	0.000	0.000
3	Nitrogen	0.000	0	0	0.000	Linear	0.000000e+00	0.000000e+00	0.000000e+00	0.000000e+00	0	0	0.000	0.000
4	Methane	0.000	0	0	0.000	Linear	0.000000e+00	0.000000e+00	0.000000e+00	0.000000e+00	0	0	0.000	0.000
5	Carbon Monoxide	0.000	0	0	0.000	Linear	0.000000e+00	0.000000e+00	0.000000e+00	0.000000e+00	0	0	0.000	0.000

[Compound Results(Ch3)]
# of IDs	2
ID#	Name	R.Time	Area	Height	Conc.	Curve	3rd	2nd	1st	Constant	Area Ratio	Height Ratio	Conc. %	Norm Conc.
1	N2O	2.887	79068	17200	1.000	Linear	0.000000e+00	0.000000e+00	7.906761e+004	0.000000e+00	0	0	100.000	100.000
2	SF6	0.000	0	0	0.000	Linear	0.000000e+00	0.000000e+00	0.000000e+00	0.000000e+00	0	0	0.000	0.000

[Group Results(Ch1)]
# of Groups	0

[Group Results(Ch2)]
# of Groups	0

[Group Results(Ch3)]
# of Groups	0

[Chromatogram (Ch1)]
Interval(msec)	220
# of Points	1091
Start Time(min)	0.002
End Time(min)	3.998
R.Time (min)	Intensity
0.00167	-12
0.00533	-11
0.00900	-11
0.01267	-12
0.01633	-12
0.02000	-9
0.02367	-4
0.02733	1
0.03100	4
0.03467	7
0.03833	7
0.04200	7
0.04567	6
0.04933	4
0.05300	-1
0.05667	-2
0.06033	-0
0.06400	0
0.06767	-1
0.07133	-0
0.07500	-1
0.07867	-2
0.08233	-0
0.08600	1
0.08967	-1
0.09333	-4
0.09700	-6
0.10067	-7
0.10433	-4
0.10800	1
0.11167	1
0.11533	-3
0.11900	-8
0.12267	-13
0.12633	-16
0.13000	-16
0.13367	-18
0.13733	-20
0.14100	-20
0.14467	-18
0.14833	-16
0.15200	-13
0.15567	-11
0.15933	-7
0.16300	-7
0.16667	-12
0.17033	-18
0.17400	-23
0.17767	-23
0.18133	-24
0.18500	-26
0.18867	-27
0.19233	-29
0.19600	-29
0.19967	-28
0.20333	-28
0.20700	-28
0.21067	-27
0.21433	-27
0.21800	-22
0.22167	-15
0.22533	-9
0.22900	-7
0.23267	-7
0.23633	-9
0.24000	-10
0.24367	-11
0.24733	-15
0.25100	-21
0.25467	-27
0.25833	-33
0.26200	-35
0.26567	-37
0.26933	-34
0.27300	-30
0.27667	-29
0.28033	-28
0.28400	-27
0.28767	-26
0.29133	-28
0.29500	-32
0.29867	-36
0.30233	-39
0.30600	-41
0.30967	-42
0.31333	-43
0.31700	-43
0.32067	-44
0.32433	-46
0.32800	-46
0.33167	-43
0.33533	-40
0.33900	-39
0.34267	-40
0.34633	-42
0.35000	-44
0.35367	-44
0.35733	-42
0.36100	-40
0.36467	-38
0.36833	-33
0.37200	-29
0.37567	-29
0.37933	-34
0.38300	-37
0.38667	-36
0.39033	-33
0.39400	-31
0.39767	-32
0.40133	-37
0.40500	-45
0.40867	-51
0.41233	-52
0.41600	-51
0.41967	-52
0.42333	-54
0.42700	-54
0.43067	-51
0.43433	-46
0.43800	-43
0.44167	-44
0.44533	-45
0.44900	-43
0.45267	-40
0.45633	-38
0.46000	-39
0.46367	-38
0.46733	-35
0.47100	-33
0.47467	-35
0.47833	-39
0.48200	-41
0.48567	-40
0.48933	-39
0.49300	-39
0.49667	-40
0.50033	-44
0.50400	-51
0.50767	-58
0.51133	-63
0.51500	-65
0.51867	-67
0.52233	-66
0.52600	-62
0.52967	-59
0.53333	-58
0.53700	-57
0.54067	-56
0.54433	-51
0.54800	-44
0.55167	-35
0.55533	-27
0.55900	-25
0.56267	-31
0.56633	-40
0.57000	-48
0.57367	-58
0.57733	-71
0.58100	-85
0.58467	-94
0.58833	-94
0.59200	-89
0.59567	-87
0.59933	-87
0.60300	-87
0.60667	-85
0.61033	-82
0.61400	-77
0.61767	-69
0.62133	-60
0.62500	-51
0.62867	-46
0.63233	-44
0.63600	-45
0.63967	-49
0.64333	-53
0.64700	-54
0.65067	-53
0.65433	-52
0.65800	-51
0.66167	-51
0.66533	-49
0.66900	-47
0.67267	-48
0.67633	-54
0.68000	-60
0.68367	-64
0.68733	-66
0.69100	-68
0.69467	-69
0.69833	-66
0.70200	-63
0.70567	-62
0.70933	-62
0.71300	-65
0.71667	-67
0.72033	-68
0.72400	-67
0.72767	-66
0.73133	-63
0.73500	-59
0.73867	-56
0.74233	-54
0.74600	-52
0.74967	-50
0.75333	-49
0.75700	-48
0.76067	-50
0.76433	-58
0.76800	-64
0.77167	-62
0.77533	-57
0.77900	-52
0.78267	-50
0.78633	-53
0.79000	-58
0.79367	-63
0.79733	-65
0.80100	-65
0.80467	-63
0.80833	-63
0.81200	-62
0.81567	-58
0.81933	-51
0.82300	-44
0.82667	-43
0.83033	-46
0.83400	-50
0.83767	-55
0.84133	-57
0.84500	-57
0.84867	-59
0.85233	-60
0.85600	-61
0.85967	-60
0.86333	-57
0.86700	-57
0.87067	-58
0.87433	-58
0.87800	-58
0.88167	-60
0.88533	-61
0.88900	-57
0.89267	-49
0.89633	-46
0.90000	-48
0.90367	-53
0.90733	-60
0.91100	-66
0.91467	-72
0.91833	-76
0.92200	-77
0.92567	-75
0.92933	-70
0.93300	-63
0.93667	-60
0.94033	-61
0.94400	-62
0.94767	-57
0.95133	-49
0.95500	-42
0.95867	-36
0.96233	-31
0.96600	-28
0.96967	-25
0.97333	-26
0.97700	-28
0.98067	-29
0.98433	-30
0.98800	-32
0.99167	-37
0.99533	-42
0.99900	-48
1.00267	-57
1.00633	-67
1.01000	-75
1.01367	-80
1.01733	-83
1.02100	-82
1.02467	-79
1.02833	-74
1.03200	-68
1.03567	-63
1.03933	-60
1.04300	-57
1.04667	-57
1.05033	-60
1.05400	-63
1.05767	-64
1.06133	-62
1.06500	-58
1.06867	-53
1.07233	-50
1.07600	-49
1.07967	-50
1.08333	-53
1.08700	-53
1.09067	-50
1.09433	-50
1.09800	-52
1.10167	-58
1.10533	-64
1.10900	-68
1.11267	-73
1.11633	-76
1.12000	-79
1.12367	-80
1.12733	-78
1.13100	-77
1.13467	-77
1.13833	-76
1.14200	-73
1.14567	-67
1.14933	-63
1.15300	-65
1.15667	-74
1.16033	-83
1.16400	-89
1.16767	-91
1.17133	-88
1.17500	-81
1.17867	-73
1.18233	-67
1.18600	-65
1.18967	-63
1.19333	-60
1.19700	-59
1.20067	-61
1.20433	-66
1.20800	-69
1.21167	-67
1.21533	-65
1.21900	-63
1.22267	-65
1.22633	-71
1.23000	-79
1.23367	-83
1.23733	-85
1.24100	-90
1.24467	-96
1.24833	-102
1.25200	-105
1.25567	-106
1.25933	-103
1.26300	-96
1.26667	-88
1.27033	-79
1.27400	-72
1.27767	-69
1.28133	-66
1.28500	-67
1.28867	-72
1.29233	-79
1.29600	-83
1.29967	-87
1.30333	-89
1.30700	-89
1.31067	-86
1.31433	-80
1.31800	-77
1.32167	-77
1.32533	-78
1.32900	-77
1.33267	-73
1.33633	-72
1.34000	-74
1.34367	-79
1.34733	-84
1.35100	-89
1.35467	-90
1.35833	-87
1.36200	-81
1.36567	-73
1.36933	-69
1.37300	-67
1.37667	-68
1.38033	-72
1.38400	-74
1.38767	-74
1.39133	-75
1.39500	-76
1.39867	-78
1.40233	-81
1.40600	-85
1.40967	-86
1.41333	-86
1.41700	-84
1.42067	-83
1.42433	-86
1.42800	-91
1.43167	-94
1.43533	-94
1.43900	-78
1.44267	-6
1.44633	173
1.45000	412
1.45367	624
1.45733	770
1.46100	845
1.46467	870
1.46833	866
1.47200	858
1.47567	851
1.47933	842
1.48300	822
1.48667	780
1.49033	707
1.49400	612
1.49767	509
1.50133	410
1.50500	323
1.50867	252
1.51233	195
1.51600	147
1.51967	105
1.52333	68
1.52700	37
1.53067	13
1.53433	0
1.53800	31
1.54167	244
1.54533	920
1.54900	2288
1.55267	4214
1.55633	6284
1.56000	8113
1.56367	9503
1.56733	10343
1.57100	10498
1.57467	9867
1.57833	8549
1.58200	6858
1.58567	5156
1.58933	3686
1.59300	2538
1.59667	1698
1.60033	1110
1.60400	710
1.60767	442
1.61133	261
1.61500	139
1.61867	56
1.62233	-1
1.62600	-35
1.62967	-54
1.63333	-65
1.63700	-75
1.64067	-84
1.64433	-94
1.64800	-101
1.65167	-102
1.65533	-102
1.65900	-98
1.66267	-91
1.66633	-86
1.67000	-83
1.67367	-83
1.67733	-85
1.68100	-89
1.68467	-95
1.68833	-101
1.69200	-105
1.69567	-106
1.69933	-105
1.70300	-103
1.70667	-100
1.71033	-97
1.71400	-95
1.71767	-93
1.72133	-91
1.72500	-90
1.72867	-94
1.73233	-98
1.73600	-101
1.73967	-105
1.74333	-111
1.74700	-115
1.75067	-119
1.75433	-123
1.75800	-124
1.76167	-120
1.76533	-114
1.76900	-110
1.77267	-111
1.77633	-114
1.78000	-117
1.78367	-117
1.78733	-115
1.79100	-114
1.79467	-114
1.79833	-114
1.80200	-114
1.80567	-111
1.80933	-105
1.81300	-100
1.81667	-100
1.82033	-105
1.82400	-111
1.82767	-115
1.83133	-118
1.83500	-120
1.83867	-119
1.84233	-114
1.84600	-110
1.84967	-108
1.85333	-107
1.85700	-105
1.86067	-104
1.86433	-104
1.86800	-105
1.87167	-105
1.87533	-104
1.87900	-105
1.88267	-105
1.88633	-104
1.89000	-102
1.89367	-102
1.89733	-104
1.90100	-105
1.90467	-105
1.90833	-103
1.91200	-102
1.91567	-98
1.91933	-94
1.92300	-94
1.92667	-99
1.93033	-106
1.93400	-111
1.93767	-112
1.94133	-105
1.94500	-94
1.94867	-83
1.95233	-65
1.95600	28
1.95967	610
1.96333	3528
1.96700	14629
1.97067	46961
1.97433	119472
1.97800	245588
1.98167	419079
1.98533	613305
1.98900	793925
1.99267	931356
1.99633	1006306
2.00000	1010375
2.00367	946757
2.00733	830426
2.01100	685029
2.01467	535449
2.01833	400496
2.02200	289860
2.02567	205295
2.02933	143802
2.03300	100592
2.03667	70894
2.04033	50731
2.04400	37094
2.04767	27843
2.05133	21508
2.05500	17108
2.05867	13995
2.06233	11741
2.06600	10068
2.06967	8793
2.07333	7799
2.07700	7004
2.08067	6356
2.08433	5820
2.08800	5374
2.09167	4996
2.09533	4669
2.09900	4379
2.10267	4115
2.10633	3876
2.11000	3659
2.11367	3461
2.11733	3282
2.12100	3120
2.12467	2974
2.12833	2842
2.13200	2721
2.13567	2611
2.13933	2507
2.14300	2406
2.14667	2312
2.15033	2224
2.15400	2141
2.15767	2061
2.16133	1985
2.16500	1914
2.16867	1846
2.17233	1783
2.17600	1725
2.17967	1673
2.18333	1626
2.18700	1580
2.19067	1534
2.19433	1489
2.19800	1450
2.20167	1414
2.20533	1377
2.20900	1340
2.21267	1307
2.21633	1274
2.22000	1241
2.22367	1209
2.22733	1178
2.23100	1149
2.23467	1120
2.23833	1090
2.24200	1062
2.24567	1039
2.24933	1020
2.25300	1001
2.25667	980
2.26033	960
2.26400	943
2.26767	925
2.27133	904
2.27500	883
2.27867	864
2.28233	849
2.28600	835
2.28967	821
2.29333	810
2.29700	802
2.30067	790
2.30433	777
2.30800	763
2.31167	750
2.31533	736
2.31900	724
2.32267	715
2.32633	709
2.33000	704
2.33367	692
2.33733	676
2.34100	663
2.34467	650
2.34833	637
2.35200	625
2.35567	616
2.35933	607
2.36300	595
2.36667	581
2.37033	571
2.37400	568
2.37767	565
2.38133	559
2.38500	552
2.38867	544
2.39233	538
2.39600	534
2.39967	532
2.40333	530
2.40700	525
2.41067	519
2.41433	510
2.41800	497
2.42167	485
2.42533	475
2.42900	470
2.43267	469
2.43633	471
2.44000	471
2.44367	466
2.44733	457
2.45100	449
2.45467	443
2.45833	440
2.46200	434
2.46567	428
2.46933	425
2.47300	426
2.47667	429
2.48033	429
2.48400	427
2.48767	420
2.49133	411
2.49500	407
2.49867	406
2.50233	406
2.50600	401
2.50967	393
2.51333	384
2.51700	375
2.52067	370
2.52433	368
2.52800	365
2.53167	359
2.53533	350
2.53900	342
2.54267	337
2.54633	334
2.55000	332
2.55367	330
2.55733	333
2.56100	339
2.56467	346
2.56833	348
2.57200	342
2.57567	332
2.57933	320
2.58300	310
2.58667	301
2.59033	294
2.59400	288
2.59767	285
2.60133	287
2.60500	289
2.60867	286
2.61233	282
2.61600	284
2.61967	284
2.62333	281
2.62700	278
2.63067	277
2.63433	277
2.63800	277
2.64167	281
2.64533	282
2.64900	277
2.65267	270
2.65633	262
2.66000	254
2.66367	247
2.66733	241
2.67100	239
2.67467	241
2.67833	243
2.68200	244
2.68567	245
2.68933	244
2.69300	242
2.69667	241
2.70033	241
2.70400	243
2.70767	242
2.71133	240
2.71500	235
2.71867	232
2.72233	228
2.72600	223
2.72967	219
2.73333	216
2.73700	215
2.74067	215
2.74433	217
2.74800	219
2.75167	219
2.75533	217
2.75900	215
2.76267	212
2.76633	210
2.77000	207
2.77367	203
2.77733	198
2.78100	194
2.78467	190
2.78833	187
2.79200	183
2.79567	181
2.79933	182
2.80300	186
2.80667	187
2.81033	184
2.81400	180
2.81767	179
2.82133	177
2.82500	175
2.82867	176
2.83233	179
2.83600	182
2.83967	184
2.84333	188
2.84700	192
2.85067	193
2.85433	193
2.85800	192
2.86167	190
2.86533	188
2.86900	186
2.87267	184
2.87633	179
2.88000	173
2.88367	164
2.88733	155
2.89100	149
2.89467	147
2.89833	152
2.90200	160
2.90567	169
2.90933	177
2.91300	181
2.91667	181
2.92033	179
2.92400	175
2.92767	170
2.93133	162
2.93500	153
2.93867	146
2.94233	144
2.94600	147
2.94967	151
2.95333	156
2.95700	159
2.96067	159
2.96433	159
2.96800	159
2.97167	160
2.97533	165
2.97900	171
2.98267	173
2.98633	173
2.99000	169
2.99367	161
2.99733	153
3.00100	145
3.00467	141
3.00833	144
3.01200	151
3.01567	155
3.01933	153
3.02300	146
3.02667	138
3.03033	130
3.03400	126
3.03767	126
3.04133	127
3.04500	127
3.04867	127
3.05233	129
3.05600	128
3.05967	126
3.06333	122
3.06700	121
3.07067	127
3.07433	132
3.07800	135
3.08167	137
3.08533	135
3.08900	128
3.09267	121
3.09633	118
3.10000	118
3.10367	120
3.10733	124
3.11100	127
3.11467	130
3.11833	129
3.12200	127
3.12567	128
3.12933	133
3.13300	140
3.13667	146
3.14033	148
3.14400	144
3.14767	138
3.15133	132
3.15500	129
3.15867	124
3.16233	118
3.16600	112
3.16967	110
3.17333	111
3.17700	113
3.18067	116
3.18433	118
3.18800	118
3.19167	122
3.19533	129
3.19900	131
3.20267	129
3.20633	122
3.21000	114
3.21367	110
3.21733	111
3.22100	115
3.22467	118
3.22833	119
3.23200	118
3.23567	116
3.23933	114
3.24300	109
3.24667	104
3.25033	101
3.25400	103
3.25767	106
3.26133	108
3.26500	108
3.26867	108
3.27233	108
3.27600	105
3.27967	103
3.28333	107
3.28700	114
3.29067	120
3.29433	122
3.29800	121
3.30167	118
3.30533	118
3.30900	117
3.31267	117
3.31633	115
3.32000	109
3.32367	103
3.32733	100
3.33100	99
3.33467	99
3.33833	101
3.34200	104
3.34567	103
3.34933	99
3.35300	98
3.35667	100
3.36033	102
3.36400	102
3.36767	102
3.37133	103
3.37500	107
3.37867	109
3.38233	104
3.38600	94
3.38967	88
3.39333	89
3.39700	94
3.40067	96
3.40433	96
3.40800	97
3.41167	99
3.41533	99
3.41900	97
3.42267	98
3.42633	99
3.43000	102
3.43367	104
3.43733	102
3.44100	99
3.44467	98
3.44833	101
3.45200	100
3.45567	93
3.45933	83
3.46300	74
3.46667	68
3.47033	66
3.47400	69
3.47767	74
3.48133	80
3.48500	84
3.48867	88
3.49233	89
3.49600	87
3.49967	86
3.50333	88
3.50700	93
3.51067	96
3.51433	95
3.51800	91
3.52167	87
3.52533	86
3.52900	87
3.53267	88
3.53633	86
3.54000	83
3.54367	77
3.54733	69
3.55100	64
3.55467	64
3.55833	67
3.56200	71
3.56567	75
3.56933	77
3.57300	75
3.57667	72
3.58033	71
3.58400	71
3.58767	71
3.59133	70
3.59500	69
3.59867	67
3.60233	66
3.60600	65
3.60967	61
3.61333	57
3.61700	57
3.62067	59
3.62433	58
3.62800	53
3.63167	48
3.63533	45
3.63900	46
3.64267	50
3.64633	54
3.65000	57
3.65367	57
3.65733	57
3.66100	55
3.66467	55
3.66833	59
3.67200	64
3.67567	68
3.67933	72
3.68300	76
3.68667	79
3.69033	79
3.69400	77
3.69767	75
3.70133	74
3.70500	75
3.70867	76
3.71233	76
3.71600	71
3.71967	60
3.72333	46
3.72700	32
3.73067	21
3.73433	17
3.73800	18
3.74167	21
3.74533	23
3.74900	24
3.75267	27
3.75633	34
3.76000	42
3.76367	52
3.76733	60
3.77100	63
3.77467	62
3.77833	56
3.78200	49
3.78567	41
3.78933	32
3.79300	27
3.79667	25
3.80033	29
3.80400	35
3.80767	42
3.81133	49
3.81500	54
3.81867	57
3.82233	59
3.82600	59
3.82967	54
3.83333	46
3.83700	39
3.84067	37
3.84433	38
3.84800	42
3.85167	45
3.85533	44
3.85900	44
3.86267	44
3.86633	46
3.87000	46
3.87367	45
3.87733	41
3.88100	38
3.88467	37
3.88833	37
3.89200	36
3.89567	34
3.89933	31
3.90300	30
3.90667	32
3.91033	31
3.91400	27
3.91767	26
3.92133	27
3.92500	28
3.92867	32
3.93233	35
3.93600	32
3.93967	28
3.94333	26
3.94700	27
3.95067	26
3.95433	26
3.95800	28
3.96167	32
3.96533	37
3.96900	40
3.97267	41
3.97633	40
3.98000	42
3.98367	44
3.98733	44
3.99100	40
3.99467	32
3.99833	25

[Chromatogram (Ch2)]
Interval(msec)	220
# of Points	1091
Start Time(min)	0.002
End Time(min)	3.998
R.Time (min)	Intensity
0.00167	-0
0.00533	-0
0.00900	-0
0.01267	-0
0.01633	0
0.02000	0
0.02367	0
0.02733	0
0.03100	1
0.03467	1
0.03833	1
0.04200	1
0.04567	1
0.04933	1
0.05300	1
0.05667	1
0.06033	2
0.06400	2
0.06767	2
0.07133	2
0.07500	1
0.07867	1
0.08233	1
0.08600	1
0.08967	1
0.09333	1
0.09700	1
0.10067	1
0.10433	1
0.10800	1
0.11167	1
0.11533	1
0.11900	1
0.12267	1
0.12633	1
0.13000	1
0.13367	1
0.13733	1
0.14100	1
0.14467	1
0.14833	1
0.15200	1
0.15567	1
0.15933	1
0.16300	1
0.16667	1
0.17033	0
0.17400	0
0.17767	-0
0.18133	-0
0.18500	-0
0.18867	-1
0.19233	-1
0.19600	-1
0.19967	-1
0.20333	-1
0.20700	-0
0.21067	-0
0.21433	0
0.21800	1
0.22167	1
0.22533	1
0.22900	1
0.23267	1
0.23633	1
0.24000	0
0.24367	0
0.24733	0
0.25100	0
0.25467	0
0.25833	0
0.26200	0
0.26567	1
0.26933	1
0.27300	1
0.27667	1
0.28033	1
0.28400	1
0.28767	2
0.29133	2
0.29500	2
0.29867	1
0.30233	1
0.30600	1
0.30967	1
0.31333	1
0.31700	2
0.32067	2
0.32433	2
0.32800	2
0.33167	2
0.33533	2
0.33900	1
0.34267	1
0.34633	1
0.35000	0
0.35367	-0
0.35733	-0
0.36100	-0
0.36467	-1
0.36833	-1
0.37200	-1
0.37567	-1
0.37933	-0
0.38300	-0
0.38667	-0
0.39033	-0
0.39400	-1
0.39767	-1
0.40133	-1
0.40500	-1
0.40867	-1
0.41233	-0
0.41600	-0
0.41967	0
0.42333	0
0.42700	0
0.43067	0
0.43433	1
0.43800	1
0.44167	1
0.44533	1
0.44900	1
0.45267	1
0.45633	1
0.46000	1
0.46367	1
0.46733	1
0.47100	0
0.47467	0
0.47833	0
0.48200	0
0.48567	0
0.48933	0
0.49300	0
0.49667	-0
0.50033	-0
0.50400	-0
0.50767	-0
0.51133	-0
0.51500	-0
0.51867	-0
0.52233	-1
0.52600	-1
0.52967	-1
0.53333	-1
0.53700	-0
0.54067	-0
0.54433	-0
0.54800	-0
0.55167	0
0.55533	0
0.55900	0
0.56267	0
0.56633	0
0.57000	0
0.57367	0
0.57733	0
0.58100	1
0.58467	1
0.58833	1
0.59200	1
0.59567	1
0.59933	0
0.60300	-0
0.60667	-0
0.61033	-1
0.61400	-1
0.61767	-1
0.62133	-1
0.62500	-1
0.62867	-1
0.63233	-2
0.63600	-2
0.63967	-2
0.64333	-2
0.64700	-2
0.65067	-2
0.65433	-2
0.65800	-2
0.66167	-2
0.66533	-2
0.66900	-2
0.67267	-2
0.67633	-2
0.68000	-2
0.68367	-2
0.68733	-2
0.69100	-2
0.69467	-2
0.69833	-2
0.70200	-2
0.70567	-2
0.70933	-2
0.71300	-1
0.71667	-1
0.72033	-1
0.72400	-1
0.72767	-1
0.73133	-1
0.73500	-1
0.73867	-1
0.74233	-1
0.74600	-1
0.74967	-1
0.75333	-1
0.75700	-1
0.76067	-2
0.76433	-2
0.76800	-2
0.77167	-2
0.77533	-2
0.77900	-2
0.78267	-2
0.78633	-2
0.79000	-2
0.79367	-1
0.79733	-1
0.80100	-1
0.80467	-1
0.80833	-1
0.81200	-1
0.81567	-0
0.81933	-0
0.82300	0
0.82667	0
0.83033	0
0.83400	1
0.83767	1
0.84133	1
0.84500	1
0.84867	1
0.85233	0
0.85600	-0
0.85967	-0
0.86333	-0
0.86700	-0
0.87067	-0
0.87433	-0
0.87800	-0
0.88167	-0
0.88533	-0
0.88900	-0
0.89267	-0
0.89633	-1
0.90000	-1
0.90367	-1
0.90733	-2
0.91100	-2
0.91467	-2
0.91833	-2
0.92200	-2
0.92567	-2
0.92933	-1
0.93300	-1
0.93667	-1
0.94033	-1
0.94400	-1
0.94767	-1
0.95133	-1
0.95500	-1
0.95867	-1
0.96233	-1
0.96600	-1
0.96967	-1
0.97333	-2
0.97700	-2
0.98067	-2
0.98433	-2
0.98800	-2
0.99167	-2
0.99533	-2
0.99900	-2
1.00267	-2
1.00633	-2
1.01000	-2
1.01367	-2
1.01733	-2
1.02100	-2
1.02467	-1
1.02833	-1
1.03200	-1
1.03567	-1
1.03933	-1
1.04300	-2
1.04667	-2
1.05033	-2
1.05400	-2
1.05767	-2
1.06133	-2
1.06500	-2
1.06867	-2
1.07233	-2
1.07600	-2
1.07967	-2
1.08333	-2
1.08700	-2
1.09067	-2
1.09433	-2
1.09800	-3
1.10167	-3
1.10533	-3
1.10900	-3
1.11267	-3
1.11633	-3
1.12000	-3
1.12367	-2
1.12733	-2
1.13100	-2
1.13467	-2
1.13833	-2
1.14200	-1
1.14567	-1
1.14933	-1
1.15300	-1
1.15667	-1
1.16033	-1
1.16400	-1
1.16767	-1
1.17133	-1
1.17500	-1
1.17867	-1
1.18233	-1
1.18600	-1
1.18967	-1
1.19333	-1
1.19700	-1
1.20067	-1
1.20433	-1
1.20800	-2
1.21167	-2
1.21533	-2
1.21900	-2
1.22267	-2
1.22633	-2
1.23000	-3
1.23367	-3
1.23733	-3
1.24100	-3
1.24467	-3
1.24833	-3
1.25200	-3
1.25567	-3
1.25933	-3
1.26300	-3
1.26667	-3
1.27033	-3
1.27400	-2
1.27767	-2
1.28133	-2
1.28500	-2
1.28867	-2
1.29233	-2
1.29600	-2
1.29967	-2
1.30333	-2
1.30700	-2
1.31067	-2
1.31433	-3
1.31800	-3
1.32167	-3
1.32533	-3
1.32900	-3
1.33267	-3
1.33633	-3
1.34000	-3
1.34367	-3
1.34733	-3
1.35100	-3
1.35467	-3
1.35833	-3
1.36200	-3
1.36567	-3
1.36933	-3
1.37300	-3
1.37667	-3
1.38033	-3
1.38400	-2
1.38767	-2
1.39133	-2
1.39500	-3
1.39867	-3
1.40233	-3
1.40600	-2
1.40967	-2
1.41333	-2
1.41700	-2
1.42067	-1
1.42433	-1
1.42800	-1
1.43167	-1
1.43533	-1
1.43900	-1
1.44267	-1
1.44633	-1
1.45000	-2
1.45367	-2
1.45733	-2
1.46100	-2
1.46467	-2
1.46833	-3
1.47200	-3
1.47567	-3
1.47933	-3
1.48300	-3
1.48667	-3
1.49033	-3
1.49400	-3
1.49767	-3
1.50133	-3
1.50500	-3
1.50867	-3
1.51233	-3
1.51600	-3
1.51967	-3
1.52333	-3
1.52700	-3
1.53067	-3
1.53433	-4
1.53800	-4
1.54167	-4
1.54533	-4
1.54900	-4
1.55267	-4
1.55633	-4
1.56000	-3
1.56367	-3
1.56733	-4
1.57100	-4
1.57467	-4
1.57833	-4
1.58200	-4
1.58567	-4
1.58933	-4
1.59300	-4
1.59667	-4
1.60033	-5
1.60400	-6
1.60767	-7
1.61133	-9
1.61500	-10
1.61867	-13
1.62233	-15
1.62600	-18
1.62967	-21
1.63333	-24
1.63700	-28
1.64067	-31
1.64433	-34
1.64800	-38
1.65167	-41
1.65533	-45
1.65900	-49
1.66267	-53
1.66633	-57
1.67000	-62
1.67367	-66
1.67733	-71
1.68100	-76
1.68467	-81
1.68833	-85
1.69200	-89
1.69567	-93
1.69933	-97
1.70300	-100
1.70667	-103
1.71033	-105
1.71400	-107
1.71767	-109
1.72133	-110
1.72500	-111
1.72867	-111
1.73233	-112
1.73600	-113
1.73967	-113
1.74333	-114
1.74700	-114
1.75067	-115
1.75433	-115
1.75800	-115
1.76167	-116
1.76533	-116
1.76900	-116
1.77267	-116
1.77633	-116
1.78000	-116
1.78367	-115
1.78733	-115
1.79100	-115
1.79467	-116
1.79833	-116
1.80200	-117
1.80567	-117
1.80933	-118
1.81300	-119
1.81667	-120
1.82033	-121
1.82400	-122
1.82767	-122
1.83133	-122
1.83500	-122
1.83867	-122
1.84233	-121
1.84600	-121
1.84967	-122
1.85333	-122
1.85700	-122
1.86067	-122
1.86433	-122
1.86800	-122
1.87167	-122
1.87533	-122
1.87900	-121
1.88267	-121
1.88633	-121
1.89000	-120
1.89367	-120
1.89733	-119
1.90100	-119
1.90467	-118
1.90833	-118
1.91200	-118
1.91567	-117
1.91933	-117
1.92300	-117
1.92667	-118
1.93033	-118
1.93400	-118
1.93767	-118
1.94133	-118
1.94500	-118
1.94867	-118
1.95233	-118
1.95600	-118
1.95967	-118
1.96333	-117
1.96700	-116
1.97067	-116
1.97433	-115
1.97800	-115
1.98167	-114
1.98533	-114
1.98900	-114
1.99267	-114
1.99633	-113
2.00000	-113
2.00367	-113
2.00733	-112
2.01100	-112
2.01467	-111
2.01833	-111
2.02200	-111
2.02567	-111
2.02933	-111
2.03300	-112
2.03667	-112
2.04033	-112
2.04400	-113
2.04767	-113
2.05133	-112
2.05500	-111
2.05867	-110
2.06233	-109
2.06600	-108
2.06967	-107
2.07333	-107
2.07700	-107
2.08067	-106
2.08433	-106
2.08800	-106
2.09167	-105
2.09533	-105
2.09900	-105
2.10267	-105
2.10633	-104
2.11000	-103
2.11367	-102
2.11733	-102
2.12100	-101
2.12467	-101
2.12833	-101
2.13200	-101
2.13567	-101
2.13933	-101
2.14300	-100
2.14667	-100
2.15033	-100
2.15400	-100
2.15767	-100
2.16133	-100
2.16500	-100
2.16867	-100
2.17233	-100
2.17600	-99
2.17967	-99
2.18333	-98
2.18700	-98
2.19067	-98
2.19433	-98
2.19800	-98
2.20167	-98
2.20533	-97
2.20900	-97
2.21267	-96
2.21633	-96
2.22000	-95
2.22367	-94
2.22733	-93
2.23100	-93
2.23467	-92
2.23833	-92
2.24200	-93
2.24567	-93
2.24933	-94
2.25300	-94
2.25667	-94
2.26033	-94
2.26400	-94
2.26767	-93
2.27133	-93
2.27500	-93
2.27867	-93
2.28233	-93
2.28600	-93
2.28967	-93
2.29333	-93
2.29700	-93
2.30067	-92
2.30433	-91
2.30800	-90
2.31167	-89
2.31533	-89
2.31900	-88
2.32267	-88
2.32633	-87
2.33000	-86
2.33367	-86
2.33733	-85
2.34100	-85
2.34467	-85
2.34833	-84
2.35200	-83
2.35567	-82
2.35933	-81
2.36300	-79
2.36667	-78
2.37033	-76
2.37400	-75
2.37767	-73
2.38133	-70
2.38500	-67
2.38867	-64
2.39233	-60
2.39600	-56
2.39967	-52
2.40333	-48
2.40700	-44
2.41067	-39
2.41433	-35
2.41800	-31
2.42167	-27
2.42533	-24
2.42900	-21
2.43267	-19
2.43633	-16
2.44000	-14
2.44367	-12
2.44733	-10
2.45100	-8
2.45467	-7
2.45833	-6
2.46200	-4
2.46567	-3
2.46933	-2
2.47300	-1
2.47667	1
2.48033	1
2.48400	2
2.48767	2
2.49133	3
2.49500	3
2.49867	4
2.50233	4
2.50600	5
2.50967	6
2.51333	7
2.51700	8
2.52067	8
2.52433	9
2.52800	10
2.53167	11
2.53533	12
2.53900	12
2.54267	13
2.54633	14
2.55000	15
2.55367	15
2.55733	15
2.56100	16
2.56467	16
2.56833	17
2.57200	17
2.57567	17
2.57933	17
2.58300	18
2.58667	18
2.59033	18
2.59400	18
2.59767	18
2.60133	18
2.60500	18
2.60867	18
2.61233	18
2.61600	18
2.61967	18
2.62333	18
2.62700	18
2.63067	18
2.63433	18
2.63800	18
2.64167	19
2.64533	19
2.64900	20
2.65267	20
2.65633	20
2.66000	20
2.66367	21
2.66733	21
2.67100	21
2.67467	21
2.67833	22
2.68200	22
2.68567	22
2.68933	23
2.69300	23
2.69667	22
2.70033	22
2.70400	22
2.70767	21
2.71133	21
2.71500	21
2.71867	22
2.72233	22
2.72600	23
2.72967	23
2.73333	24
2.73700	25
2.74067	25
2.74433	26
2.74800	27
2.75167	27
2.75533	27
2.75900	27
2.76267	27
2.76633	26
2.77000	26
2.77367	25
2.77733	24
2.78100	24
2.78467	23
2.78833	23
2.79200	22
2.79567	23
2.79933	23
2.80300	23
2.80667	23
2.81033	24
2.81400	24
2.81767	24
2.82133	25
2.82500	25
2.82867	25
2.83233	25
2.83600	26
2.83967	26
2.84333	26
2.84700	26
2.85067	26
2.85433	24
2.85800	21
2.86167	16
2.86533	9
2.86900	-2
2.87267	-16
2.87633	-35
2.88000	-58
2.88367	-86
2.88733	-119
2.89100	-158
2.89467	-202
2.89833	-250
2.90200	-304
2.90567	-361
2.90933	-422
2.91300	-487
2.91667	-555
2.92033	-626
2.92400	-700
2.92767	-776
2.93133	-855
2.93500	-936
2.93867	-1019
2.94233	-1104
2.94600	-1190
2.94967	-1277
2.95333	-1365
2.95700	-1448
2.96067	-1512
2.96433	-1548
2.96800	-1548
2.97167	-1513
2.97533	-1449
2.97900	-1362
2.98267	-1260
2.98633	-1150
2.99000	-1038
2.99367	-928
2.99733	-823
3.00100	-725
3.00467	-634
3.00833	-552
3.01200	-479
3.01567	-414
3.01933	-356
3.02300	-306
3.02667	-262
3.03033	-224
3.03400	-191
3.03767	-162
3.04133	-138
3.04500	-117
3.04867	-98
3.05233	-83
3.05600	-69
3.05967	-58
3.06333	-48
3.06700	-40
3.07067	-32
3.07433	-26
3.07800	-21
3.08167	-16
3.08533	-13
3.08900	-9
3.09267	-7
3.09633	-4
3.10000	-2
3.10367	-1
3.10733	1
3.11100	2
3.11467	4
3.11833	5
3.12200	6
3.12567	7
3.12933	8
3.13300	8
3.13667	9
3.14033	10
3.14400	11
3.14767	11
3.15133	12
3.15500	12
3.15867	13
3.16233	13
3.16600	14
3.16967	14
3.17333	14
3.17700	15
3.18067	15
3.18433	15
3.18800	16
3.19167	16
3.19533	16
3.19900	16
3.20267	16
3.20633	16
3.21000	17
3.21367	17
3.21733	17
3.22100	17
3.22467	18
3.22833	18
3.23200	18
3.23567	19
3.23933	19
3.24300	19
3.24667	19
3.25033	20
3.25400	20
3.25767	20
3.26133	20
3.26500	21
3.26867	21
3.27233	21
3.27600	21
3.27967	22
3.28333	22
3.28700	22
3.29067	22
3.29433	22
3.29800	22
3.30167	22
3.30533	22
3.30900	23
3.31267	23
3.31633	23
3.32000	23
3.32367	23
3.32733	23
3.33100	23
3.33467	23
3.33833	24
3.34200	24
3.34567	24
3.34933	25
3.35300	25
3.35667	25
3.36033	25
3.36400	26
3.36767	26
3.37133	26
3.37500	26
3.37867	26
3.38233	26
3.38600	27
3.38967	27
3.39333	27
3.39700	27
3.40067	27
3.40433	27
3.40800	27
3.41167	27
3.41533	27
3.41900	27
3.42267	27
3.42633	27
3.43000	28
3.43367	28
3.43733	28
3.44100	28
3.44467	28
3.44833	28
3.45200	28
3.45567	28
3.45933	28
3.46300	27
3.46667	27
3.47033	27
3.47400	27
3.47767	27
3.48133	27
3.48500	27
3.48867	27
3.49233	27
3.49600	27
3.49967	27
3.50333	26
3.50700	26
3.51067	26
3.51433	26
3.51800	26
3.52167	25
3.52533	25
3.52900	25
3.53267	25
3.53633	26
3.54000	25
3.54367	25
3.54733	25
3.55100	25
3.55467	26
3.55833	26
3.56200	26
3.56567	26
3.56933	25
3.57300	25
3.57667	25
3.58033	25
3.58400	25
3.58767	25
3.59133	25
3.59500	25
3.59867	25
3.60233	25
3.60600	25
3.60967	25
3.61333	25
3.61700	25
3.62067	25
3.62433	25
3.62800	25
3.63167	25
3.63533	25
3.63900	25
3.64267	25
3.64633	25
3.65000	25
3.65367	25
3.65733	25
3.66100	25
3.66467	25
3.66833	25
3.67200	25
3.67567	25
3.67933	25
3.68300	25
3.68667	25
3.69033	25
3.69400	25
3.69767	25
3.70133	25
3.70500	25
3.70867	25
3.71233	25
3.71600	25
3.71967	25
3.72333	25
3.72700	25
3.73067	25
3.73433	25
3.73800	25
3.74167	25
3.74533	25
3.74900	25
3.75267	25
3.75633	25
3.76000	25
3.76367	25
3.76733	25
3.77100	25
3.77467	26
3.77833	26
3.78200	26
3.78567	26
3.78933	26
3.79300	26
3.79667	26
3.80033	26
3.80400	26
3.80767	26
3.81133	27
3.81500	27
3.81867	27
3.82233	27
3.82600	27
3.82967	27
3.83333	26
3.83700	26
3.84067	26
3.84433	26
3.84800	26
3.85167	25
3.85533	25
3.85900	25
3.86267	25
3.86633	25
3.87000	25
3.87367	25
3.87733	25
3.88100	25
3.88467	25
3.88833	24
3.89200	24
3.89567	25
3.89933	25
3.90300	25
3.90667	25
3.91033	25
3.91400	26
3.91767	26
3.92133	26
3.92500	26
3.92867	26
3.93233	26
3.93600	26
3.93967	26
3.94333	26
3.94700	26
3.95067	26
3.95433	26
3.95800	27
3.96167	27
3.96533	27
3.96900	27
3.97267	27
3.97633	26
3.98000	26
3.98367	26
3.98733	26
3.99100	26
3.99467	26
3.99833	26

[Chromatogram (Ch3)]
Interval(msec)	220
# of Points	1091
Start Time(min)	0.002
End Time(min)	3.998
R.Time (min)	Intensity
0.00167	-0
0.00533	-1
0.00900	-3
0.01267	-5
0.01633	-5
0.02000	-2
0.02367	-0
0.02733	-3
0.03100	-4
0.03467	-2
0.03833	-2
0.04200	-3
0.04567	-2
0.04933	-2
0.05300	-1
0.05667	-0
0.06033	1
0.06400	4
0.06767	6
0.07133	7
0.07500	6
0.07867	3
0.08233	1
0.08600	0
0.08967	2
0.09333	4
0.09700	7
0.10067	8
0.10433	9
0.10800	8
0.11167	6
0.11533	6
0.11900	5
0.12267	6
0.12633	6
0.13000	6
0.13367	9
0.13733	9
0.14100	10
0.14467	9
0.14833	9
0.15200	10
0.15567	12
0.15933	13
0.16300	10
0.16667	8
0.17033	11
0.17400	13
0.17767	14
0.18133	15
0.18500	16
0.18867	16
0.19233	14
0.19600	14
0.19967	12
0.20333	8
0.20700	5
0.21067	3
0.21433	2
0.21800	3
0.22167	6
0.22533	7
0.22900	8
0.23267	11
0.23633	12
0.24000	14
0.24367	16
0.24733	17
0.25100	16
0.25467	13
0.25833	12
0.26200	12
0.26567	12
0.26933	10
0.27300	9
0.27667	9
0.28033	11
0.28400	12
0.28767	9
0.29133	8
0.29500	6
0.29867	7
0.30233	9
0.30600	10
0.30967	10
0.31333	11
0.31700	11
0.32067	8
0.32433	6
0.32800	6
0.33167	7
0.33533	7
0.33900	7
0.34267	6
0.34633	5
0.35000	4
0.35367	4
0.35733	4
0.36100	5
0.36467	6
0.36833	8
0.37200	9
0.37567	11
0.37933	10
0.38300	5
0.38667	0
0.39033	-3
0.39400	-3
0.39767	0
0.40133	4
0.40500	7
0.40867	10
0.41233	9
0.41600	7
0.41967	4
0.42333	4
0.42700	7
0.43067	9
0.43433	10
0.43800	9
0.44167	7
0.44533	4
0.44900	3
0.45267	2
0.45633	1
0.46000	2
0.46367	5
0.46733	5
0.47100	5
0.47467	6
0.47833	6
0.48200	5
0.48567	4
0.48933	4
0.49300	4
0.49667	5
0.50033	4
0.50400	5
0.50767	10
0.51133	11
0.51500	14
0.51867	15
0.52233	14
0.52600	12
0.52967	11
0.53333	10
0.53700	11
0.54067	12
0.54433	12
0.54800	12
0.55167	12
0.55533	11
0.55900	11
0.56267	13
0.56633	11
0.57000	10
0.57367	11
0.57733	13
0.58100	12
0.58467	12
0.58833	12
0.59200	13
0.59567	13
0.59933	10
0.60300	9
0.60667	9
0.61033	8
0.61400	8
0.61767	9
0.62133	9
0.62500	9
0.62867	10
0.63233	10
0.63600	12
0.63967	13
0.64333	11
0.64700	8
0.65067	7
0.65433	7
0.65800	7
0.66167	8
0.66533	9
0.66900	9
0.67267	9
0.67633	8
0.68000	7
0.68367	5
0.68733	5
0.69100	4
0.69467	5
0.69833	8
0.70200	9
0.70567	7
0.70933	6
0.71300	5
0.71667	1
0.72033	1
0.72400	4
0.72767	7
0.73133	9
0.73500	10
0.73867	10
0.74233	8
0.74600	7
0.74967	4
0.75333	2
0.75700	2
0.76067	1
0.76433	2
0.76800	1
0.77167	-1
0.77533	-3
0.77900	-3
0.78267	-3
0.78633	-2
0.79000	-1
0.79367	1
0.79733	5
0.80100	7
0.80467	9
0.80833	9
0.81200	5
0.81567	-0
0.81933	-3
0.82300	-4
0.82667	-4
0.83033	-3
0.83400	-4
0.83767	-7
0.84133	-8
0.84500	-6
0.84867	-7
0.85233	-8
0.85600	-8
0.85967	-9
0.86333	-12
0.86700	-10
0.87067	-8
0.87433	-7
0.87800	-7
0.88167	-7
0.88533	-7
0.88900	-7
0.89267	-7
0.89633	-9
0.90000	-7
0.90367	-7
0.90733	-9
0.91100	-12
0.91467	-15
0.91833	-12
0.92200	-8
0.92567	-7
0.92933	-6
0.93300	-6
0.93667	-7
0.94033	-5
0.94400	-4
0.94767	-4
0.95133	-5
0.95500	-6
0.95867	-4
0.96233	-3
0.96600	-3
0.96967	-3
0.97333	-2
0.97700	-2
0.98067	-4
0.98433	-7
0.98800	-10
0.99167	-12
0.99533	-10
0.99900	-6
1.00267	-6
1.00633	-6
1.01000	-7
1.01367	-7
1.01733	-5
1.02100	-4
1.02467	-4
1.02833	-5
1.03200	-6
1.03567	-6
1.03933	-6
1.04300	-7
1.04667	-7
1.05033	-6
1.05400	-4
1.05767	-5
1.06133	-6
1.06500	-5
1.06867	-5
1.07233	-4
1.07600	-3
1.07967	-3
1.08333	-4
1.08700	-4
1.09067	-5
1.09433	-6
1.09800	-8
1.10167	-8
1.10533	-6
1.10900	-7
1.11267	-8
1.11633	-7
1.12000	-9
1.12367	-12
1.12733	-13
1.13100	-13
1.13467	-11
1.13833	-8
1.14200	-7
1.14567	-6
1.14933	-5
1.15300	-6
1.15667	-7
1.16033	-6
1.16400	-7
1.16767	-8
1.17133	-9
1.17500	-8
1.17867	-6
1.18233	-6
1.18600	-7
1.18967	-9
1.19333	-11
1.19700	-10
1.20067	-10
1.20433	-11
1.20800	-10
1.21167	-8
1.21533	-6
1.21900	-7
1.22267	-8
1.22633	-10
1.23000	-11
1.23367	-12
1.23733	-13
1.24100	-11
1.24467	-11
1.24833	-13
1.25200	-14
1.25567	-12
1.25933	-11
1.26300	-12
1.26667	-14
1.27033	-12
1.27400	-10
1.27767	-10
1.28133	-13
1.28500	-16
1.28867	-18
1.29233	-21
1.29600	-19
1.29967	-18
1.30333	-18
1.30700	-17
1.31067	-18
1.31433	-20
1.31800	-20
1.32167	-20
1.32533	-18
1.32900	-16
1.33267	-16
1.33633	-15
1.34000	-15
1.34367	-15
1.34733	-14
1.35100	-15
1.35467	-15
1.35833	-14
1.36200	-12
1.36567	-12
1.36933	-14
1.37300	-15
1.37667	-13
1.38033	-11
1.38400	-10
1.38767	-12
1.39133	-15
1.39500	-17
1.39867	-16
1.40233	-16
1.40600	-15
1.40967	-15
1.41333	-15
1.41700	-15
1.42067	-15
1.42433	-13
1.42800	-12
1.43167	-13
1.43533	-14
1.43900	-16
1.44267	-15
1.44633	-14
1.45000	-15
1.45367	-15
1.45733	-16
1.46100	-17
1.46467	-17
1.46833	-17
1.47200	-17
1.47567	-15
1.47933	-10
1.48300	-8
1.48667	-10
1.49033	-12
1.49400	-13
1.49767	-12
1.50133	-15
1.50500	-16
1.50867	-15
1.51233	-13
1.51600	-11
1.51967	-12
1.52333	-11
1.52700	-11
1.53067	-13
1.53433	-14
1.53800	-15
1.54167	-14
1.54533	-13
1.54900	-13
1.55267	-14
1.55633	-14
1.56000	-15
1.56367	-15
1.56733	-15
1.57100	-17
1.57467	-16
1.57833	-14
1.58200	-15
1.58567	-17
1.58933	-18
1.59300	-17
1.59667	-16
1.60033	-15
1.60400	-16
1.60767	-17
1.61133	-16
1.61500	-12
1.61867	-11
1.62233	-11
1.62600	-10
1.62967	-11
1.63333	-13
1.63700	-15
1.64067	-15
1.64433	-15
1.64800	-16
1.65167	-16
1.65533	-13
1.65900	-11
1.66267	-9
1.66633	-6
1.67000	-8
1.67367	-13
1.67733	-13
1.68100	-12
1.68467	-11
1.68833	-9
1.69200	-9
1.69567	-10
1.69933	-11
1.70300	-12
1.70667	-12
1.71033	-9
1.71400	-7
1.71767	-8
1.72133	-7
1.72500	-8
1.72867	-9
1.73233	-10
1.73600	-7
1.73967	-3
1.74333	-1
1.74700	-2
1.75067	-5
1.75433	-7
1.75800	-7
1.76167	-7
1.76533	-8
1.76900	-7
1.77267	-4
1.77633	-4
1.78000	-4
1.78367	-6
1.78733	-5
1.79100	-3
1.79467	-2
1.79833	-1
1.80200	-1
1.80567	-1
1.80933	-1
1.81300	-1
1.81667	1
1.82033	1
1.82400	2
1.82767	2
1.83133	1
1.83500	2
1.83867	3
1.84233	2
1.84600	3
1.84967	4
1.85333	5
1.85700	7
1.86067	8
1.86433	9
1.86800	10
1.87167	10
1.87533	10
1.87900	11
1.88267	11
1.88633	10
1.89000	9
1.89367	8
1.89733	7
1.90100	8
1.90467	11
1.90833	13
1.91200	13
1.91567	15
1.91933	16
1.92300	18
1.92667	19
1.93033	17
1.93400	16
1.93767	16
1.94133	19
1.94500	22
1.94867	23
1.95233	26
1.95600	27
1.95967	27
1.96333	25
1.96700	25
1.97067	26
1.97433	26
1.97800	25
1.98167	24
1.98533	24
1.98900	26
1.99267	27
1.99633	26
2.00000	27
2.00367	29
2.00733	31
2.01100	33
2.01467	34
2.01833	34
2.02200	35
2.02567	36
2.02933	37
2.03300	38
2.03667	39
2.04033	41
2.04400	42
2.04767	42
2.05133	42
2.05500	42
2.05867	43
2.06233	47
2.06600	48
2.06967	49
2.07333	50
2.07700	49
2.08067	48
2.08433	48
2.08800	47
2.09167	47
2.09533	48
2.09900	51
2.10267	54
2.10633	56
2.11000	59
2.11367	60
2.11733	58
2.12100	55
2.12467	53
2.12833	52
2.13200	55
2.13567	57
2.13933	58
2.14300	61
2.14667	61
2.15033	61
2.15400	60
2.15767	61
2.16133	63
2.16500	65
2.16867	66
2.17233	66
2.17600	68
2.17967	68
2.18333	67
2.18700	68
2.19067	70
2.19433	73
2.19800	73
2.20167	73
2.20533	74
2.20900	75
2.21267	76
2.21633	77
2.22000	76
2.22367	75
2.22733	75
2.23100	76
2.23467	77
2.23833	79
2.24200	83
2.24567	83
2.24933	83
2.25300	85
2.25667	88
2.26033	91
2.26400	93
2.26767	96
2.27133	98
2.27500	100
2.27867	105
2.28233	106
2.28600	106
2.28967	106
2.29333	107
2.29700	108
2.30067	109
2.30433	111
2.30800	113
2.31167	114
2.31533	116
2.31900	117
2.32267	117
2.32633	116
2.33000	116
2.33367	118
2.33733	118
2.34100	119
2.34467	122
2.34833	121
2.35200	121
2.35567	122
2.35933	124
2.36300	127
2.36667	130
2.37033	131
2.37400	132
2.37767	132
2.38133	131
2.38500	129
2.38867	128
2.39233	130
2.39600	136
2.39967	141
2.40333	143
2.40700	144
2.41067	146
2.41433	149
2.41800	150
2.42167	151
2.42533	151
2.42900	152
2.43267	155
2.43633	155
2.44000	153
2.44367	164
2.44733	203
2.45100	246
2.45467	268
2.45833	262
2.46200	242
2.46567	225
2.46933	212
2.47300	195
2.47667	175
2.48033	152
2.48400	128
2.48767	107
2.49133	88
2.49500	74
2.49867	65
2.50233	60
2.50600	59
2.50967	63
2.51333	65
2.51700	64
2.52067	62
2.52433	54
2.52800	45
2.53167	30
2.53533	14
2.53900	1
2.54267	-8
2.54633	-17
2.55000	-23
2.55367	-29
2.55733	-35
2.56100	-41
2.56467	-45
2.56833	-50
2.57200	-53
2.57567	-53
2.57933	-51
2.58300	-50
2.58667	-49
2.59033	-59
2.59400	-90
2.59767	-117
2.60133	-126
2.60500	-118
2.60867	-103
2.61233	-89
2.61600	-81
2.61967	-82
2.62333	-92
2.62700	-105
2.63067	-120
2.63433	-135
2.63800	-148
2.64167	-162
2.64533	-173
2.64900	-182
2.65267	-188
2.65633	-188
2.66000	-184
2.66367	-177
2.66733	-167
2.67100	-151
2.67467	-134
2.67833	-114
2.68200	-91
2.68567	-69
2.68933	-48
2.69300	-28
2.69667	-9
2.70033	10
2.70400	28
2.70767	45
2.71133	64
2.71500	80
2.71867	93
2.72233	108
2.72600	122
2.72967	134
2.73333	144
2.73700	153
2.74067	164
2.74433	176
2.74800	186
2.75167	194
2.75533	202
2.75900	210
2.76267	214
2.76633	216
2.77000	221
2.77367	226
2.77733	233
2.78100	240
2.78467	245
2.78833	244
2.79200	241
2.79567	240
2.79933	239
2.80300	239
2.80667	235
2.81033	232
2.81400	230
2.81767	227
2.82133	228
2.82500	231
2.82867	248
2.83233	295
2.83600	404
2.83967	627
2.84333	1037
2.84700	1710
2.85067	2700
2.85433	4026
2.85800	5665
2.86167	7539
2.86533	9531
2.86900	11503
2.87267	13304
2.87633	14787
2.88000	15861
2.88367	16471
2.88733	16617
2.89100	16344
2.89467	15727
2.89833	14858
2.90200	13819
2.90567	12692
2.90933	11538
2.91300	10399
2.91667	9311
2.92033	8293
2.92400	7355
2.92767	6499
2.93133	5728
2.93500	5040
2.93867	4430
2.94233	3889
2.94600	3409
2.94967	2985
2.95333	2617
2.95700	2298
2.96067	2021
2.96433	1776
2.96800	1561
2.97167	1373
2.97533	1211
2.97900	1073
2.98267	954
2.98633	849
2.99000	759
2.99367	684
2.99733	620
3.00100	564
3.00467	515
3.00833	472
3.01200	437
3.01567	405
3.01933	376
3.02300	350
3.02667	330
3.03033	313
3.03400	298
3.03767	287
3.04133	276
3.04500	267
3.04867	260
3.05233	253
3.05600	248
3.05967	242
3.06333	237
3.06700	234
3.07067	232
3.07433	229
3.07800	225
3.08167	219
3.08533	218
3.08900	217
3.09267	217
3.09633	214
3.10000	211
3.10367	210
3.10733	209
3.11100	210
3.11467	210
3.11833	210
3.12200	211
3.12567	211
3.12933	211
3.13300	209
3.13667	208
3.14033	207
3.14400	206
3.14767	204
3.15133	199
3.15500	195
3.15867	193
3.16233	191
3.16600	190
3.16967	189
3.17333	189
3.17700	189
3.18067	186
3.18433	185
3.18800	185
3.19167	186
3.19533	184
3.19900	183
3.20267	180
3.20633	176
3.21000	172
3.21367	167
3.21733	164
3.22100	160
3.22467	157
3.22833	158
3.23200	157
3.23567	154
3.23933	152
3.24300	148
3.24667	146
3.25033	145
3.25400	144
3.25767	143
3.26133	141
3.26500	140
3.26867	138
3.27233	134
3.27600	133
3.27967	130
3.28333	128
3.28700	129
3.29067	129
3.29433	127
3.29800	125
3.30167	122
3.30533	119
3.30900	115
3.31267	112
3.31633	110
3.32000	108
3.32367	105
3.32733	102
3.33100	99
3.33467	98
3.33833	97
3.34200	94
3.34567	91
3.34933	88
3.35300	86
3.35667	85
3.36033	84
3.36400	84
3.36767	81
3.37133	78
3.37500	76
3.37867	72
3.38233	69
3.38600	67
3.38967	64
3.39333	62
3.39700	62
3.40067	60
3.40433	58
3.40800	56
3.41167	55
3.41533	54
3.41900	54
3.42267	52
3.42633	48
3.43000	43
3.43367	44
3.43733	44
3.44100	42
3.44467	38
3.44833	34
3.45200	36
3.45567	38
3.45933	37
3.46300	37
3.46667	36
3.47033	34
3.47400	31
3.47767	27
3.48133	25
3.48500	24
3.48867	24
3.49233	24
3.49600	25
3.49967	23
3.50333	20
3.50700	20
3.51067	19
3.51433	16
3.51800	12
3.52167	10
3.52533	10
3.52900	10
3.53267	9
3.53633	10
3.54000	10
3.54367	9
3.54733	5
3.55100	3
3.55467	3
3.55833	5
3.56200	7
3.56567	6
3.56933	4
3.57300	2
3.57667	-0
3.58033	-1
3.58400	-4
3.58767	-5
3.59133	-6
3.59500	-7
3.59867	-7
3.60233	-7
3.60600	-6
3.60967	-5
3.61333	-6
3.61700	-8
3.62067	-11
3.62433	-14
3.62800	-17
3.63167	-19
3.63533	-23
3.63900	-26
3.64267	-26
3.64633	-27
3.65000	-27
3.65367	-28
3.65733	-27
3.66100	-27
3.66467	-28
3.66833	-28
3.67200	-29
3.67567	-29
3.67933	-28
3.68300	-29
3.68667	-31
3.69033	-32
3.69400	-33
3.69767	-35
3.70133	-38
3.70500	-41
3.70867	-41
3.71233	-41
3.71600	-39
3.71967	-38
3.72333	-39
3.72700	-40
3.73067	-39
3.73433	-40
3.73800	-42
3.74167	-44
3.74533	-46
3.74900	-45
3.75267	-45
3.75633	-47
3.76000	-48
3.76367	-46
3.76733	-47
3.77100	-49
3.77467	-49
3.77833	-50
3.78200	-51
3.78567	-54
3.78933	-54
3.79300	-51
3.79667	-49
3.80033	-51
3.80400	-53
3.80767	-56
3.81133	-59
3.81500	-61
3.81867	-61
3.82233	-60
3.82600	-60
3.82967	-58
3.83333	-58
3.83700	-58
3.84067	-59
3.84433	-60
3.84800	-61
3.85167	-62
3.85533	-61
3.85900	-60
3.86267	-60
3.86633	-60
3.87000	-61
3.87367	-61
3.87733	-63
3.88100	-65
3.88467	-67
3.88833	-67
3.89200	-66
3.89567	-65
3.89933	-64
3.90300	-63
3.90667	-60
3.91033	-62
3.91400	-65
3.91767	-68
3.92133	-71
3.92500	-70
3.92867	-70
3.93233	-71
3.93600	-72
3.93967	-71
3.94333	-71
3.94700	-74
3.95067	-76
3.95433	-76
3.95800	-75
3.96167	-73
3.96533	-71
3.96900	-72
3.97267	-74
3.97633	-75
3.98000	-76
3.98367	-76
3.98733	-74
3.99100	-74
3.99467	-74
3.99833	-75

[Status Trace (Column Oven Temperature)]
Interval(msec)	1000
# of Points	240
Start Time(min)	0.003
End Time(min)	3.986
Intensity Units	
Intensity Multiplier	1
R.Time (min)	Intensity
0.00257	35.02
0.01923	35.02
0.03590	35.02
0.05257	35.01
0.06923	35.00
0.08590	35.00
0.10257	35.01
0.11923	35.01
0.13590	35.01
0.15257	35.00
0.16923	35.00
0.18590	35.01
0.20257	35.01
0.21923	35.01
0.23590	35.01
0.25257	35.00
0.26923	35.00
0.28590	34.99
0.30257	34.99
0.31923	34.98
0.33590	34.99
0.35257	34.99
0.36923	35.00
0.38590	34.99
0.40257	35.00
0.41923	34.98
0.43590	34.97
0.45257	34.98
0.46923	34.98
0.48590	34.99
0.50257	34.99
0.51923	34.99
0.53590	34.99
0.55257	34.99
0.56923	34.99
0.58590	34.98
0.60257	34.99
0.61923	34.99
0.63590	34.99
0.65257	34.99
0.66923	34.99
0.68590	34.99
0.70257	35.00
0.71923	35.00
0.73590	35.00
0.75257	35.00
0.76923	35.01
0.78590	35.00
0.80257	35.00
0.81923	35.00
0.83590	35.01
0.85257	35.00
0.86923	34.98
0.88590	34.98
0.90257	34.98
0.91923	34.99
0.93590	34.99
0.95257	34.99
0.96923	35.00
0.98590	34.99
1.00257	34.99
1.01923	34.99
1.03590	34.99
1.05257	34.98
1.06923	34.98
1.08590	34.99
1.10257	34.99
1.11923	34.99
1.13590	34.99
1.15257	34.99
1.16923	34.99
1.18590	34.98
1.20257	34.98
1.21923	34.99
1.23590	35.00
1.25257	35.00
1.26923	35.00
1.28590	35.00
1.30257	35.00
1.31923	35.00
1.33590	35.00
1.35257	35.00
1.36923	34.99
1.38590	35.00
1.40257	34.99
1.41923	34.98
1.43590	34.97
1.45257	34.97
1.46923	34.98
1.48590	34.99
1.50257	34.99
1.51923	35.00
1.53590	35.01
1.55257	35.01
1.56923	35.00
1.58590	35.01
1.60257	35.05
1.61923	35.14
1.63590	35.29
1.65257	35.52
1.66923	35.83
1.68590	36.19
1.70257	36.55
1.71923	36.89
1.73590	37.22
1.75257	37.57
1.76923	37.90
1.78590	38.21
1.80257	38.54
1.81923	38.88
1.83590	39.21
1.85257	39.56
1.86923	39.88
1.88590	40.21
1.90257	40.52
1.91923	40.85
1.93590	41.17
1.95257	41.50
1.96923	41.82
1.98590	42.16
2.00257	42.49
2.01923	42.80
2.03590	43.16
2.05257	43.48
2.06923	43.80
2.08590	44.11
2.10257	44.45
2.11923	44.76
2.13590	45.06
2.15257	45.40
2.16923	45.73
2.18590	46.05
2.20257	46.39
2.21923	46.69
2.23590	47.04
2.25257	47.37
2.26923	47.70
2.28590	48.07
2.30257	48.40
2.31923	48.73
2.33590	49.05
2.35257	49.33
2.36923	49.55
2.38590	49.65
2.40257	49.66
2.41923	49.65
2.43590	49.66
2.45257	49.67
2.46923	49.67
2.48590	49.70
2.50257	49.71
2.51923	49.74
2.53590	49.74
2.55257	49.75
2.56923	49.76
2.58590	49.77
2.60257	49.79
2.61923	49.81
2.63590	49.82
2.65257	49.83
2.66923	49.84
2.68590	49.84
2.70257	49.87
2.71923	49.87
2.73590	49.85
2.75257	49.84
2.76923	49.87
2.78590	49.90
2.80257	49.91
2.81923	49.91
2.83590	49.90
2.85257	49.91
2.86923	49.92
2.88590	49.90
2.90257	49.92
2.91923	49.93
2.93590	49.94
2.95257	49.95
2.96923	49.97
2.98590	49.98
3.00257	49.99
3.01923	50.00
3.03590	50.01
3.05257	50.00
3.06923	50.00
3.08590	50.01
3.10257	50.02
3.11923	50.02
3.13590	50.03
3.15257	50.05
3.16923	50.06
3.18590	50.07
3.20257	50.08
3.21923	50.09
3.23590	50.10
3.25257	50.10
3.26923	50.10
3.28590	50.10
3.30257	50.11
3.31923	50.10
3.33590	50.09
3.35257	50.08
3.36923	50.07
3.38590	50.06
3.40257	50.05
3.41923	50.04
3.43590	50.03
3.45257	50.03
3.46923	50.03
3.48590	50.03
3.50257	50.03
3.51923	50.03
3.53590	50.03
3.55257	50.02
3.56923	50.03
3.58590	50.03
3.60257	50.04
3.61923	50.05
3.63590	50.05
3.65257	50.05
3.66923	50.05
3.68590	50.06
3.70257	50.06
3.71923	50.06
3.73590	50.06
3.75257	50.07
3.76923	50.07
3.78590	50.07
3.80257	50.06
3.81923	50.06
3.83590	50.06
3.85257	50.07
3.86923	50.07
3.88590	50.08
3.90257	50.08
3.91923	50.08
3.93590	50.08
3.95257	50.07
3.96923	50.06
3.98590	50.06

[Status Trace (Injection Unit Temperature)]
Interval(msec)	1000
# of Points	240
Start Time(min)	0.003
End Time(min)	3.986
Intensity Units	
Intensity Multiplier	1
R.Time (min)	Intensity
0.00257	99.99
0.01923	99.99
0.03590	99.99
0.05257	99.99
0.06923	99.99
0.08590	99.99
0.10257	99.99
0.11923	99.99
0.13590	99.99
0.15257	99.99
0.16923	99.99
0.18590	99.99
0.20257	99.99
0.21923	99.99
0.23590	99.99
0.25257	99.99
0.26923	99.99
0.28590	99.99
0.30257	99.99
0.31923	99.99
0.33590	99.99
0.35257	99.99
0.36923	99.99
0.38590	99.99
0.40257	99.99
0.41923	99.99
0.43590	99.99
0.45257	99.99
0.46923	99.99
0.48590	99.99
0.50257	99.99
0.51923	99.99
0.53590	99.99
0.55257	99.99
0.56923	99.99
0.58590	99.99
0.60257	99.99
0.61923	99.99
0.63590	99.99
0.65257	99.99
0.66923	99.99
0.68590	99.99
0.70257	99.99
0.71923	99.99
0.73590	99.99
0.75257	99.99
0.76923	99.99
0.78590	99.98
0.80257	99.99
0.81923	99.99
0.83590	99.99
0.85257	99.99
0.86923	99.99
0.88590	99.99
0.90257	99.99
0.91923	99.99
0.93590	99.99
0.95257	99.99
0.96923	99.99
0.98590	99.99
1.00257	99.99
1.01923	99.99
1.03590	99.99
1.05257	99.99
1.06923	99.99
1.08590	99.99
1.10257	99.98
1.11923	99.99
1.13590	99.99
1.15257	99.99
1.16923	99.99
1.18590	99.98
1.20257	99.99
1.21923	99.98
1.23590	99.99
1.25257	99.98
1.26923	99.99
1.28590	99.99
1.30257	99.99
1.31923	99.99
1.33590	99.99
1.35257	99.99
1.36923	99.99
1.38590	99.99
1.40257	99.99
1.41923	99.98
1.43590	99.99
1.45257	99.99
1.46923	99.99
1.48590	99.99
1.50257	99.99
1.51923	99.99
1.53590	99.99
1.55257	99.99
1.56923	99.99
1.58590	99.99
1.60257	99.99
1.61923	99.99
1.63590	99.99
1.65257	99.99
1.66923	99.99
1.68590	99.99
1.70257	99.99
1.71923	99.99
1.73590	99.99
1.75257	99.98
1.76923	99.99
1.78590	99.99
1.80257	99.99
1.81923	99.99
1.83590	99.99
1.85257	99.99
1.86923	99.99
1.88590	99.99
1.90257	99.99
1.91923	99.99
1.93590	99.99
1.95257	99.98
1.96923	99.98
1.98590	99.98
2.00257	99.98
2.01923	99.98
2.03590	99.98
2.05257	99.98
2.06923	99.98
2.08590	99.98
2.10257	99.98
2.11923	99.98
2.13590	99.98
2.15257	99.98
2.16923	99.97
2.18590	99.97
2.20257	99.98
2.21923	99.97
2.23590	99.97
2.25257	99.97
2.26923	99.97
2.28590	99.97
2.30257	99.97
2.31923	99.97
2.33590	99.97
2.35257	99.97
2.36923	99.97
2.38590	99.97
2.40257	99.98
2.41923	99.98
2.43590	99.97
2.45257	99.97
2.46923	99.97
2.48590	99.98
2.50257	99.98
2.51923	99.98
2.53590	99.98
2.55257	99.98
2.56923	99.98
2.58590	99.98
2.60257	99.98
2.61923	99.99
2.63590	99.99
2.65257	99.98
2.66923	99.98
2.68590	99.99
2.70257	99.99
2.71923	99.99
2.73590	99.99
2.75257	99.99
2.76923	100.00
2.78590	100.00
2.80257	100.00
2.81923	100.00
2.83590	100.00
2.85257	100.01
2.86923	100.00
2.88590	100.01
2.90257	100.01
2.91923	100.01
2.93590	100.01
2.95257	100.01
2.96923	100.01
2.98590	100.01
3.00257	100.01
3.01923	100.02
3.03590	100.02
3.05257	100.02
3.06923	100.02
3.08590	100.02
3.10257	100.02
3.11923	100.02
3.13590	100.03
3.15257	100.03
3.16923	100.02
3.18590	100.03
3.20257	100.03
3.21923	100.03
3.23590	100.03
3.25257	100.03
3.26923	100.03
3.28590	100.04
3.30257	100.03
3.31923	100.04
3.33590	100.04
3.35257	100.04
3.36923	100.03
3.38590	100.04
3.40257	100.04
3.41923	100.04
3.43590	100.04
3.45257	100.04
3.46923	100.04
3.48590	100.04
3.50257	100.05
3.51923	100.04
3.53590	100.05
3.55257	100.05
3.56923	100.05
3.58590	100.05
3.60257	100.05
3.61923	100.05
3.63590	100.05
3.65257	100.05
3.66923	100.05
3.68590	100.05
3.70257	100.05
3.71923	100.05
3.73590	100.05
3.75257	100.05
3.76923	100.05
3.78590	100.05
3.80257	100.05
3.81923	100.05
3.83590	100.05
3.85257	100.05
3.86923	100.05
3.88590	100.05
3.90257	100.05
3.91923	100.05
3.93590	100.05
3.95257	100.05
3.96923	100.05
3.98590	100.05

[Status Trace (Carrier Gas Pressure)]
Interval(msec)	1000
# of Points	240
Start Time(min)	0.003
End Time(min)	3.986
Intensity Units	
Intensity Multiplier	1
R.Time (min)	Intensity
0.00257	58.00
0.01923	56.29
0.03590	56.34
0.05257	58.49
0.06923	59.89
0.08590	58.31
0.10257	57.97
0.11923	58.01
0.13590	58.01
0.15257	58.01
0.16923	58.00
0.18590	58.00
0.20257	58.00
0.21923	58.00
0.23590	58.00
0.25257	58.00
0.26923	58.00
0.28590	58.00
0.30257	58.00
0.31923	58.00
0.33590	58.00
0.35257	58.00
0.36923	58.00
0.38590	58.00
0.40257	58.00
0.41923	58.00
0.43590	58.00
0.45257	58.00
0.46923	58.00
0.48590	58.00
0.50257	58.00
0.51923	58.00
0.53590	58.00
0.55257	58.00
0.56923	58.00
0.58590	58.00
0.60257	58.00
0.61923	58.00
0.63590	58.00
0.65257	58.00
0.66923	58.00
0.68590	58.00
0.70257	58.00
0.71923	58.00
0.73590	58.00
0.75257	58.00
0.76923	58.00
0.78590	58.00
0.80257	58.00
0.81923	58.00
0.83590	58.00
0.85257	58.00
0.86923	58.00
0.88590	58.00
0.90257	58.00
0.91923	58.00
0.93590	58.00
0.95257	58.00
0.96923	58.00
0.98590	58.00
1.00257	58.00
1.01923	58.00
1.03590	58.00
1.05257	58.00
1.06923	58.00
1.08590	58.00
1.10257	58.00
1.11923	58.00
1.13590	58.00
1.15257	58.00
1.16923	58.00
1.18590	58.00
1.20257	58.00
1.21923	58.00
1.23590	58.00
1.25257	58.00
1.26923	58.00
1.28590	58.00
1.30257	58.00
1.31923	58.00
1.33590	58.00
1.35257	58.00
1.36923	58.00
1.38590	58.00
1.40257	58.00
1.41923	58.00
1.43590	58.00
1.45257	58.00
1.46923	58.00
1.48590	58.00
1.50257	58.00
1.51923	58.00
1.53590	58.00
1.55257	58.00
1.56923	58.00
1.58590	58.00
1.60257	58.00
1.61923	58.00
1.63590	58.00
1.65257	58.00
1.66923	58.01
1.68590	58.01
1.70257	58.00
1.71923	58.00
1.73590	58.00
1.75257	58.00
1.76923	58.00
1.78590	58.00
1.80257	58.00
1.81923	58.00
1.83590	58.00
1.85257	58.00
1.86923	58.00
1.88590	58.00
1.90257	58.00
1.91923	58.00
1.93590	58.00
1.95257	58.00
1.96923	58.00
1.98590	58.00
2.00257	58.00
2.01923	58.00
2.03590	58.00
2.05257	58.00
2.06923	58.00
2.08590	58.00
2.10257	58.00
2.11923	58.00
2.13590	58.00
2.15257	58.00
2.16923	58.00
2.18590	58.00
2.20257	58.00
2.21923	58.00
2.23590	58.00
2.25257	58.00
2.26923	58.00
2.28590	58.00
2.30257	58.00
2.31923	58.00
2.33590	58.00
2.35257	58.00
2.36923	58.00
2.38590	58.00
2.40257	57.99
2.41923	58.00
2.43590	58.00
2.45257	58.00
2.46923	58.00
2.48590	58.00
2.50257	57.99
2.51923	58.02
2.53590	57.99
2.55257	58.00
2.56923	58.00
2.58590	58.00
2.60257	58.00
2.61923	58.00
2.63590	58.00
2.65257	58.00
2.66923	58.00
2.68590	58.00
2.70257	58.00
2.71923	58.00
2.73590	58.00
2.75257	58.00
2.76923	58.00
2.78590	58.00
2.80257	58.00
2.81923	58.00
2.83590	58.00
2.85257	58.00
2.86923	58.00
2.88590	58.00
2.90257	58.00
2.91923	58.00
2.93590	58.00
2.95257	58.00
2.96923	58.00
2.98590	58.00
3.00257	58.00
3.01923	58.00
3.03590	58.00
3.05257	58.00
3.06923	58.00
3.08590	58.00
3.10257	58.00
3.11923	58.00
3.13590	58.00
3.15257	58.00
3.16923	58.00
3.18590	58.00
3.20257	58.00
3.21923	58.00
3.23590	58.00
3.25257	58.00
3.26923	58.00
3.28590	58.00
3.30257	58.00
3.31923	58.00
3.33590	58.00
3.35257	58.00
3.36923	58.00
3.38590	58.00
3.40257	58.00
3.41923	58.00
3.43590	58.00
3.45257	58.00
3.46923	58.00
3.48590	58.00
3.50257	58.00
3.51923	58.00
3.53590	58.00
3.55257	58.00
3.56923	58.00
3.58590	58.00
3.60257	58.00
3.61923	58.00
3.63590	58.00
3.65257	58.00
3.66923	58.00
3.68590	58.00
3.70257	58.00
3.71923	58.00
3.73590	58.00
3.75257	58.00
3.76923	58.00
3.78590	58.00
3.80257	58.00
3.81923	58.00
3.83590	58.00
3.85257	58.00
3.86923	58.00
3.88590	58.00
3.90257	58.00
3.91923	58.00
3.93590	58.00
3.95257	58.00
3.96923	58.00
3.98590	58.00

[Status Trace (Carrier Gas Flow)]
Interval(msec)	1000
# of Points	240
Start Time(min)	0.003
End Time(min)	3.986
Intensity Units	
Intensity Multiplier	1
R.Time (min)	Intensity
0.00257	34.52
0.01923	34.56
0.03590	34.54
0.05257	34.55
0.06923	34.49
0.08590	34.52
0.10257	34.52
0.11923	34.52
0.13590	34.52
0.15257	34.52
0.16923	34.52
0.18590	34.52
0.20257	34.52
0.21923	34.52
0.23590	34.52
0.25257	34.51
0.26923	34.52
0.28590	34.52
0.30257	34.52
0.31923	34.52
0.33590	34.52
0.35257	34.52
0.36923	34.52
0.38590	34.53
0.40257	34.52
0.41923	34.52
0.43590	34.52
0.45257	34.52
0.46923	34.52
0.48590	34.52
0.50257	34.52
0.51923	34.52
0.53590	34.52
0.55257	34.52
0.56923	34.52
0.58590	34.52
0.60257	34.52
0.61923	34.52
0.63590	34.52
0.65257	34.52
0.66923	34.52
0.68590	34.52
0.70257	34.52
0.71923	34.52
0.73590	34.52
0.75257	34.52
0.76923	34.52
0.78590	34.52
0.80257	34.52
0.81923	34.52
0.83590	34.52
0.85257	34.52
0.86923	34.52
0.88590	34.52
0.90257	34.52
0.91923	34.52
0.93590	34.52
0.95257	34.52
0.96923	34.52
0.98590	34.52
1.00257	34.52
1.01923	34.52
1.03590	34.52
1.05257	34.52
1.06923	34.52
1.08590	34.52
1.10257	34.52
1.11923	34.52
1.13590	34.52
1.15257	34.52
1.16923	34.52
1.18590	34.52
1.20257	34.52
1.21923	34.52
1.23590	34.52
1.25257	34.52
1.26923	34.52
1.28590	34.52
1.30257	34.52
1.31923	34.52
1.33590	34.52
1.35257	34.52
1.36923	34.52
1.38590	34.52
1.40257	34.52
1.41923	34.52
1.43590	34.52
1.45257	34.52
1.46923	34.52
1.48590	34.52
1.50257	34.52
1.51923	34.52
1.53590	34.52
1.55257	34.52
1.56923	34.52
1.58590	34.52
1.60257	34.52
1.61923	34.52
1.63590	34.52
1.65257	34.52
1.66923	34.52
1.68590	34.52
1.70257	34.52
1.71923	34.52
1.73590	34.52
1.75257	34.52
1.76923	34.52
1.78590	34.52
1.80257	34.52
1.81923	34.52
1.83590	34.52
1.85257	34.52
1.86923	34.52
1.88590	34.52
1.90257	34.52
1.91923	34.52
1.93590	34.52
1.95257	34.52
1.96923	34.52
1.98590	34.52
2.00257	34.51
2.01923	34.52
2.03590	34.52
2.05257	34.52
2.06923	34.52
2.08590	34.52
2.10257	34.53
2.11923	34.52
2.13590	34.52
2.15257	34.52
2.16923	34.52
2.18590	34.52
2.20257	34.52
2.21923	34.52
2.23590	34.52
2.25257	34.52
2.26923	34.52
2.28590	34.52
2.30257	34.52
2.31923	34.52
2.33590	34.52
2.35257	34.52
2.36923	34.52
2.38590	34.52
2.40257	34.51
2.41923	34.52
2.43590	34.52
2.45257	34.52
2.46923	34.52
2.48590	34.52
2.50257	34.54
2.51923	34.49
2.53590	34.52
2.55257	34.52
2.56923	34.52
2.58590	34.52
2.60257	34.52
2.61923	34.52
2.63590	34.52
2.65257	34.52
2.66923	34.52
2.68590	34.52
2.70257	34.52
2.71923	34.52
2.73590	34.52
2.75257	34.52
2.76923	34.52
2.78590	34.52
2.80257	34.52
2.81923	34.52
2.83590	34.51
2.85257	34.52
2.86923	34.50
2.88590	34.51
2.90257	34.52
2.91923	34.52
2.93590	34.52
2.95257	34.52
2.96923	34.53
2.98590	34.52
3.00257	34.52
3.01923	34.52
3.03590	34.52
3.05257	34.52
3.06923	34.52
3.08590	34.52
3.10257	34.52
3.11923	34.52
3.13590	34.52
3.15257	34.52
3.16923	34.52
3.18590	34.52
3.20257	34.52
3.21923	34.52
3.23590	34.52
3.25257	34.52
3.26923	34.52
3.28590	34.52
3.30257	34.52
3.31923	34.52
3.33590	34.52
3.35257	34.52
3.36923	34.52
3.38590	34.52
3.40257	34.52
3.41923	34.52
3.43590	34.52
3.45257	34.52
3.46923	34.52
3.48590	34.52
3.50257	34.52
3.51923	34.52
3.53590	34.52
3.55257	34.52
3.56923	34.52
3.58590	34.52
3.60257	34.52
3.61923	34.52
3.63590	34.52
3.65257	34.52
3.66923	34.52
3.68590	34.52
3.70257	34.52
3.71923	34.52
3.73590	34.52
3.75257	34.52
3.76923	34.52
3.78590	34.52
3.80257	34.52
3.81923	34.52
3.83590	34.52
3.85257	34.52
3.86923	34.52
3.88590	34.52
3.90257	34.51
3.91923	34.52
3.93590	34.52
3.95257	34.51
3.96923	34.53
3.98590	34.51

[Status Trace (Column Flow)]
Interval(msec)	1000
# of Points	240
Start Time(min)	0.003
End Time(min)	3.986
Intensity Units	
Intensity Multiplier	1
R.Time (min)	Intensity
0.00257	5.51
0.01923	5.31
0.03590	5.31
0.05257	5.56
0.06923	5.73
0.08590	5.54
0.10257	5.50
0.11923	5.51
0.13590	5.51
0.15257	5.51
0.16923	5.51
0.18590	5.51
0.20257	5.51
0.21923	5.51
0.23590	5.51
0.25257	5.51
0.26923	5.51
0.28590	5.51
0.30257	5.51
0.31923	5.51
0.33590	5.51
0.35257	5.51
0.36923	5.51
0.38590	5.51
0.40257	5.51
0.41923	5.51
0.43590	5.51
0.45257	5.51
0.46923	5.51
0.48590	5.51
0.50257	5.51
0.51923	5.51
0.53590	5.51
0.55257	5.51
0.56923	5.51
0.58590	5.51
0.60257	5.51
0.61923	5.51
0.63590	5.51
0.65257	5.51
0.66923	5.51
0.68590	5.51
0.70257	5.51
0.71923	5.51
0.73590	5.51
0.75257	5.51
0.76923	5.51
0.78590	5.51
0.80257	5.51
0.81923	5.51
0.83590	5.51
0.85257	5.51
0.86923	5.51
0.88590	5.51
0.90257	5.51
0.91923	5.51
0.93590	5.51
0.95257	5.51
0.96923	5.51
0.98590	5.51
1.00257	5.51
1.01923	5.51
1.03590	5.51
1.05257	5.51
1.06923	5.51
1.08590	5.51
1.10257	5.51
1.11923	5.51
1.13590	5.51
1.15257	5.51
1.16923	5.51
1.18590	5.51
1.20257	5.51
1.21923	5.51
1.23590	5.51
1.25257	5.51
1.26923	5.51
1.28590	5.51
1.30257	5.51
1.31923	5.51
1.33590	5.51
1.35257	5.51
1.36923	5.51
1.38590	5.51
1.40257	5.51
1.41923	5.51
1.43590	5.51
1.45257	5.51
1.46923	5.51
1.48590	5.51
1.50257	5.51
1.51923	5.51
1.53590	5.51
1.55257	5.51
1.56923	5.51
1.58590	5.51
1.60257	5.51
1.61923	5.50
1.63590	5.50
1.65257	5.49
1.66923	5.48
1.68590	5.47
1.70257	5.46
1.71923	5.45
1.73590	5.44
1.75257	5.43
1.76923	5.42
1.78590	5.41
1.80257	5.40
1.81923	5.39
1.83590	5.38
1.85257	5.37
1.86923	5.36
1.88590	5.35
1.90257	5.34
1.91923	5.33
1.93590	5.32
1.95257	5.31
1.96923	5.30
1.98590	5.29
2.00257	5.28
2.01923	5.27
2.03590	5.26
2.05257	5.25
2.06923	5.24
2.08590	5.23
2.10257	5.22
2.11923	5.21
2.13590	5.20
2.15257	5.19
2.16923	5.18
2.18590	5.18
2.20257	5.17
2.21923	5.16
2.23590	5.15
2.25257	5.14
2.26923	5.13
2.28590	5.12
2.30257	5.11
2.31923	5.10
2.33590	5.09
2.35257	5.08
2.36923	5.08
2.38590	5.07
2.40257	5.07
2.41923	5.07
2.43590	5.07
2.45257	5.07
2.46923	5.07
2.48590	5.07
2.50257	5.07
2.51923	5.07
2.53590	5.07
2.55257	5.07
2.56923	5.07
2.58590	5.07
2.60257	5.07
2.61923	5.07
2.63590	5.07
2.65257	5.07
2.66923	5.07
2.68590	5.07
2.70257	5.07
2.71923	5.07
2.73590	5.07
2.75257	5.07
2.76923	5.07
2.78590	5.07
2.80257	5.07
2.81923	5.07
2.83590	5.07
2.85257	5.07
2.86923	5.07
2.88590	5.07
2.90257	5.07
2.91923	5.07
2.93590	5.07
2.95257	5.07
2.96923	5.07
2.98590	5.07
3.00257	5.07
3.01923	5.07
3.03590	5.06
3.05257	5.06
3.06923	5.06
3.08590	5.06
3.10257	5.06
3.11923	5.06
3.13590	5.06
3.15257	5.06
3.16923	5.06
3.18590	5.06
3.20257	5.06
3.21923	5.06
3.23590	5.06
3.25257	5.06
3.26923	5.06
3.28590	5.06
3.30257	5.06
3.31923	5.06
3.33590	5.06
3.35257	5.06
3.36923	5.06
3.38590	5.06
3.40257	5.06
3.41923	5.06
3.43590	5.06
3.45257	5.06
3.46923	5.06
3.48590	5.06
3.50257	5.06
3.51923	5.06
3.53590	5.06
3.55257	5.06
3.56923	5.06
3.58590	5.06
3.60257	5.06
3.61923	5.06
3.63590	5.06
3.65257	5.06
3.66923	5.06
3.68590	5.06
3.70257	5.06
3.71923	5.06
3.73590	5.06
3.75257	5.06
3.76923	5.06
3.78590	5.06
3.80257	5.06
3.81923	5.06
3.83590	5.06
3.85257	5.06
3.86923	5.06
3.88590	5.06
3.90257	5.06
3.91923	5.06
3.93590	5.06
3.95257	5.06
3.96923	5.06
3.98590	5.06

[Status Trace (Linear Velocity)]
Interval(msec)	1000
# of Points	240
Start Time(min)	0.003
End Time(min)	3.986
Intensity Units	
Intensity Multiplier	1
R.Time (min)	Intensity
0.00257	39.01
0.01923	37.89
0.03590	37.92
0.05257	39.33
0.06923	40.25
0.08590	39.21
0.10257	38.99
0.11923	39.02
0.13590	39.02
0.15257	39.02
0.16923	39.02
0.18590	39.01
0.20257	39.01
0.21923	39.01
0.23590	39.01
0.25257	39.01
0.26923	39.01
0.28590	39.02
0.30257	39.02
0.31923	39.02
0.33590	39.02
0.35257	39.01
0.36923	39.01
0.38590	39.01
0.40257	39.01
0.41923	39.02
0.43590	39.02
0.45257	39.02
0.46923	39.02
0.48590	39.01
0.50257	39.01
0.51923	39.01
0.53590	39.01
0.55257	39.01
0.56923	39.01
0.58590	39.01
0.60257	39.01
0.61923	39.01
0.63590	39.01
0.65257	39.01
0.66923	39.01
0.68590	39.01
0.70257	39.01
0.71923	39.01
0.73590	39.01
0.75257	39.01
0.76923	39.01
0.78590	39.01
0.80257	39.01
0.81923	39.01
0.83590	39.01
0.85257	39.01
0.86923	39.01
0.88590	39.02
0.90257	39.02
0.91923	39.01
0.93590	39.01
0.95257	39.02
0.96923	39.01
0.98590	39.01
1.00257	39.01
1.01923	39.01
1.03590	39.01
1.05257	39.02
1.06923	39.01
1.08590	39.01
1.10257	39.01
1.11923	39.01
1.13590	39.01
1.15257	39.01
1.16923	39.01
1.18590	39.02
1.20257	39.02
1.21923	39.01
1.23590	39.01
1.25257	39.01
1.26923	39.01
1.28590	39.01
1.30257	39.01
1.31923	39.01
1.33590	39.01
1.35257	39.01
1.36923	39.01
1.38590	39.01
1.40257	39.01
1.41923	39.02
1.43590	39.02
1.45257	39.02
1.46923	39.02
1.48590	39.01
1.50257	39.01
1.51923	39.01
1.53590	39.01
1.55257	39.01
1.56923	39.01
1.58590	39.01
1.60257	39.01
1.61923	39.00
1.63590	38.99
1.65257	38.97
1.66923	38.94
1.68590	38.90
1.70257	38.87
1.71923	38.83
1.73590	38.80
1.75257	38.77
1.76923	38.74
1.78590	38.71
1.80257	38.68
1.81923	38.64
1.83590	38.61
1.85257	38.58
1.86923	38.55
1.88590	38.52
1.90257	38.49
1.91923	38.46
1.93590	38.43
1.95257	38.40
1.96923	38.37
1.98590	38.34
2.00257	38.31
2.01923	38.28
2.03590	38.25
2.05257	38.22
2.06923	38.19
2.08590	38.16
2.10257	38.13
2.11923	38.10
2.13590	38.07
2.15257	38.04
2.16923	38.01
2.18590	37.98
2.20257	37.95
2.21923	37.92
2.23590	37.89
2.25257	37.86
2.26923	37.83
2.28590	37.80
2.30257	37.77
2.31923	37.74
2.33590	37.71
2.35257	37.69
2.36923	37.67
2.38590	37.66
2.40257	37.65
2.41923	37.66
2.43590	37.66
2.45257	37.66
2.46923	37.66
2.48590	37.65
2.50257	37.65
2.51923	37.67
2.53590	37.65
2.55257	37.65
2.56923	37.65
2.58590	37.65
2.60257	37.65
2.61923	37.65
2.63590	37.64
2.65257	37.64
2.66923	37.64
2.68590	37.64
2.70257	37.64
2.71923	37.64
2.73590	37.64
2.75257	37.64
2.76923	37.64
2.78590	37.64
2.80257	37.64
2.81923	37.64
2.83590	37.64
2.85257	37.64
2.86923	37.64
2.88590	37.64
2.90257	37.64
2.91923	37.64
2.93590	37.63
2.95257	37.63
2.96923	37.63
2.98590	37.63
3.00257	37.63
3.01923	37.63
3.03590	37.63
3.05257	37.63
3.06923	37.63
3.08590	37.63
3.10257	37.63
3.11923	37.63
3.13590	37.63
3.15257	37.63
3.16923	37.62
3.18590	37.62
3.20257	37.62
3.21923	37.62
3.23590	37.62
3.25257	37.62
3.26923	37.62
3.28590	37.62
3.30257	37.62
3.31923	37.62
3.33590	37.62
3.35257	37.62
3.36923	37.62
3.38590	37.62
3.40257	37.62
3.41923	37.63
3.43590	37.63
3.45257	37.63
3.46923	37.63
3.48590	37.63
3.50257	37.63
3.51923	37.63
3.53590	37.63
3.55257	37.63
3.56923	37.63
3.58590	37.63
3.60257	37.63
3.61923	37.62
3.63590	37.63
3.65257	37.62
3.66923	37.62
3.68590	37.62
3.70257	37.62
3.71923	37.62
3.73590	37.62
3.75257	37.62
3.76923	37.62
3.78590	37.62
3.80257	37.62
3.81923	37.62
3.83590	37.62
3.85257	37.62
3.86923	37.62
3.88590	37.62
3.90257	37.62
3.91923	37.62
3.93590	37.62
3.95257	37.62
3.96923	37.62
3.98590	37.62

