[Header]
Application Name	LabSolutions
Version	5.110
Data File Name	C:\Users\User\Desktop\GC Analyses\Jack\UIC Prairie Sampling\9.30.22\220930_021.gcd
Output Date	1/4/2023
Output Time	2:27:59 PM

[File Information]
Type	Data File
Generated	11/29/2022 2:43:27 PM
Generated by	System Administrator
Modified	11/29/2022 2:47:40 PM
Modified by	System Administrator

[Sample Information]
Operator Name	System Administrator
Acquired	11/29/2022 2:43:39 PM
Sample Type	1:Standard
Level	1
Sample Name	220930_UICPrairie
Sample ID	220930_UICPrairie
ISTD Amount1	1
ISTD Amount2	1
ISTD Amount3	1
ISTD Amount4	1
ISTD Amount5	1
ISTD Amount6	1
ISTD Amount7	1
ISTD Amount8	1
ISTD Amount9	1
ISTD Amount10	1
ISTD Amount11	1
ISTD Amount12	1
ISTD Amount13	1
ISTD Amount14	1
ISTD Amount15	1
ISTD Amount16	1
ISTD Amount17	1
ISTD Amount18	1
ISTD Amount19	1
ISTD Amount20	1
ISTD Amount21	1
ISTD Amount22	1
ISTD Amount23	1
ISTD Amount24	1
ISTD Amount25	1
ISTD Amount26	1
ISTD Amount27	1
ISTD Amount28	1
ISTD Amount29	1
ISTD Amount30	1
ISTD Amount31	1
ISTD Amount32	1
Sample Amount	1
Dilution Factor	1
Vial#	1
Injection Volume	1
Injection Count	1
Bar Code	

[Original Files]
Data File	C:\Users\User\Desktop\GC Analyses\Jack\UIC Prairie Sampling\9.30.22\220930_021.gcd
Method File	C:\LabSolutions\Data\GHG_4min_2022\ghg3_togas_w_acet_4 min_new_int.gcm
Batch File	
Report Format File	c:\LabSolutions\System\DEFAULT.lsr

[File Description]


[Configuration]
Instrument Name	C0B7VH3-Instrument1
Instrument #	1
Line #	1
# of Detectors	3
Detector ID	DET#1	DET#2	DET#3
Detector Name	FID	PTCD	ECD
# of Channels	1	1	1

[Peak Table(Ch1)]
# of Peaks	3
Peak#	R.Time	I.Time	F.Time	Area	Height	A/H	Conc.	Mark	ID#	Name	k'	Plate #	Plate Ht.	Tailing	Resolution	Sep.Factor	Area Ratio	Height Ratio	Conc. %	Norm Conc.
1	1.479	1.443	1.542	8448	4257	1.985	100.000	   	1	CO	0.000	10168	14.753	1.310	0.000	0.000	0	0	16.667	16.667
2	1.571	1.542	1.630	3647	2095	1.741	100.000	 V 	2	CH4	0.062	14391	10.423	1.244	1.651	0.000	0	0	16.667	16.667
3	2.000	1.956	2.447	1002645	526649	1.904	400.000	   	3	CO2	0.352	21560	6.957	1.383	8.029	5.680	0	0	66.667	66.667

[Peak Table(Ch2)]
# of Peaks	0

[Peak Table(Ch3)]
# of Peaks	6
Peak#	R.Time	I.Time	F.Time	Area	Height	A/H	Conc.	Mark	ID#	Name	k'	Plate #	Plate Ht.	Tailing	Resolution	Sep.Factor	Area Ratio	Height Ratio	Conc. %	Norm Conc.
1	0.709	0.570	0.962	156	13	11.576	0.000	   			0.000	117	1277.869	1.411	0.000	0.000	0	0	0.000	0.000
2	2.458	2.312	2.506	1314	296	4.433	0.000	   			2.466	7636	19.645	0.000	9.343	0.000	0	0	0.000	0.000
3	2.524	2.506	2.568	618	190	3.245	0.000	 V 			2.559	691	216.922	0.000	0.266	1.038	0	0	0.000	0.000
4	2.616	2.568	2.660	727	192	3.782	0.000	 V 			2.688	3661	40.969	0.000	0.329	1.051	0	0	0.000	0.000
5	2.744	2.678	2.759	307	114	2.697	0.008	   	1	N2O	2.869	15951	9.404	0.612	0.988	1.067	0	0	0.754	0.754
6	2.891	2.763	3.936	40433	4496	8.993	0.992	   	1	N2O	3.076	11136	13.470	3.811	1.493	1.072	0	0	99.246	99.246

[Compound Results(Ch1)]
# of IDs	6
ID#	Name	R.Time	Area	Height	Conc.	Curve	3rd	2nd	1st	Constant	Area Ratio	Height Ratio	Conc. %	Norm Conc.
1	CO	1.479	8448	4257	100.000	Linear	0.000000e+00	0.000000e+00	8.448395e+001	0.000000e+00	0	0	16.667	16.667
2	CH4	1.571	3647	2095	100.000	Linear	0.000000e+00	0.000000e+00	3.646885e+001	0.000000e+00	0	0	16.667	16.667
3	CO2	2.000	1002645	526649	400.000	Linear	0.000000e+00	0.000000e+00	2.506613e+003	0.000000e+00	0	0	66.667	66.667
4	Ethylene	0.000	0	0	0.000	Linear	0.000000e+00	0.000000e+00	0.000000e+00	0.000000e+00	0	0	0.000	0.000
5	Acetylene	0.000	0	0	0.000	Linear	0.000000e+00	0.000000e+00	0.000000e+00	0.000000e+00	0	0	0.000	0.000
6	Ethane	0.000	0	0	0.000	Linear	0.000000e+00	0.000000e+00	0.000000e+00	0.000000e+00	0	0	0.000	0.000

[Compound Results(Ch2)]
# of IDs	5
ID#	Name	R.Time	Area	Height	Conc.	Curve	3rd	2nd	1st	Constant	Area Ratio	Height Ratio	Conc. %	Norm Conc.
1	Hydrogen	0.000	0	0	0.000	Linear	0.000000e+00	0.000000e+00	0.000000e+00	0.000000e+00	0	0	0.000	0.000
2	Oxygen	0.000	0	0	0.000	Linear	0.000000e+00	0.000000e+00	0.000000e+00	0.000000e+00	0	0	0.000	0.000
3	Nitrogen	0.000	0	0	0.000	Linear	0.000000e+00	0.000000e+00	0.000000e+00	0.000000e+00	0	0	0.000	0.000
4	Methane	0.000	0	0	0.000	Linear	0.000000e+00	0.000000e+00	0.000000e+00	0.000000e+00	0	0	0.000	0.000
5	Carbon Monoxide	0.000	0	0	0.000	Linear	0.000000e+00	0.000000e+00	0.000000e+00	0.000000e+00	0	0	0.000	0.000

[Compound Results(Ch3)]
# of IDs	2
ID#	Name	R.Time	Area	Height	Conc.	Curve	3rd	2nd	1st	Constant	Area Ratio	Height Ratio	Conc. %	Norm Conc.
1	N2O	2.891	40740	4610	1.000	Linear	0.000000e+00	0.000000e+00	4.074037e+004	0.000000e+00	0	0	100.000	100.000
2	SF6	0.000	0	0	0.000	Linear	0.000000e+00	0.000000e+00	0.000000e+00	0.000000e+00	0	0	0.000	0.000

[Group Results(Ch1)]
# of Groups	0

[Group Results(Ch2)]
# of Groups	0

[Group Results(Ch3)]
# of Groups	0

[Chromatogram (Ch1)]
Interval(msec)	220
# of Points	1091
Start Time(min)	0.002
End Time(min)	3.998
R.Time (min)	Intensity
0.00167	42
0.00533	51
0.00900	54
0.01267	53
0.01633	50
0.02000	46
0.02367	41
0.02733	36
0.03100	31
0.03467	27
0.03833	25
0.04200	23
0.04567	20
0.04933	20
0.05300	27
0.05667	35
0.06033	38
0.06400	38
0.06767	35
0.07133	26
0.07500	16
0.07867	8
0.08233	4
0.08600	5
0.08967	8
0.09333	11
0.09700	13
0.10067	16
0.10433	23
0.10800	31
0.11167	38
0.11533	40
0.11900	35
0.12267	30
0.12633	27
0.13000	25
0.13367	25
0.13733	26
0.14100	28
0.14467	29
0.14833	27
0.15200	23
0.15567	17
0.15933	15
0.16300	17
0.16667	21
0.17033	27
0.17400	32
0.17767	31
0.18133	25
0.18500	16
0.18867	7
0.19233	-1
0.19600	-4
0.19967	-2
0.20333	1
0.20700	4
0.21067	5
0.21433	8
0.21800	10
0.22167	13
0.22533	14
0.22900	13
0.23267	11
0.23633	13
0.24000	18
0.24367	25
0.24733	28
0.25100	27
0.25467	21
0.25833	13
0.26200	6
0.26567	3
0.26933	5
0.27300	6
0.27667	7
0.28033	6
0.28400	8
0.28767	11
0.29133	16
0.29500	22
0.29867	25
0.30233	27
0.30600	26
0.30967	29
0.31333	33
0.31700	34
0.32067	33
0.32433	32
0.32800	31
0.33167	30
0.33533	25
0.33900	17
0.34267	11
0.34633	8
0.35000	4
0.35367	-1
0.35733	-3
0.36100	-3
0.36467	-1
0.36833	3
0.37200	8
0.37567	15
0.37933	22
0.38300	28
0.38667	30
0.39033	30
0.39400	26
0.39767	18
0.40133	12
0.40500	10
0.40867	8
0.41233	8
0.41600	8
0.41967	7
0.42333	3
0.42700	-1
0.43067	-4
0.43433	-3
0.43800	-4
0.44167	-5
0.44533	-6
0.44900	-5
0.45267	-2
0.45633	2
0.46000	5
0.46367	5
0.46733	4
0.47100	0
0.47467	-5
0.47833	-10
0.48200	-15
0.48567	-17
0.48933	-15
0.49300	-9
0.49667	-4
0.50033	1
0.50400	6
0.50767	9
0.51133	11
0.51500	7
0.51867	-0
0.52233	-11
0.52600	-22
0.52967	-26
0.53333	-23
0.53700	-17
0.54067	-12
0.54433	-7
0.54800	-2
0.55167	6
0.55533	16
0.55900	24
0.56267	28
0.56633	27
0.57000	22
0.57367	18
0.57733	15
0.58100	9
0.58467	2
0.58833	-2
0.59200	-2
0.59567	-3
0.59933	-3
0.60300	-5
0.60667	-7
0.61033	-10
0.61400	-10
0.61767	-8
0.62133	-5
0.62500	-3
0.62867	-3
0.63233	-4
0.63600	-5
0.63967	-5
0.64333	-1
0.64700	5
0.65067	11
0.65433	12
0.65800	9
0.66167	9
0.66533	8
0.66900	6
0.67267	6
0.67633	8
0.68000	10
0.68367	13
0.68733	14
0.69100	14
0.69467	12
0.69833	12
0.70200	12
0.70567	13
0.70933	13
0.71300	11
0.71667	4
0.72033	-6
0.72400	-12
0.72767	-14
0.73133	-13
0.73500	-10
0.73867	-7
0.74233	-8
0.74600	-9
0.74967	-6
0.75333	-8
0.75700	-14
0.76067	-21
0.76433	-19
0.76800	-16
0.77167	-16
0.77533	-18
0.77900	-22
0.78267	-24
0.78633	-27
0.79000	-23
0.79367	-17
0.79733	-12
0.80100	-8
0.80467	-7
0.80833	-11
0.81200	-17
0.81567	-15
0.81933	-13
0.82300	-12
0.82667	-4
0.83033	-3
0.83400	-5
0.83767	-11
0.84133	-14
0.84500	-13
0.84867	-16
0.85233	-19
0.85600	-22
0.85967	-25
0.86333	-28
0.86700	-27
0.87067	-26
0.87433	-26
0.87800	-30
0.88167	-34
0.88533	-39
0.88900	-43
0.89267	-41
0.89633	-35
0.90000	-30
0.90367	-29
0.90733	-29
0.91100	-27
0.91467	-25
0.91833	-21
0.92200	-16
0.92567	-12
0.92933	-9
0.93300	-8
0.93667	-7
0.94033	-5
0.94400	-8
0.94767	-15
0.95133	-21
0.95500	-25
0.95867	-23
0.96233	-20
0.96600	-23
0.96967	-31
0.97333	-39
0.97700	-45
0.98067	-46
0.98433	-47
0.98800	-47
0.99167	-46
0.99533	-45
0.99900	-42
1.00267	-39
1.00633	-37
1.01000	-35
1.01367	-35
1.01733	-36
1.02100	-36
1.02467	-35
1.02833	-32
1.03200	-32
1.03567	-35
1.03933	-36
1.04300	-36
1.04667	-37
1.05033	-38
1.05400	-37
1.05767	-33
1.06133	-34
1.06500	-38
1.06867	-43
1.07233	-44
1.07600	-40
1.07967	-36
1.08333	-33
1.08700	-32
1.09067	-35
1.09433	-38
1.09800	-40
1.10167	-38
1.10533	-30
1.10900	-20
1.11267	-13
1.11633	-10
1.12000	-9
1.12367	-12
1.12733	-18
1.13100	-24
1.13467	-28
1.13833	-32
1.14200	-32
1.14567	-31
1.14933	-35
1.15300	-39
1.15667	-40
1.16033	-40
1.16400	-41
1.16767	-42
1.17133	-45
1.17500	-49
1.17867	-53
1.18233	-56
1.18600	-57
1.18967	-58
1.19333	-58
1.19700	-56
1.20067	-53
1.20433	-48
1.20800	-41
1.21167	-35
1.21533	-32
1.21900	-33
1.22267	-35
1.22633	-34
1.23000	-33
1.23367	-35
1.23733	-37
1.24100	-37
1.24467	-35
1.24833	-32
1.25200	-30
1.25567	-32
1.25933	-34
1.26300	-32
1.26667	-31
1.27033	-35
1.27400	-42
1.27767	-48
1.28133	-53
1.28500	-54
1.28867	-54
1.29233	-52
1.29600	-50
1.29967	-49
1.30333	-48
1.30700	-47
1.31067	-43
1.31433	-39
1.31800	-36
1.32167	-34
1.32533	-32
1.32900	-29
1.33267	-26
1.33633	-27
1.34000	-29
1.34367	-30
1.34733	-32
1.35100	-35
1.35467	-38
1.35833	-37
1.36200	-34
1.36567	-35
1.36933	-38
1.37300	-37
1.37667	-35
1.38033	-34
1.38400	-36
1.38767	-39
1.39133	-42
1.39500	-47
1.39867	-49
1.40233	-52
1.40600	-54
1.40967	-55
1.41333	-56
1.41700	-53
1.42067	-46
1.42433	-41
1.42800	-38
1.43167	-35
1.43533	-32
1.43900	-31
1.44267	-31
1.44633	-12
1.45000	82
1.45367	286
1.45733	585
1.46100	1021
1.46467	1668
1.46833	2480
1.47200	3295
1.47567	3928
1.47933	4228
1.48300	4138
1.48667	3716
1.49033	3102
1.49400	2446
1.49767	1851
1.50133	1366
1.50500	992
1.50867	714
1.51233	515
1.51600	372
1.51967	268
1.52333	194
1.52700	144
1.53067	108
1.53433	81
1.53800	59
1.54167	43
1.54533	46
1.54900	109
1.55267	295
1.55633	636
1.56000	1082
1.56367	1537
1.56733	1896
1.57100	2071
1.57467	2023
1.57833	1784
1.58200	1438
1.58567	1078
1.58933	762
1.59300	512
1.59667	328
1.60033	201
1.60400	117
1.60767	63
1.61133	31
1.61500	13
1.61867	4
1.62233	-5
1.62600	-14
1.62967	-21
1.63333	-25
1.63700	-28
1.64067	-30
1.64433	-31
1.64800	-31
1.65167	-30
1.65533	-31
1.65900	-34
1.66267	-37
1.66633	-39
1.67000	-40
1.67367	-38
1.67733	-35
1.68100	-29
1.68467	-20
1.68833	-14
1.69200	-18
1.69567	-24
1.69933	-33
1.70300	-41
1.70667	-46
1.71033	-50
1.71400	-53
1.71767	-52
1.72133	-50
1.72500	-49
1.72867	-48
1.73233	-45
1.73600	-43
1.73967	-38
1.74333	-34
1.74700	-31
1.75067	-30
1.75433	-27
1.75800	-24
1.76167	-22
1.76533	-23
1.76900	-28
1.77267	-37
1.77633	-47
1.78000	-53
1.78367	-55
1.78733	-52
1.79100	-47
1.79467	-46
1.79833	-49
1.80200	-49
1.80567	-44
1.80933	-41
1.81300	-40
1.81667	-38
1.82033	-34
1.82400	-34
1.82767	-35
1.83133	-35
1.83500	-36
1.83867	-40
1.84233	-45
1.84600	-48
1.84967	-51
1.85333	-56
1.85700	-61
1.86067	-65
1.86433	-70
1.86800	-74
1.87167	-73
1.87533	-69
1.87900	-62
1.88267	-52
1.88633	-43
1.89000	-37
1.89367	-35
1.89733	-36
1.90100	-38
1.90467	-38
1.90833	-38
1.91200	-40
1.91567	-41
1.91933	-41
1.92300	-41
1.92667	-41
1.93033	-39
1.93400	-35
1.93767	-32
1.94133	-31
1.94500	-31
1.94867	-31
1.95233	-31
1.95600	-29
1.95967	-13
1.96333	84
1.96700	610
1.97067	3010
1.97433	11492
1.97800	34549
1.98167	83381
1.98533	164732
1.98900	272379
1.99267	385669
1.99633	477657
2.00000	526643
2.00367	524347
2.00733	477246
2.01100	401814
2.01467	316940
2.01833	237422
2.02200	171219
2.02567	120384
2.02933	83463
2.03300	57640
2.03667	40018
2.04033	28158
2.04400	20220
2.04767	14895
2.05133	11292
2.05500	8822
2.05867	7097
2.06233	5861
2.06600	4951
2.06967	4267
2.07333	3743
2.07700	3332
2.08067	2999
2.08433	2719
2.08800	2482
2.09167	2282
2.09533	2112
2.09900	1964
2.10267	1835
2.10633	1721
2.11000	1620
2.11367	1528
2.11733	1445
2.12100	1374
2.12467	1308
2.12833	1245
2.13200	1188
2.13567	1136
2.13933	1090
2.14300	1050
2.14667	1015
2.15033	983
2.15400	950
2.15767	918
2.16133	886
2.16500	850
2.16867	814
2.17233	782
2.17600	755
2.17967	733
2.18333	713
2.18700	691
2.19067	669
2.19433	650
2.19800	635
2.20167	624
2.20533	614
2.20900	603
2.21267	589
2.21633	574
2.22000	560
2.22367	545
2.22733	529
2.23100	512
2.23467	494
2.23833	477
2.24200	463
2.24567	452
2.24933	444
2.25300	435
2.25667	426
2.26033	417
2.26400	410
2.26767	405
2.27133	402
2.27500	401
2.27867	397
2.28233	393
2.28600	389
2.28967	382
2.29333	373
2.29700	362
2.30067	351
2.30433	345
2.30800	343
2.31167	341
2.31533	336
2.31900	331
2.32267	326
2.32633	323
2.33000	322
2.33367	322
2.33733	319
2.34100	315
2.34467	312
2.34833	307
2.35200	300
2.35567	298
2.35933	298
2.36300	298
2.36667	299
2.37033	296
2.37400	292
2.37767	288
2.38133	284
2.38500	282
2.38867	279
2.39233	271
2.39600	260
2.39967	251
2.40333	246
2.40700	243
2.41067	241
2.41433	241
2.41800	246
2.42167	252
2.42533	254
2.42900	253
2.43267	250
2.43633	247
2.44000	241
2.44367	235
2.44733	228
2.45100	221
2.45467	218
2.45833	218
2.46200	219
2.46567	218
2.46933	219
2.47300	222
2.47667	223
2.48033	224
2.48400	226
2.48767	230
2.49133	236
2.49500	243
2.49867	247
2.50233	248
2.50600	246
2.50967	239
2.51333	231
2.51700	225
2.52067	221
2.52433	220
2.52800	216
2.53167	212
2.53533	207
2.53900	204
2.54267	202
2.54633	198
2.55000	195
2.55367	191
2.55733	186
2.56100	182
2.56467	179
2.56833	178
2.57200	179
2.57567	184
2.57933	188
2.58300	190
2.58667	191
2.59033	192
2.59400	193
2.59767	193
2.60133	192
2.60500	188
2.60867	183
2.61233	181
2.61600	179
2.61967	176
2.62333	174
2.62700	174
2.63067	175
2.63433	172
2.63800	169
2.64167	168
2.64533	168
2.64900	171
2.65267	174
2.65633	175
2.66000	177
2.66367	178
2.66733	178
2.67100	179
2.67467	175
2.67833	168
2.68200	167
2.68567	170
2.68933	176
2.69300	178
2.69667	178
2.70033	179
2.70400	176
2.70767	164
2.71133	154
2.71500	148
2.71867	148
2.72233	150
2.72600	153
2.72967	159
2.73333	164
2.73700	165
2.74067	166
2.74433	167
2.74800	168
2.75167	169
2.75533	168
2.75900	165
2.76267	162
2.76633	162
2.77000	167
2.77367	174
2.77733	179
2.78100	184
2.78467	189
2.78833	188
2.79200	182
2.79567	176
2.79933	177
2.80300	178
2.80667	177
2.81033	174
2.81400	168
2.81767	160
2.82133	152
2.82500	150
2.82867	150
2.83233	149
2.83600	148
2.83967	150
2.84333	153
2.84700	159
2.85067	169
2.85433	179
2.85800	181
2.86167	178
2.86533	172
2.86900	169
2.87267	166
2.87633	163
2.88000	161
2.88367	162
2.88733	165
2.89100	166
2.89467	162
2.89833	155
2.90200	147
2.90567	145
2.90933	145
2.91300	145
2.91667	147
2.92033	153
2.92400	163
2.92767	171
2.93133	175
2.93500	174
2.93867	171
2.94233	166
2.94600	159
2.94967	158
2.95333	164
2.95700	173
2.96067	183
2.96433	189
2.96800	190
2.97167	182
2.97533	171
2.97900	163
2.98267	161
2.98633	161
2.99000	160
2.99367	159
2.99733	161
3.00100	165
3.00467	169
3.00833	170
3.01200	169
3.01567	171
3.01933	177
3.02300	186
3.02667	194
3.03033	199
3.03400	198
3.03767	192
3.04133	184
3.04500	175
3.04867	171
3.05233	172
3.05600	172
3.05967	171
3.06333	172
3.06700	176
3.07067	179
3.07433	178
3.07800	177
3.08167	178
3.08533	180
3.08900	182
3.09267	181
3.09633	178
3.10000	176
3.10367	174
3.10733	174
3.11100	172
3.11467	166
3.11833	161
3.12200	164
3.12567	170
3.12933	176
3.13300	177
3.13667	174
3.14033	169
3.14400	165
3.14767	160
3.15133	156
3.15500	154
3.15867	152
3.16233	152
3.16600	153
3.16967	158
3.17333	167
3.17700	175
3.18067	179
3.18433	181
3.18800	182
3.19167	181
3.19533	176
3.19900	173
3.20267	173
3.20633	175
3.21000	179
3.21367	183
3.21733	186
3.22100	187
3.22467	186
3.22833	186
3.23200	184
3.23567	182
3.23933	182
3.24300	188
3.24667	197
3.25033	202
3.25400	202
3.25767	199
3.26133	193
3.26500	186
3.26867	183
3.27233	182
3.27600	183
3.27967	185
3.28333	186
3.28700	188
3.29067	192
3.29433	196
3.29800	202
3.30167	206
3.30533	207
3.30900	205
3.31267	198
3.31633	193
3.32000	191
3.32367	190
3.32733	191
3.33100	196
3.33467	203
3.33833	207
3.34200	209
3.34567	209
3.34933	207
3.35300	200
3.35667	191
3.36033	184
3.36400	186
3.36767	192
3.37133	200
3.37500	206
3.37867	208
3.38233	204
3.38600	199
3.38967	194
3.39333	188
3.39700	185
3.40067	187
3.40433	195
3.40800	203
3.41167	205
3.41533	203
3.41900	202
3.42267	204
3.42633	205
3.43000	206
3.43367	206
3.43733	205
3.44100	205
3.44467	206
3.44833	203
3.45200	201
3.45567	198
3.45933	193
3.46300	188
3.46667	187
3.47033	193
3.47400	201
3.47767	207
3.48133	211
3.48500	215
3.48867	219
3.49233	225
3.49600	231
3.49967	231
3.50333	226
3.50700	223
3.51067	221
3.51433	220
3.51800	220
3.52167	220
3.52533	213
3.52900	206
3.53267	201
3.53633	200
3.54000	201
3.54367	208
3.54733	216
3.55100	218
3.55467	213
3.55833	205
3.56200	199
3.56567	195
3.56933	195
3.57300	199
3.57667	206
3.58033	212
3.58400	215
3.58767	216
3.59133	215
3.59500	217
3.59867	221
3.60233	224
3.60600	222
3.60967	218
3.61333	215
3.61700	215
3.62067	217
3.62433	217
3.62800	215
3.63167	214
3.63533	214
3.63900	215
3.64267	218
3.64633	219
3.65000	216
3.65367	211
3.65733	207
3.66100	205
3.66467	209
3.66833	215
3.67200	219
3.67567	220
3.67933	219
3.68300	217
3.68667	218
3.69033	220
3.69400	224
3.69767	227
3.70133	226
3.70500	220
3.70867	213
3.71233	203
3.71600	197
3.71967	195
3.72333	193
3.72700	192
3.73067	193
3.73433	194
3.73800	197
3.74167	201
3.74533	207
3.74900	211
3.75267	211
3.75633	211
3.76000	213
3.76367	220
3.76733	224
3.77100	222
3.77467	218
3.77833	213
3.78200	207
3.78567	200
3.78933	196
3.79300	197
3.79667	202
3.80033	210
3.80400	218
3.80767	221
3.81133	221
3.81500	220
3.81867	221
3.82233	225
3.82600	226
3.82967	221
3.83333	215
3.83700	211
3.84067	209
3.84433	207
3.84800	203
3.85167	201
3.85533	201
3.85900	202
3.86267	204
3.86633	204
3.87000	203
3.87367	201
3.87733	202
3.88100	207
3.88467	213
3.88833	214
3.89200	211
3.89567	206
3.89933	201
3.90300	199
3.90667	201
3.91033	205
3.91400	209
3.91767	211
3.92133	211
3.92500	208
3.92867	207
3.93233	207
3.93600	205
3.93967	206
3.94333	211
3.94700	211
3.95067	205
3.95433	199
3.95800	199
3.96167	204
3.96533	206
3.96900	205
3.97267	205
3.97633	208
3.98000	211
3.98367	212
3.98733	211
3.99100	208
3.99467	208
3.99833	208

[Chromatogram (Ch2)]
Interval(msec)	220
# of Points	1091
Start Time(min)	0.002
End Time(min)	3.998
R.Time (min)	Intensity
0.00167	-0
0.00533	-0
0.00900	-0
0.01267	-1
0.01633	-0
0.02000	-0
0.02367	-0
0.02733	0
0.03100	0
0.03467	0
0.03833	-0
0.04200	-0
0.04567	-0
0.04933	-0
0.05300	-0
0.05667	-0
0.06033	-0
0.06400	-0
0.06767	-0
0.07133	-0
0.07500	-0
0.07867	0
0.08233	0
0.08600	1
0.08967	1
0.09333	1
0.09700	1
0.10067	2
0.10433	2
0.10800	2
0.11167	2
0.11533	2
0.11900	2
0.12267	2
0.12633	2
0.13000	2
0.13367	2
0.13733	2
0.14100	2
0.14467	2
0.14833	2
0.15200	2
0.15567	2
0.15933	2
0.16300	2
0.16667	2
0.17033	2
0.17400	2
0.17767	2
0.18133	2
0.18500	2
0.18867	2
0.19233	2
0.19600	3
0.19967	3
0.20333	2
0.20700	2
0.21067	2
0.21433	2
0.21800	2
0.22167	2
0.22533	2
0.22900	1
0.23267	1
0.23633	1
0.24000	1
0.24367	1
0.24733	1
0.25100	1
0.25467	1
0.25833	1
0.26200	1
0.26567	1
0.26933	1
0.27300	0
0.27667	0
0.28033	0
0.28400	0
0.28767	1
0.29133	1
0.29500	1
0.29867	1
0.30233	1
0.30600	1
0.30967	1
0.31333	1
0.31700	1
0.32067	0
0.32433	0
0.32800	0
0.33167	0
0.33533	0
0.33900	0
0.34267	0
0.34633	0
0.35000	0
0.35367	1
0.35733	1
0.36100	1
0.36467	1
0.36833	1
0.37200	1
0.37567	0
0.37933	-0
0.38300	-0
0.38667	-1
0.39033	-1
0.39400	-1
0.39767	-1
0.40133	-1
0.40500	-1
0.40867	-1
0.41233	-1
0.41600	-1
0.41967	-1
0.42333	-1
0.42700	-0
0.43067	-0
0.43433	-0
0.43800	0
0.44167	0
0.44533	0
0.44900	1
0.45267	1
0.45633	1
0.46000	1
0.46367	1
0.46733	1
0.47100	1
0.47467	1
0.47833	0
0.48200	0
0.48567	0
0.48933	-0
0.49300	-0
0.49667	-0
0.50033	-0
0.50400	-0
0.50767	-0
0.51133	-0
0.51500	-1
0.51867	-1
0.52233	-1
0.52600	-1
0.52967	-1
0.53333	-1
0.53700	-1
0.54067	-1
0.54433	-1
0.54800	-1
0.55167	-1
0.55533	-0
0.55900	-0
0.56267	-0
0.56633	-0
0.57000	-0
0.57367	-1
0.57733	-1
0.58100	-1
0.58467	-1
0.58833	-1
0.59200	-1
0.59567	-1
0.59933	-1
0.60300	-1
0.60667	-0
0.61033	0
0.61400	0
0.61767	1
0.62133	1
0.62500	1
0.62867	1
0.63233	1
0.63600	1
0.63967	1
0.64333	1
0.64700	1
0.65067	1
0.65433	1
0.65800	1
0.66167	1
0.66533	1
0.66900	1
0.67267	1
0.67633	0
0.68000	0
0.68367	-0
0.68733	-0
0.69100	-0
0.69467	-1
0.69833	-1
0.70200	-1
0.70567	-1
0.70933	-1
0.71300	-0
0.71667	-0
0.72033	-0
0.72400	0
0.72767	0
0.73133	1
0.73500	1
0.73867	1
0.74233	1
0.74600	2
0.74967	2
0.75333	2
0.75700	2
0.76067	2
0.76433	2
0.76800	3
0.77167	3
0.77533	3
0.77900	3
0.78267	3
0.78633	3
0.79000	2
0.79367	2
0.79733	2
0.80100	2
0.80467	1
0.80833	1
0.81200	1
0.81567	1
0.81933	1
0.82300	1
0.82667	1
0.83033	1
0.83400	1
0.83767	1
0.84133	1
0.84500	1
0.84867	0
0.85233	0
0.85600	0
0.85967	0
0.86333	0
0.86700	0
0.87067	0
0.87433	1
0.87800	1
0.88167	1
0.88533	1
0.88900	1
0.89267	1
0.89633	1
0.90000	1
0.90367	1
0.90733	1
0.91100	1
0.91467	1
0.91833	1
0.92200	1
0.92567	1
0.92933	1
0.93300	1
0.93667	0
0.94033	0
0.94400	0
0.94767	-0
0.95133	-0
0.95500	-0
0.95867	-0
0.96233	0
0.96600	0
0.96967	-0
0.97333	-0
0.97700	-0
0.98067	-0
0.98433	-0
0.98800	-0
0.99167	-0
0.99533	-0
0.99900	-1
1.00267	-1
1.00633	-1
1.01000	-1
1.01367	-1
1.01733	-0
1.02100	-0
1.02467	-0
1.02833	-0
1.03200	-0
1.03567	-0
1.03933	0
1.04300	0
1.04667	0
1.05033	0
1.05400	-0
1.05767	-0
1.06133	0
1.06500	0
1.06867	0
1.07233	0
1.07600	0
1.07967	-0
1.08333	-0
1.08700	-0
1.09067	-0
1.09433	-0
1.09800	-0
1.10167	-0
1.10533	-0
1.10900	-0
1.11267	-1
1.11633	-1
1.12000	-1
1.12367	-1
1.12733	-1
1.13100	-1
1.13467	-1
1.13833	-1
1.14200	-1
1.14567	-1
1.14933	-1
1.15300	-1
1.15667	-1
1.16033	-1
1.16400	-1
1.16767	-0
1.17133	-0
1.17500	-0
1.17867	0
1.18233	0
1.18600	0
1.18967	1
1.19333	1
1.19700	1
1.20067	1
1.20433	1
1.20800	1
1.21167	1
1.21533	1
1.21900	1
1.22267	1
1.22633	0
1.23000	0
1.23367	0
1.23733	0
1.24100	0
1.24467	0
1.24833	0
1.25200	0
1.25567	-0
1.25933	-0
1.26300	-0
1.26667	-1
1.27033	-1
1.27400	-1
1.27767	-1
1.28133	-1
1.28500	-1
1.28867	-1
1.29233	-1
1.29600	-2
1.29967	-2
1.30333	-2
1.30700	-2
1.31067	-2
1.31433	-1
1.31800	-1
1.32167	-1
1.32533	-1
1.32900	-1
1.33267	-1
1.33633	-1
1.34000	-1
1.34367	-1
1.34733	-1
1.35100	-1
1.35467	-1
1.35833	-1
1.36200	-1
1.36567	-1
1.36933	-1
1.37300	-2
1.37667	-2
1.38033	-2
1.38400	-2
1.38767	-2
1.39133	-1
1.39500	-1
1.39867	-1
1.40233	-1
1.40600	-1
1.40967	-1
1.41333	-1
1.41700	-1
1.42067	-1
1.42433	-1
1.42800	-1
1.43167	-1
1.43533	-0
1.43900	-0
1.44267	0
1.44633	0
1.45000	1
1.45367	1
1.45733	1
1.46100	1
1.46467	1
1.46833	1
1.47200	1
1.47567	1
1.47933	1
1.48300	1
1.48667	1
1.49033	1
1.49400	1
1.49767	1
1.50133	1
1.50500	1
1.50867	1
1.51233	1
1.51600	1
1.51967	1
1.52333	1
1.52700	1
1.53067	0
1.53433	0
1.53800	0
1.54167	-0
1.54533	-0
1.54900	-0
1.55267	-0
1.55633	-0
1.56000	-0
1.56367	-0
1.56733	-0
1.57100	-0
1.57467	-0
1.57833	-0
1.58200	-1
1.58567	-1
1.58933	-1
1.59300	-1
1.59667	-1
1.60033	-2
1.60400	-3
1.60767	-4
1.61133	-6
1.61500	-8
1.61867	-11
1.62233	-14
1.62600	-17
1.62967	-20
1.63333	-23
1.63700	-26
1.64067	-30
1.64433	-34
1.64800	-37
1.65167	-41
1.65533	-45
1.65900	-48
1.66267	-52
1.66633	-56
1.67000	-60
1.67367	-65
1.67733	-69
1.68100	-74
1.68467	-79
1.68833	-84
1.69200	-89
1.69567	-93
1.69933	-96
1.70300	-99
1.70667	-101
1.71033	-103
1.71400	-104
1.71767	-105
1.72133	-106
1.72500	-106
1.72867	-106
1.73233	-107
1.73600	-107
1.73967	-107
1.74333	-106
1.74700	-106
1.75067	-106
1.75433	-106
1.75800	-106
1.76167	-106
1.76533	-107
1.76900	-108
1.77267	-109
1.77633	-110
1.78000	-112
1.78367	-113
1.78733	-114
1.79100	-115
1.79467	-115
1.79833	-116
1.80200	-116
1.80567	-117
1.80933	-117
1.81300	-117
1.81667	-117
1.82033	-116
1.82400	-116
1.82767	-115
1.83133	-114
1.83500	-114
1.83867	-114
1.84233	-115
1.84600	-116
1.84967	-116
1.85333	-117
1.85700	-117
1.86067	-117
1.86433	-117
1.86800	-117
1.87167	-117
1.87533	-117
1.87900	-117
1.88267	-117
1.88633	-118
1.89000	-118
1.89367	-118
1.89733	-118
1.90100	-118
1.90467	-118
1.90833	-117
1.91200	-117
1.91567	-117
1.91933	-117
1.92300	-117
1.92667	-116
1.93033	-116
1.93400	-115
1.93767	-115
1.94133	-114
1.94500	-114
1.94867	-113
1.95233	-112
1.95600	-111
1.95967	-111
1.96333	-111
1.96700	-112
1.97067	-112
1.97433	-112
1.97800	-112
1.98167	-112
1.98533	-111
1.98900	-110
1.99267	-110
1.99633	-110
2.00000	-110
2.00367	-109
2.00733	-109
2.01100	-109
2.01467	-109
2.01833	-110
2.02200	-110
2.02567	-110
2.02933	-110
2.03300	-110
2.03667	-110
2.04033	-109
2.04400	-108
2.04767	-107
2.05133	-106
2.05500	-105
2.05867	-105
2.06233	-104
2.06600	-104
2.06967	-104
2.07333	-103
2.07700	-103
2.08067	-103
2.08433	-103
2.08800	-102
2.09167	-102
2.09533	-101
2.09900	-101
2.10267	-101
2.10633	-101
2.11000	-101
2.11367	-101
2.11733	-101
2.12100	-100
2.12467	-100
2.12833	-100
2.13200	-99
2.13567	-99
2.13933	-99
2.14300	-98
2.14667	-98
2.15033	-98
2.15400	-98
2.15767	-98
2.16133	-97
2.16500	-97
2.16867	-96
2.17233	-96
2.17600	-95
2.17967	-94
2.18333	-94
2.18700	-93
2.19067	-93
2.19433	-93
2.19800	-93
2.20167	-94
2.20533	-94
2.20900	-94
2.21267	-95
2.21633	-94
2.22000	-94
2.22367	-94
2.22733	-93
2.23100	-93
2.23467	-92
2.23833	-91
2.24200	-91
2.24567	-90
2.24933	-89
2.25300	-89
2.25667	-89
2.26033	-89
2.26400	-88
2.26767	-87
2.27133	-86
2.27500	-85
2.27867	-85
2.28233	-85
2.28600	-85
2.28967	-85
2.29333	-85
2.29700	-85
2.30067	-85
2.30433	-85
2.30800	-85
2.31167	-84
2.31533	-84
2.31900	-84
2.32267	-83
2.32633	-83
2.33000	-83
2.33367	-82
2.33733	-82
2.34100	-81
2.34467	-80
2.34833	-79
2.35200	-78
2.35567	-77
2.35933	-76
2.36300	-75
2.36667	-74
2.37033	-73
2.37400	-71
2.37767	-68
2.38133	-66
2.38500	-63
2.38867	-59
2.39233	-56
2.39600	-51
2.39967	-47
2.40333	-43
2.40700	-38
2.41067	-34
2.41433	-30
2.41800	-26
2.42167	-23
2.42533	-20
2.42900	-17
2.43267	-15
2.43633	-13
2.44000	-11
2.44367	-9
2.44733	-8
2.45100	-6
2.45467	-4
2.45833	-3
2.46200	-1
2.46567	1
2.46933	2
2.47300	3
2.47667	3
2.48033	4
2.48400	4
2.48767	4
2.49133	5
2.49500	6
2.49867	7
2.50233	8
2.50600	9
2.50967	9
2.51333	10
2.51700	10
2.52067	11
2.52433	11
2.52800	11
2.53167	12
2.53533	13
2.53900	13
2.54267	14
2.54633	15
2.55000	15
2.55367	15
2.55733	16
2.56100	16
2.56467	15
2.56833	15
2.57200	15
2.57567	15
2.57933	15
2.58300	16
2.58667	16
2.59033	16
2.59400	17
2.59767	17
2.60133	17
2.60500	17
2.60867	16
2.61233	16
2.61600	16
2.61967	16
2.62333	16
2.62700	17
2.63067	17
2.63433	18
2.63800	18
2.64167	19
2.64533	20
2.64900	20
2.65267	21
2.65633	21
2.66000	22
2.66367	22
2.66733	22
2.67100	22
2.67467	22
2.67833	23
2.68200	23
2.68567	23
2.68933	23
2.69300	23
2.69667	23
2.70033	24
2.70400	24
2.70767	24
2.71133	24
2.71500	24
2.71867	24
2.72233	25
2.72600	25
2.72967	25
2.73333	26
2.73700	26
2.74067	26
2.74433	26
2.74800	26
2.75167	26
2.75533	26
2.75900	26
2.76267	26
2.76633	26
2.77000	26
2.77367	26
2.77733	26
2.78100	27
2.78467	27
2.78833	27
2.79200	27
2.79567	28
2.79933	28
2.80300	28
2.80667	28
2.81033	27
2.81400	27
2.81767	27
2.82133	27
2.82500	26
2.82867	26
2.83233	26
2.83600	26
2.83967	25
2.84333	25
2.84700	25
2.85067	25
2.85433	25
2.85800	25
2.86167	24
2.86533	23
2.86900	21
2.87267	16
2.87633	9
2.88000	-1
2.88367	-14
2.88733	-31
2.89100	-52
2.89467	-76
2.89833	-105
2.90200	-137
2.90567	-173
2.90933	-211
2.91300	-252
2.91667	-294
2.92033	-338
2.92400	-383
2.92767	-430
2.93133	-476
2.93500	-523
2.93867	-572
2.94233	-625
2.94600	-681
2.94967	-735
2.95333	-779
2.95700	-806
2.96067	-811
2.96433	-796
2.96800	-763
2.97167	-717
2.97533	-662
2.97900	-603
2.98267	-543
2.98633	-483
2.99000	-426
2.99367	-373
2.99733	-324
3.00100	-280
3.00467	-241
3.00833	-206
3.01200	-175
3.01567	-148
3.01933	-124
3.02300	-104
3.02667	-87
3.03033	-71
3.03400	-59
3.03767	-48
3.04133	-38
3.04500	-30
3.04867	-23
3.05233	-18
3.05600	-13
3.05967	-8
3.06333	-4
3.06700	-1
3.07067	1
3.07433	4
3.07800	6
3.08167	7
3.08533	9
3.08900	10
3.09267	11
3.09633	13
3.10000	14
3.10367	15
3.10733	15
3.11100	16
3.11467	16
3.11833	17
3.12200	17
3.12567	18
3.12933	18
3.13300	19
3.13667	19
3.14033	19
3.14400	20
3.14767	20
3.15133	20
3.15500	21
3.15867	21
3.16233	21
3.16600	21
3.16967	21
3.17333	21
3.17700	21
3.18067	21
3.18433	21
3.18800	22
3.19167	22
3.19533	22
3.19900	22
3.20267	22
3.20633	22
3.21000	22
3.21367	22
3.21733	22
3.22100	22
3.22467	22
3.22833	23
3.23200	23
3.23567	23
3.23933	23
3.24300	23
3.24667	23
3.25033	23
3.25400	23
3.25767	23
3.26133	23
3.26500	24
3.26867	24
3.27233	24
3.27600	25
3.27967	25
3.28333	25
3.28700	25
3.29067	25
3.29433	25
3.29800	25
3.30167	25
3.30533	25
3.30900	25
3.31267	25
3.31633	25
3.32000	25
3.32367	26
3.32733	26
3.33100	26
3.33467	26
3.33833	27
3.34200	27
3.34567	27
3.34933	27
3.35300	27
3.35667	27
3.36033	27
3.36400	27
3.36767	27
3.37133	26
3.37500	26
3.37867	26
3.38233	26
3.38600	27
3.38967	27
3.39333	26
3.39700	26
3.40067	26
3.40433	26
3.40800	26
3.41167	26
3.41533	26
3.41900	26
3.42267	26
3.42633	26
3.43000	26
3.43367	26
3.43733	26
3.44100	26
3.44467	26
3.44833	26
3.45200	26
3.45567	26
3.45933	26
3.46300	26
3.46667	26
3.47033	26
3.47400	26
3.47767	26
3.48133	26
3.48500	26
3.48867	26
3.49233	26
3.49600	26
3.49967	26
3.50333	26
3.50700	26
3.51067	26
3.51433	26
3.51800	26
3.52167	27
3.52533	27
3.52900	27
3.53267	27
3.53633	28
3.54000	28
3.54367	28
3.54733	28
3.55100	28
3.55467	28
3.55833	28
3.56200	27
3.56567	27
3.56933	27
3.57300	27
3.57667	27
3.58033	27
3.58400	26
3.58767	26
3.59133	26
3.59500	26
3.59867	27
3.60233	27
3.60600	27
3.60967	27
3.61333	27
3.61700	27
3.62067	27
3.62433	27
3.62800	27
3.63167	27
3.63533	27
3.63900	27
3.64267	27
3.64633	27
3.65000	27
3.65367	27
3.65733	27
3.66100	27
3.66467	27
3.66833	27
3.67200	27
3.67567	27
3.67933	27
3.68300	27
3.68667	27
3.69033	27
3.69400	27
3.69767	26
3.70133	26
3.70500	26
3.70867	26
3.71233	26
3.71600	26
3.71967	27
3.72333	27
3.72700	27
3.73067	27
3.73433	27
3.73800	27
3.74167	27
3.74533	27
3.74900	27
3.75267	27
3.75633	27
3.76000	27
3.76367	26
3.76733	26
3.77100	26
3.77467	26
3.77833	26
3.78200	26
3.78567	27
3.78933	27
3.79300	27
3.79667	28
3.80033	28
3.80400	28
3.80767	28
3.81133	28
3.81500	28
3.81867	28
3.82233	27
3.82600	27
3.82967	27
3.83333	27
3.83700	27
3.84067	27
3.84433	27
3.84800	27
3.85167	27
3.85533	27
3.85900	27
3.86267	27
3.86633	27
3.87000	27
3.87367	27
3.87733	27
3.88100	27
3.88467	27
3.88833	27
3.89200	27
3.89567	27
3.89933	27
3.90300	27
3.90667	27
3.91033	27
3.91400	26
3.91767	26
3.92133	26
3.92500	26
3.92867	26
3.93233	26
3.93600	26
3.93967	26
3.94333	26
3.94700	26
3.95067	27
3.95433	27
3.95800	27
3.96167	27
3.96533	27
3.96900	27
3.97267	27
3.97633	27
3.98000	27
3.98367	27
3.98733	27
3.99100	27
3.99467	27
3.99833	27

[Chromatogram (Ch3)]
Interval(msec)	220
# of Points	1091
Start Time(min)	0.002
End Time(min)	3.998
R.Time (min)	Intensity
0.00167	-1
0.00533	-3
0.00900	-1
0.01267	1
0.01633	1
0.02000	0
0.02367	-1
0.02733	-1
0.03100	0
0.03467	1
0.03833	3
0.04200	5
0.04567	6
0.04933	4
0.05300	2
0.05667	2
0.06033	1
0.06400	2
0.06767	4
0.07133	4
0.07500	5
0.07867	8
0.08233	9
0.08600	9
0.08967	9
0.09333	9
0.09700	11
0.10067	11
0.10433	11
0.10800	9
0.11167	8
0.11533	6
0.11900	3
0.12267	3
0.12633	4
0.13000	6
0.13367	5
0.13733	4
0.14100	6
0.14467	8
0.14833	9
0.15200	8
0.15567	10
0.15933	11
0.16300	10
0.16667	12
0.17033	14
0.17400	15
0.17767	14
0.18133	13
0.18500	12
0.18867	14
0.19233	17
0.19600	19
0.19967	19
0.20333	17
0.20700	16
0.21067	16
0.21433	16
0.21800	15
0.22167	14
0.22533	13
0.22900	12
0.23267	12
0.23633	12
0.24000	15
0.24367	15
0.24733	14
0.25100	12
0.25467	11
0.25833	12
0.26200	14
0.26567	16
0.26933	18
0.27300	18
0.27667	18
0.28033	16
0.28400	18
0.28767	19
0.29133	17
0.29500	15
0.29867	15
0.30233	17
0.30600	16
0.30967	17
0.31333	19
0.31700	20
0.32067	20
0.32433	18
0.32800	20
0.33167	23
0.33533	23
0.33900	22
0.34267	20
0.34633	18
0.35000	17
0.35367	14
0.35733	13
0.36100	14
0.36467	15
0.36833	17
0.37200	19
0.37567	20
0.37933	20
0.38300	20
0.38667	22
0.39033	22
0.39400	23
0.39767	23
0.40133	19
0.40500	18
0.40867	17
0.41233	15
0.41600	17
0.41967	18
0.42333	18
0.42700	17
0.43067	15
0.43433	15
0.43800	16
0.44167	17
0.44533	18
0.44900	19
0.45267	22
0.45633	24
0.46000	27
0.46367	29
0.46733	28
0.47100	27
0.47467	25
0.47833	22
0.48200	22
0.48567	22
0.48933	23
0.49300	22
0.49667	23
0.50033	25
0.50400	25
0.50767	27
0.51133	27
0.51500	28
0.51867	29
0.52233	30
0.52600	29
0.52967	28
0.53333	28
0.53700	28
0.54067	28
0.54433	26
0.54800	25
0.55167	24
0.55533	26
0.55900	26
0.56267	24
0.56633	23
0.57000	21
0.57367	23
0.57733	25
0.58100	25
0.58467	25
0.58833	27
0.59200	29
0.59567	31
0.59933	30
0.60300	29
0.60667	29
0.61033	29
0.61400	28
0.61767	29
0.62133	32
0.62500	36
0.62867	36
0.63233	34
0.63600	34
0.63967	33
0.64333	32
0.64700	29
0.65067	28
0.65433	30
0.65800	31
0.66167	31
0.66533	33
0.66900	34
0.67267	33
0.67633	31
0.68000	31
0.68367	31
0.68733	31
0.69100	31
0.69467	32
0.69833	32
0.70200	34
0.70567	35
0.70933	38
0.71300	37
0.71667	35
0.72033	36
0.72400	36
0.72767	37
0.73133	37
0.73500	36
0.73867	35
0.74233	35
0.74600	35
0.74967	35
0.75333	35
0.75700	35
0.76067	35
0.76433	34
0.76800	35
0.77167	35
0.77533	34
0.77900	33
0.78267	32
0.78633	31
0.79000	32
0.79367	34
0.79733	34
0.80100	32
0.80467	33
0.80833	33
0.81200	33
0.81567	32
0.81933	31
0.82300	31
0.82667	32
0.83033	33
0.83400	34
0.83767	36
0.84133	35
0.84500	32
0.84867	29
0.85233	31
0.85600	30
0.85967	29
0.86333	30
0.86700	31
0.87067	30
0.87433	29
0.87800	31
0.88167	31
0.88533	32
0.88900	32
0.89267	31
0.89633	31
0.90000	30
0.90367	29
0.90733	31
0.91100	33
0.91467	33
0.91833	32
0.92200	30
0.92567	30
0.92933	30
0.93300	31
0.93667	31
0.94033	32
0.94400	30
0.94767	30
0.95133	32
0.95500	32
0.95867	30
0.96233	29
0.96600	29
0.96967	29
0.97333	30
0.97700	33
0.98067	33
0.98433	31
0.98800	31
0.99167	30
0.99533	31
0.99900	31
1.00267	30
1.00633	29
1.01000	28
1.01367	28
1.01733	29
1.02100	30
1.02467	30
1.02833	31
1.03200	32
1.03567	32
1.03933	31
1.04300	32
1.04667	32
1.05033	32
1.05400	33
1.05767	33
1.06133	34
1.06500	34
1.06867	34
1.07233	33
1.07600	32
1.07967	32
1.08333	32
1.08700	31
1.09067	30
1.09433	29
1.09800	29
1.10167	32
1.10533	33
1.10900	32
1.11267	31
1.11633	31
1.12000	29
1.12367	28
1.12733	29
1.13100	29
1.13467	29
1.13833	30
1.14200	29
1.14567	27
1.14933	26
1.15300	27
1.15667	29
1.16033	31
1.16400	35
1.16767	39
1.17133	39
1.17500	38
1.17867	39
1.18233	37
1.18600	36
1.18967	36
1.19333	38
1.19700	39
1.20067	38
1.20433	37
1.20800	36
1.21167	34
1.21533	34
1.21900	34
1.22267	35
1.22633	36
1.23000	36
1.23367	36
1.23733	35
1.24100	34
1.24467	34
1.24833	35
1.25200	35
1.25567	34
1.25933	35
1.26300	34
1.26667	33
1.27033	33
1.27400	33
1.27767	34
1.28133	35
1.28500	34
1.28867	32
1.29233	29
1.29600	27
1.29967	27
1.30333	31
1.30700	35
1.31067	35
1.31433	34
1.31800	34
1.32167	35
1.32533	34
1.32900	34
1.33267	33
1.33633	33
1.34000	31
1.34367	28
1.34733	28
1.35100	29
1.35467	29
1.35833	31
1.36200	35
1.36567	37
1.36933	36
1.37300	35
1.37667	33
1.38033	31
1.38400	30
1.38767	31
1.39133	32
1.39500	32
1.39867	31
1.40233	31
1.40600	30
1.40967	28
1.41333	28
1.41700	28
1.42067	31
1.42433	32
1.42800	31
1.43167	30
1.43533	29
1.43900	28
1.44267	28
1.44633	28
1.45000	27
1.45367	26
1.45733	25
1.46100	26
1.46467	28
1.46833	28
1.47200	27
1.47567	27
1.47933	28
1.48300	28
1.48667	29
1.49033	28
1.49400	28
1.49767	28
1.50133	28
1.50500	27
1.50867	26
1.51233	25
1.51600	26
1.51967	27
1.52333	26
1.52700	25
1.53067	26
1.53433	27
1.53800	30
1.54167	33
1.54533	36
1.54900	35
1.55267	32
1.55633	28
1.56000	27
1.56367	26
1.56733	27
1.57100	29
1.57467	32
1.57833	33
1.58200	33
1.58567	31
1.58933	30
1.59300	29
1.59667	29
1.60033	27
1.60400	26
1.60767	27
1.61133	27
1.61500	26
1.61867	27
1.62233	28
1.62600	29
1.62967	29
1.63333	30
1.63700	33
1.64067	34
1.64433	35
1.64800	35
1.65167	34
1.65533	36
1.65900	35
1.66267	35
1.66633	36
1.67000	37
1.67367	36
1.67733	36
1.68100	37
1.68467	38
1.68833	38
1.69200	41
1.69567	43
1.69933	44
1.70300	44
1.70667	44
1.71033	46
1.71400	47
1.71767	46
1.72133	45
1.72500	44
1.72867	40
1.73233	39
1.73600	39
1.73967	40
1.74333	41
1.74700	41
1.75067	40
1.75433	42
1.75800	44
1.76167	45
1.76533	48
1.76900	49
1.77267	49
1.77633	49
1.78000	51
1.78367	54
1.78733	54
1.79100	55
1.79467	55
1.79833	55
1.80200	54
1.80567	55
1.80933	57
1.81300	57
1.81667	56
1.82033	54
1.82400	55
1.82767	57
1.83133	58
1.83500	58
1.83867	57
1.84233	57
1.84600	59
1.84967	60
1.85333	62
1.85700	61
1.86067	61
1.86433	62
1.86800	62
1.87167	62
1.87533	61
1.87900	58
1.88267	57
1.88633	58
1.89000	60
1.89367	60
1.89733	61
1.90100	66
1.90467	69
1.90833	69
1.91200	67
1.91567	66
1.91933	63
1.92300	63
1.92667	65
1.93033	67
1.93400	69
1.93767	69
1.94133	68
1.94500	67
1.94867	67
1.95233	68
1.95600	70
1.95967	71
1.96333	71
1.96700	72
1.97067	73
1.97433	72
1.97800	71
1.98167	72
1.98533	75
1.98900	77
1.99267	77
1.99633	76
2.00000	76
2.00367	77
2.00733	78
2.01100	78
2.01467	78
2.01833	79
2.02200	80
2.02567	85
2.02933	87
2.03300	87
2.03667	89
2.04033	89
2.04400	87
2.04767	87
2.05133	89
2.05500	91
2.05867	91
2.06233	90
2.06600	89
2.06967	90
2.07333	90
2.07700	89
2.08067	90
2.08433	92
2.08800	93
2.09167	94
2.09533	93
2.09900	92
2.10267	93
2.10633	94
2.11000	93
2.11367	93
2.11733	96
2.12100	99
2.12467	100
2.12833	100
2.13200	100
2.13567	101
2.13933	103
2.14300	105
2.14667	108
2.15033	110
2.15400	112
2.15767	112
2.16133	110
2.16500	110
2.16867	110
2.17233	111
2.17600	113
2.17967	113
2.18333	112
2.18700	112
2.19067	112
2.19433	115
2.19800	117
2.20167	118
2.20533	117
2.20900	117
2.21267	117
2.21633	116
2.22000	116
2.22367	116
2.22733	120
2.23100	125
2.23467	125
2.23833	125
2.24200	124
2.24567	125
2.24933	128
2.25300	130
2.25667	131
2.26033	131
2.26400	131
2.26767	129
2.27133	128
2.27500	128
2.27867	130
2.28233	132
2.28600	134
2.28967	134
2.29333	135
2.29700	136
2.30067	137
2.30433	139
2.30800	138
2.31167	136
2.31533	136
2.31900	137
2.32267	139
2.32633	141
2.33000	141
2.33367	140
2.33733	139
2.34100	140
2.34467	140
2.34833	140
2.35200	141
2.35567	142
2.35933	144
2.36300	146
2.36667	147
2.37033	148
2.37400	149
2.37767	149
2.38133	150
2.38500	151
2.38867	152
2.39233	152
2.39600	152
2.39967	150
2.40333	149
2.40700	150
2.41067	151
2.41433	154
2.41800	158
2.42167	160
2.42533	160
2.42900	160
2.43267	162
2.43633	162
2.44000	162
2.44367	179
2.44733	226
2.45100	281
2.45467	322
2.45833	334
2.46200	327
2.46567	315
2.46933	306
2.47300	299
2.47667	288
2.48033	269
2.48400	247
2.48767	226
2.49133	209
2.49500	195
2.49867	182
2.50233	174
2.50600	172
2.50967	175
2.51333	180
2.51700	184
2.52067	185
2.52433	183
2.52800	179
2.53167	169
2.53533	158
2.53900	147
2.54267	136
2.54633	128
2.55000	123
2.55367	119
2.55733	117
2.56100	112
2.56467	107
2.56833	103
2.57200	104
2.57567	104
2.57933	105
2.58300	104
2.58667	105
2.59033	106
2.59400	106
2.59767	107
2.60133	111
2.60500	117
2.60867	121
2.61233	123
2.61600	123
2.61967	119
2.62333	106
2.62700	90
2.63067	70
2.63433	43
2.63800	15
2.64167	-11
2.64533	-36
2.64900	-58
2.65267	-75
2.65633	-89
2.66000	-99
2.66367	-105
2.66733	-109
2.67100	-110
2.67467	-107
2.67833	-103
2.68200	-98
2.68567	-90
2.68933	-83
2.69300	-79
2.69667	-74
2.70033	-68
2.70400	-60
2.70767	-54
2.71133	-49
2.71500	-46
2.71867	-41
2.72233	-35
2.72600	-30
2.72967	-25
2.73333	-19
2.73700	-14
2.74067	-10
2.74433	-11
2.74800	-24
2.75167	-46
2.75533	-89
2.75900	-129
2.76267	-138
2.76633	-118
2.77000	-86
2.77367	-52
2.77733	-16
2.78100	23
2.78467	68
2.78833	119
2.79200	173
2.79567	227
2.79933	279
2.80300	328
2.80667	374
2.81033	415
2.81400	451
2.81767	483
2.82133	509
2.82500	533
2.82867	551
2.83233	566
2.83600	580
2.83967	597
2.84333	625
2.84700	677
2.85067	771
2.85433	931
2.85800	1178
2.86167	1524
2.86533	1966
2.86900	2473
2.87267	3002
2.87633	3498
2.88000	3908
2.88367	4202
2.88733	4365
2.89100	4398
2.89467	4318
2.89833	4148
2.90200	3918
2.90567	3653
2.90933	3371
2.91300	3086
2.91667	2807
2.92033	2545
2.92400	2307
2.92767	2092
2.93133	1898
2.93500	1723
2.93867	1568
2.94233	1435
2.94600	1319
2.94967	1215
2.95333	1125
2.95700	1047
2.96067	978
2.96433	918
2.96800	867
2.97167	826
2.97533	792
2.97900	761
2.98267	734
2.98633	713
2.99000	696
2.99367	679
2.99733	665
3.00100	652
3.00467	638
3.00833	623
3.01200	615
3.01567	611
3.01933	606
3.02300	600
3.02667	596
3.03033	594
3.03400	591
3.03767	587
3.04133	585
3.04500	583
3.04867	580
3.05233	582
3.05600	583
3.05967	580
3.06333	575
3.06700	572
3.07067	573
3.07433	573
3.07800	575
3.08167	575
3.08533	575
3.08900	575
3.09267	575
3.09633	576
3.10000	578
3.10367	578
3.10733	575
3.11100	575
3.11467	574
3.11833	575
3.12200	577
3.12567	579
3.12933	579
3.13300	577
3.13667	578
3.14033	579
3.14400	579
3.14767	580
3.15133	582
3.15500	586
3.15867	588
3.16233	587
3.16600	584
3.16967	579
3.17333	578
3.17700	577
3.18067	576
3.18433	575
3.18800	577
3.19167	578
3.19533	577
3.19900	576
3.20267	575
3.20633	577
3.21000	579
3.21367	579
3.21733	577
3.22100	576
3.22467	574
3.22833	572
3.23200	569
3.23567	563
3.23933	558
3.24300	557
3.24667	557
3.25033	557
3.25400	554
3.25767	551
3.26133	550
3.26500	551
3.26867	550
3.27233	548
3.27600	544
3.27967	538
3.28333	533
3.28700	528
3.29067	526
3.29433	525
3.29800	522
3.30167	518
3.30533	514
3.30900	513
3.31267	512
3.31633	510
3.32000	509
3.32367	507
3.32733	504
3.33100	501
3.33467	500
3.33833	501
3.34200	497
3.34567	496
3.34933	494
3.35300	490
3.35667	486
3.36033	483
3.36400	480
3.36767	478
3.37133	475
3.37500	473
3.37867	470
3.38233	469
3.38600	468
3.38967	466
3.39333	462
3.39700	461
3.40067	459
3.40433	454
3.40800	451
3.41167	451
3.41533	449
3.41900	447
3.42267	443
3.42633	440
3.43000	437
3.43367	435
3.43733	431
3.44100	426
3.44467	422
3.44833	419
3.45200	417
3.45567	413
3.45933	413
3.46300	412
3.46667	409
3.47033	407
3.47400	405
3.47767	404
3.48133	402
3.48500	402
3.48867	400
3.49233	398
3.49600	396
3.49967	395
3.50333	393
3.50700	390
3.51067	387
3.51433	384
3.51800	381
3.52167	378
3.52533	375
3.52900	372
3.53267	371
3.53633	371
3.54000	367
3.54367	363
3.54733	361
3.55100	361
3.55467	362
3.55833	363
3.56200	359
3.56567	356
3.56933	353
3.57300	352
3.57667	350
3.58033	346
3.58400	344
3.58767	340
3.59133	336
3.59500	335
3.59867	336
3.60233	336
3.60600	335
3.60967	333
3.61333	330
3.61700	325
3.62067	323
3.62433	322
3.62800	323
3.63167	321
3.63533	317
3.63900	313
3.64267	309
3.64633	308
3.65000	310
3.65367	310
3.65733	309
3.66100	308
3.66467	306
3.66833	303
3.67200	302
3.67567	301
3.67933	298
3.68300	294
3.68667	291
3.69033	291
3.69400	292
3.69767	291
3.70133	288
3.70500	288
3.70867	288
3.71233	287
3.71600	284
3.71967	282
3.72333	283
3.72700	280
3.73067	276
3.73433	272
3.73800	270
3.74167	271
3.74533	271
3.74900	270
3.75267	268
3.75633	266
3.76000	266
3.76367	265
3.76733	268
3.77100	271
3.77467	271
3.77833	271
3.78200	269
3.78567	267
3.78933	265
3.79300	263
3.79667	261
3.80033	258
3.80400	256
3.80767	256
3.81133	255
3.81500	253
3.81867	252
3.82233	251
3.82600	249
3.82967	249
3.83333	250
3.83700	250
3.84067	249
3.84433	248
3.84800	250
3.85167	252
3.85533	254
3.85900	255
3.86267	254
3.86633	252
3.87000	249
3.87367	248
3.87733	247
3.88100	246
3.88467	246
3.88833	244
3.89200	242
3.89567	239
3.89933	239
3.90300	238
3.90667	237
3.91033	236
3.91400	235
3.91767	234
3.92133	233
3.92500	232
3.92867	232
3.93233	233
3.93600	231
3.93967	228
3.94333	226
3.94700	223
3.95067	222
3.95433	224
3.95800	226
3.96167	224
3.96533	222
3.96900	219
3.97267	218
3.97633	218
3.98000	218
3.98367	216
3.98733	215
3.99100	215
3.99467	214
3.99833	214

[Status Trace (Column Oven Temperature)]
Interval(msec)	1000
# of Points	240
Start Time(min)	0.002
End Time(min)	3.985
Intensity Units	
Intensity Multiplier	1
R.Time (min)	Intensity
0.00152	34.99
0.01818	35.00
0.03485	35.01
0.05152	35.00
0.06818	35.01
0.08485	35.00
0.10152	35.00
0.11818	35.00
0.13485	35.00
0.15152	34.99
0.16818	34.99
0.18485	34.99
0.20152	34.99
0.21818	34.99
0.23485	34.99
0.25152	34.99
0.26818	34.99
0.28485	34.98
0.30152	34.98
0.31818	34.99
0.33485	34.98
0.35152	34.99
0.36818	34.99
0.38485	35.00
0.40152	34.99
0.41818	35.00
0.43485	34.99
0.45152	34.99
0.46818	34.99
0.48485	34.99
0.50152	35.00
0.51818	35.00
0.53485	35.00
0.55152	35.01
0.56818	35.01
0.58485	35.02
0.60152	35.02
0.61818	35.01
0.63485	35.00
0.65152	35.00
0.66818	35.00
0.68485	35.01
0.70152	35.02
0.71818	35.02
0.73485	35.00
0.75152	34.99
0.76818	34.99
0.78485	34.99
0.80152	34.99
0.81818	34.99
0.83485	34.99
0.85152	34.99
0.86818	34.99
0.88485	34.99
0.90152	34.99
0.91818	34.99
0.93485	34.98
0.95152	34.98
0.96818	34.98
0.98485	34.98
1.00152	34.99
1.01818	34.99
1.03485	35.00
1.05152	34.99
1.06818	35.00
1.08485	35.00
1.10152	35.01
1.11818	35.00
1.13485	35.00
1.15152	35.01
1.16818	35.00
1.18485	34.99
1.20152	34.99
1.21818	34.99
1.23485	34.99
1.25152	34.99
1.26818	34.99
1.28485	34.98
1.30152	34.99
1.31818	34.99
1.33485	35.00
1.35152	35.01
1.36818	35.01
1.38485	35.01
1.40152	35.01
1.41818	35.00
1.43485	35.00
1.45152	34.99
1.46818	34.99
1.48485	34.99
1.50152	34.99
1.51818	34.99
1.53485	34.99
1.55152	34.99
1.56818	34.98
1.58485	34.99
1.60152	35.02
1.61818	35.13
1.63485	35.30
1.65152	35.53
1.66818	35.82
1.68485	36.21
1.70152	36.59
1.71818	36.92
1.73485	37.23
1.75152	37.53
1.76818	37.88
1.78485	38.22
1.80152	38.56
1.81818	38.87
1.83485	39.21
1.85152	39.55
1.86818	39.88
1.88485	40.21
1.90152	40.55
1.91818	40.89
1.93485	41.22
1.95152	41.53
1.96818	41.87
1.98485	42.19
2.00152	42.52
2.01818	42.85
2.03485	43.18
2.05152	43.49
2.06818	43.81
2.08485	44.14
2.10152	44.47
2.11818	44.80
2.13485	45.13
2.15152	45.45
2.16818	45.77
2.18485	46.08
2.20152	46.43
2.21818	46.75
2.23485	47.07
2.25152	47.42
2.26818	47.73
2.28485	48.07
2.30152	48.39
2.31818	48.73
2.33485	49.04
2.35152	49.33
2.36818	49.56
2.38485	49.66
2.40152	49.65
2.41818	49.65
2.43485	49.65
2.45152	49.66
2.46818	49.67
2.48485	49.71
2.50152	49.71
2.51818	49.73
2.53485	49.74
2.55152	49.76
2.56818	49.79
2.58485	49.80
2.60152	49.82
2.61818	49.83
2.63485	49.84
2.65152	49.84
2.66818	49.86
2.68485	49.85
2.70152	49.86
2.71818	49.86
2.73485	49.85
2.75152	49.85
2.76818	49.85
2.78485	49.85
2.80152	49.86
2.81818	49.88
2.83485	49.90
2.85152	49.91
2.86818	49.92
2.88485	49.92
2.90152	49.93
2.91818	49.93
2.93485	49.94
2.95152	49.95
2.96818	49.97
2.98485	49.98
3.00152	49.99
3.01818	50.00
3.03485	50.01
3.05152	50.01
3.06818	50.03
3.08485	50.03
3.10152	50.04
3.11818	50.04
3.13485	50.04
3.15152	50.05
3.16818	50.06
3.18485	50.07
3.20152	50.08
3.21818	50.09
3.23485	50.09
3.25152	50.11
3.26818	50.10
3.28485	50.10
3.30152	50.10
3.31818	50.09
3.33485	50.08
3.35152	50.08
3.36818	50.07
3.38485	50.07
3.40152	50.07
3.41818	50.06
3.43485	50.07
3.45152	50.08
3.46818	50.08
3.48485	50.08
3.50152	50.09
3.51818	50.09
3.53485	50.08
3.55152	50.09
3.56818	50.09
3.58485	50.09
3.60152	50.09
3.61818	50.09
3.63485	50.08
3.65152	50.08
3.66818	50.08
3.68485	50.08
3.70152	50.09
3.71818	50.09
3.73485	50.09
3.75152	50.09
3.76818	50.09
3.78485	50.09
3.80152	50.09
3.81818	50.09
3.83485	50.08
3.85152	50.08
3.86818	50.08
3.88485	50.08
3.90152	50.09
3.91818	50.09
3.93485	50.09
3.95152	50.09
3.96818	50.08
3.98485	50.08

[Status Trace (Injection Unit Temperature)]
Interval(msec)	1000
# of Points	240
Start Time(min)	0.002
End Time(min)	3.985
Intensity Units	
Intensity Multiplier	1
R.Time (min)	Intensity
0.00152	99.99
0.01818	99.98
0.03485	99.98
0.05152	99.98
0.06818	99.98
0.08485	99.99
0.10152	99.98
0.11818	99.99
0.13485	99.99
0.15152	99.99
0.16818	99.98
0.18485	99.98
0.20152	99.98
0.21818	99.98
0.23485	99.98
0.25152	99.98
0.26818	99.98
0.28485	99.98
0.30152	99.98
0.31818	99.98
0.33485	99.98
0.35152	99.98
0.36818	99.98
0.38485	99.98
0.40152	99.98
0.41818	99.98
0.43485	99.98
0.45152	99.98
0.46818	99.98
0.48485	99.98
0.50152	99.98
0.51818	99.98
0.53485	99.98
0.55152	99.98
0.56818	99.98
0.58485	99.99
0.60152	99.98
0.61818	99.99
0.63485	99.99
0.65152	99.98
0.66818	99.98
0.68485	99.98
0.70152	99.99
0.71818	99.98
0.73485	99.98
0.75152	99.99
0.76818	99.99
0.78485	99.98
0.80152	99.98
0.81818	99.99
0.83485	99.98
0.85152	99.98
0.86818	99.98
0.88485	99.98
0.90152	99.99
0.91818	99.98
0.93485	99.99
0.95152	99.98
0.96818	99.99
0.98485	99.98
1.00152	99.98
1.01818	99.98
1.03485	99.99
1.05152	99.99
1.06818	99.99
1.08485	99.99
1.10152	99.99
1.11818	99.99
1.13485	99.98
1.15152	99.99
1.16818	99.99
1.18485	99.99
1.20152	99.99
1.21818	99.99
1.23485	99.99
1.25152	99.99
1.26818	99.99
1.28485	99.99
1.30152	99.99
1.31818	99.99
1.33485	99.99
1.35152	99.99
1.36818	99.99
1.38485	99.99
1.40152	99.99
1.41818	99.99
1.43485	99.99
1.45152	99.99
1.46818	99.99
1.48485	99.99
1.50152	99.99
1.51818	99.99
1.53485	99.99
1.55152	99.99
1.56818	99.99
1.58485	99.98
1.60152	99.99
1.61818	99.99
1.63485	99.99
1.65152	99.99
1.66818	99.99
1.68485	99.99
1.70152	99.98
1.71818	99.98
1.73485	99.98
1.75152	99.99
1.76818	99.99
1.78485	99.98
1.80152	99.99
1.81818	99.98
1.83485	99.98
1.85152	99.98
1.86818	99.98
1.88485	99.98
1.90152	99.98
1.91818	99.98
1.93485	99.98
1.95152	99.98
1.96818	99.97
1.98485	99.97
2.00152	99.97
2.01818	99.97
2.03485	99.97
2.05152	99.97
2.06818	99.97
2.08485	99.97
2.10152	99.97
2.11818	99.97
2.13485	99.97
2.15152	99.97
2.16818	99.97
2.18485	99.97
2.20152	99.97
2.21818	99.97
2.23485	99.97
2.25152	99.96
2.26818	99.97
2.28485	99.97
2.30152	99.97
2.31818	99.97
2.33485	99.97
2.35152	99.97
2.36818	99.97
2.38485	99.97
2.40152	99.97
2.41818	99.97
2.43485	99.97
2.45152	99.97
2.46818	99.97
2.48485	99.97
2.50152	99.97
2.51818	99.97
2.53485	99.98
2.55152	99.98
2.56818	99.97
2.58485	99.98
2.60152	99.98
2.61818	99.98
2.63485	99.98
2.65152	99.98
2.66818	99.98
2.68485	99.98
2.70152	99.99
2.71818	99.99
2.73485	99.99
2.75152	99.99
2.76818	99.99
2.78485	100.00
2.80152	100.00
2.81818	100.00
2.83485	100.00
2.85152	100.00
2.86818	100.00
2.88485	100.00
2.90152	100.00
2.91818	100.01
2.93485	100.01
2.95152	100.01
2.96818	100.01
2.98485	100.01
3.00152	100.01
3.01818	100.02
3.03485	100.01
3.05152	100.01
3.06818	100.02
3.08485	100.02
3.10152	100.02
3.11818	100.02
3.13485	100.02
3.15152	100.03
3.16818	100.02
3.18485	100.03
3.20152	100.02
3.21818	100.03
3.23485	100.03
3.25152	100.03
3.26818	100.03
3.28485	100.03
3.30152	100.03
3.31818	100.04
3.33485	100.04
3.35152	100.04
3.36818	100.04
3.38485	100.04
3.40152	100.04
3.41818	100.04
3.43485	100.04
3.45152	100.04
3.46818	100.04
3.48485	100.04
3.50152	100.04
3.51818	100.04
3.53485	100.04
3.55152	100.05
3.56818	100.05
3.58485	100.04
3.60152	100.05
3.61818	100.05
3.63485	100.05
3.65152	100.05
3.66818	100.05
3.68485	100.05
3.70152	100.05
3.71818	100.05
3.73485	100.05
3.75152	100.05
3.76818	100.05
3.78485	100.05
3.80152	100.05
3.81818	100.05
3.83485	100.05
3.85152	100.05
3.86818	100.05
3.88485	100.05
3.90152	100.05
3.91818	100.05
3.93485	100.05
3.95152	100.05
3.96818	100.05
3.98485	100.05

[Status Trace (Carrier Gas Pressure)]
Interval(msec)	1000
# of Points	240
Start Time(min)	0.002
End Time(min)	3.985
Intensity Units	
Intensity Multiplier	1
R.Time (min)	Intensity
0.00152	58.00
0.01818	56.39
0.03485	56.09
0.05152	58.42
0.06818	59.91
0.08485	58.42
0.10152	57.97
0.11818	58.00
0.13485	58.01
0.15152	58.01
0.16818	58.00
0.18485	58.00
0.20152	58.00
0.21818	58.00
0.23485	58.00
0.25152	58.00
0.26818	58.00
0.28485	58.00
0.30152	58.00
0.31818	58.00
0.33485	58.00
0.35152	58.00
0.36818	58.00
0.38485	58.00
0.40152	58.00
0.41818	58.00
0.43485	58.00
0.45152	58.00
0.46818	58.00
0.48485	58.00
0.50152	58.00
0.51818	58.00
0.53485	58.00
0.55152	58.00
0.56818	58.00
0.58485	58.00
0.60152	58.00
0.61818	58.00
0.63485	58.00
0.65152	58.00
0.66818	58.00
0.68485	58.00
0.70152	58.00
0.71818	58.00
0.73485	58.00
0.75152	58.00
0.76818	58.00
0.78485	58.00
0.80152	58.00
0.81818	58.00
0.83485	58.00
0.85152	58.00
0.86818	58.00
0.88485	58.00
0.90152	58.00
0.91818	58.00
0.93485	58.00
0.95152	58.00
0.96818	58.00
0.98485	58.00
1.00152	58.00
1.01818	58.00
1.03485	58.00
1.05152	58.00
1.06818	58.00
1.08485	58.00
1.10152	58.00
1.11818	58.00
1.13485	58.00
1.15152	58.00
1.16818	58.00
1.18485	58.00
1.20152	58.00
1.21818	58.00
1.23485	58.00
1.25152	58.00
1.26818	58.00
1.28485	58.00
1.30152	58.00
1.31818	58.00
1.33485	58.00
1.35152	58.00
1.36818	58.00
1.38485	58.00
1.40152	58.00
1.41818	58.00
1.43485	58.00
1.45152	58.00
1.46818	58.00
1.48485	58.00
1.50152	58.00
1.51818	58.00
1.53485	58.00
1.55152	58.00
1.56818	58.00
1.58485	58.00
1.60152	58.00
1.61818	58.00
1.63485	58.00
1.65152	58.00
1.66818	58.00
1.68485	58.01
1.70152	58.00
1.71818	58.00
1.73485	58.00
1.75152	58.00
1.76818	58.00
1.78485	58.00
1.80152	58.00
1.81818	58.00
1.83485	58.00
1.85152	58.00
1.86818	58.00
1.88485	58.00
1.90152	58.00
1.91818	58.00
1.93485	58.00
1.95152	58.00
1.96818	58.00
1.98485	58.00
2.00152	58.00
2.01818	58.00
2.03485	58.00
2.05152	58.00
2.06818	58.00
2.08485	58.00
2.10152	58.00
2.11818	58.00
2.13485	58.00
2.15152	58.00
2.16818	58.00
2.18485	58.00
2.20152	58.00
2.21818	58.00
2.23485	58.00
2.25152	58.00
2.26818	58.00
2.28485	58.00
2.30152	58.00
2.31818	58.00
2.33485	58.00
2.35152	58.00
2.36818	58.00
2.38485	57.99
2.40152	57.99
2.41818	58.00
2.43485	58.00
2.45152	58.00
2.46818	58.00
2.48485	58.00
2.50152	58.00
2.51818	58.01
2.53485	57.99
2.55152	58.00
2.56818	58.00
2.58485	58.00
2.60152	58.00
2.61818	58.00
2.63485	58.00
2.65152	58.00
2.66818	58.00
2.68485	58.00
2.70152	58.00
2.71818	58.00
2.73485	58.00
2.75152	58.00
2.76818	58.00
2.78485	58.00
2.80152	58.00
2.81818	58.00
2.83485	58.00
2.85152	58.00
2.86818	58.00
2.88485	58.00
2.90152	58.00
2.91818	58.00
2.93485	58.00
2.95152	58.00
2.96818	58.00
2.98485	58.00
3.00152	58.00
3.01818	58.00
3.03485	58.00
3.05152	58.00
3.06818	58.00
3.08485	58.00
3.10152	58.00
3.11818	58.00
3.13485	58.00
3.15152	58.00
3.16818	58.00
3.18485	58.00
3.20152	58.00
3.21818	58.00
3.23485	58.00
3.25152	58.00
3.26818	58.00
3.28485	58.00
3.30152	58.00
3.31818	58.00
3.33485	58.00
3.35152	58.00
3.36818	58.00
3.38485	58.00
3.40152	58.00
3.41818	58.00
3.43485	58.00
3.45152	58.00
3.46818	58.00
3.48485	58.00
3.50152	58.00
3.51818	58.00
3.53485	58.00
3.55152	58.00
3.56818	58.00
3.58485	58.00
3.60152	58.00
3.61818	58.00
3.63485	58.00
3.65152	58.00
3.66818	58.00
3.68485	58.00
3.70152	58.00
3.71818	58.00
3.73485	58.00
3.75152	58.00
3.76818	58.00
3.78485	58.00
3.80152	58.00
3.81818	58.00
3.83485	58.00
3.85152	58.00
3.86818	58.00
3.88485	58.00
3.90152	58.00
3.91818	58.00
3.93485	58.00
3.95152	58.00
3.96818	58.00
3.98485	58.00

[Status Trace (Carrier Gas Flow)]
Interval(msec)	1000
# of Points	240
Start Time(min)	0.002
End Time(min)	3.985
Intensity Units	
Intensity Multiplier	1
R.Time (min)	Intensity
0.00152	34.52
0.01818	34.44
0.03485	34.54
0.05152	34.55
0.06818	34.50
0.08485	34.51
0.10152	34.52
0.11818	34.52
0.13485	34.52
0.15152	34.52
0.16818	34.52
0.18485	34.52
0.20152	34.51
0.21818	34.51
0.23485	34.53
0.25152	34.53
0.26818	34.52
0.28485	34.52
0.30152	34.52
0.31818	34.52
0.33485	34.52
0.35152	34.52
0.36818	34.52
0.38485	34.52
0.40152	34.52
0.41818	34.52
0.43485	34.52
0.45152	34.52
0.46818	34.52
0.48485	34.52
0.50152	34.52
0.51818	34.52
0.53485	34.52
0.55152	34.52
0.56818	34.52
0.58485	34.52
0.60152	34.52
0.61818	34.52
0.63485	34.52
0.65152	34.52
0.66818	34.52
0.68485	34.52
0.70152	34.52
0.71818	34.52
0.73485	34.52
0.75152	34.52
0.76818	34.52
0.78485	34.52
0.80152	34.52
0.81818	34.52
0.83485	34.52
0.85152	34.52
0.86818	34.52
0.88485	34.52
0.90152	34.52
0.91818	34.52
0.93485	34.52
0.95152	34.52
0.96818	34.52
0.98485	34.52
1.00152	34.52
1.01818	34.52
1.03485	34.52
1.05152	34.52
1.06818	34.52
1.08485	34.52
1.10152	34.52
1.11818	34.52
1.13485	34.52
1.15152	34.52
1.16818	34.52
1.18485	34.52
1.20152	34.52
1.21818	34.52
1.23485	34.52
1.25152	34.52
1.26818	34.52
1.28485	34.52
1.30152	34.52
1.31818	34.52
1.33485	34.52
1.35152	34.52
1.36818	34.52
1.38485	34.52
1.40152	34.52
1.41818	34.52
1.43485	34.52
1.45152	34.52
1.46818	34.52
1.48485	34.52
1.50152	34.52
1.51818	34.52
1.53485	34.52
1.55152	34.52
1.56818	34.52
1.58485	34.52
1.60152	34.52
1.61818	34.52
1.63485	34.52
1.65152	34.52
1.66818	34.52
1.68485	34.52
1.70152	34.52
1.71818	34.52
1.73485	34.52
1.75152	34.52
1.76818	34.52
1.78485	34.52
1.80152	34.52
1.81818	34.52
1.83485	34.52
1.85152	34.52
1.86818	34.52
1.88485	34.52
1.90152	34.52
1.91818	34.52
1.93485	34.52
1.95152	34.52
1.96818	34.52
1.98485	34.52
2.00152	34.52
2.01818	34.52
2.03485	34.52
2.05152	34.52
2.06818	34.52
2.08485	34.52
2.10152	34.52
2.11818	34.52
2.13485	34.52
2.15152	34.52
2.16818	34.52
2.18485	34.52
2.20152	34.52
2.21818	34.52
2.23485	34.52
2.25152	34.52
2.26818	34.52
2.28485	34.52
2.30152	34.52
2.31818	34.52
2.33485	34.52
2.35152	34.52
2.36818	34.52
2.38485	34.52
2.40152	34.52
2.41818	34.52
2.43485	34.52
2.45152	34.52
2.46818	34.52
2.48485	34.52
2.50152	34.52
2.51818	34.52
2.53485	34.51
2.55152	34.52
2.56818	34.52
2.58485	34.52
2.60152	34.52
2.61818	34.52
2.63485	34.52
2.65152	34.52
2.66818	34.52
2.68485	34.52
2.70152	34.52
2.71818	34.52
2.73485	34.52
2.75152	34.52
2.76818	34.52
2.78485	34.52
2.80152	34.52
2.81818	34.52
2.83485	34.52
2.85152	34.52
2.86818	34.52
2.88485	34.52
2.90152	34.52
2.91818	34.52
2.93485	34.52
2.95152	34.52
2.96818	34.52
2.98485	34.52
3.00152	34.52
3.01818	34.52
3.03485	34.52
3.05152	34.52
3.06818	34.52
3.08485	34.52
3.10152	34.52
3.11818	34.52
3.13485	34.52
3.15152	34.52
3.16818	34.52
3.18485	34.52
3.20152	34.52
3.21818	34.52
3.23485	34.52
3.25152	34.52
3.26818	34.52
3.28485	34.52
3.30152	34.52
3.31818	34.52
3.33485	34.52
3.35152	34.52
3.36818	34.52
3.38485	34.52
3.40152	34.52
3.41818	34.52
3.43485	34.52
3.45152	34.52
3.46818	34.52
3.48485	34.52
3.50152	34.53
3.51818	34.52
3.53485	34.52
3.55152	34.52
3.56818	34.52
3.58485	34.51
3.60152	34.52
3.61818	34.52
3.63485	34.52
3.65152	34.52
3.66818	34.52
3.68485	34.52
3.70152	34.52
3.71818	34.52
3.73485	34.52
3.75152	34.52
3.76818	34.52
3.78485	34.52
3.80152	34.52
3.81818	34.52
3.83485	34.52
3.85152	34.52
3.86818	34.52
3.88485	34.52
3.90152	34.52
3.91818	34.52
3.93485	34.52
3.95152	34.52
3.96818	34.52
3.98485	34.52

[Status Trace (Column Flow)]
Interval(msec)	1000
# of Points	240
Start Time(min)	0.002
End Time(min)	3.985
Intensity Units	
Intensity Multiplier	1
R.Time (min)	Intensity
0.00152	5.44
0.01818	5.25
0.03485	5.22
0.05152	5.49
0.06818	5.66
0.08485	5.49
0.10152	5.43
0.11818	5.44
0.13485	5.44
0.15152	5.44
0.16818	5.44
0.18485	5.44
0.20152	5.44
0.21818	5.44
0.23485	5.44
0.25152	5.44
0.26818	5.44
0.28485	5.44
0.30152	5.44
0.31818	5.44
0.33485	5.44
0.35152	5.44
0.36818	5.44
0.38485	5.44
0.40152	5.44
0.41818	5.44
0.43485	5.44
0.45152	5.44
0.46818	5.44
0.48485	5.44
0.50152	5.44
0.51818	5.44
0.53485	5.44
0.55152	5.44
0.56818	5.44
0.58485	5.44
0.60152	5.44
0.61818	5.44
0.63485	5.44
0.65152	5.44
0.66818	5.44
0.68485	5.44
0.70152	5.44
0.71818	5.44
0.73485	5.44
0.75152	5.44
0.76818	5.44
0.78485	5.44
0.80152	5.44
0.81818	5.44
0.83485	5.44
0.85152	5.44
0.86818	5.44
0.88485	5.44
0.90152	5.44
0.91818	5.44
0.93485	5.44
0.95152	5.44
0.96818	5.44
0.98485	5.44
1.00152	5.44
1.01818	5.44
1.03485	5.44
1.05152	5.44
1.06818	5.44
1.08485	5.44
1.10152	5.44
1.11818	5.44
1.13485	5.44
1.15152	5.44
1.16818	5.44
1.18485	5.44
1.20152	5.44
1.21818	5.44
1.23485	5.44
1.25152	5.44
1.26818	5.44
1.28485	5.44
1.30152	5.44
1.31818	5.44
1.33485	5.44
1.35152	5.44
1.36818	5.44
1.38485	5.44
1.40152	5.44
1.41818	5.44
1.43485	5.44
1.45152	5.44
1.46818	5.44
1.48485	5.44
1.50152	5.44
1.51818	5.44
1.53485	5.44
1.55152	5.44
1.56818	5.44
1.58485	5.44
1.60152	5.44
1.61818	5.44
1.63485	5.43
1.65152	5.42
1.66818	5.41
1.68485	5.40
1.70152	5.39
1.71818	5.38
1.73485	5.37
1.75152	5.36
1.76818	5.35
1.78485	5.34
1.80152	5.33
1.81818	5.32
1.83485	5.31
1.85152	5.30
1.86818	5.29
1.88485	5.28
1.90152	5.27
1.91818	5.26
1.93485	5.25
1.95152	5.24
1.96818	5.23
1.98485	5.22
2.00152	5.21
2.01818	5.20
2.03485	5.19
2.05152	5.19
2.06818	5.18
2.08485	5.17
2.10152	5.16
2.11818	5.15
2.13485	5.14
2.15152	5.13
2.16818	5.12
2.18485	5.11
2.20152	5.10
2.21818	5.09
2.23485	5.08
2.25152	5.07
2.26818	5.06
2.28485	5.06
2.30152	5.05
2.31818	5.04
2.33485	5.03
2.35152	5.02
2.36818	5.01
2.38485	5.01
2.40152	5.01
2.41818	5.01
2.43485	5.01
2.45152	5.01
2.46818	5.01
2.48485	5.01
2.50152	5.01
2.51818	5.01
2.53485	5.01
2.55152	5.01
2.56818	5.01
2.58485	5.01
2.60152	5.01
2.61818	5.01
2.63485	5.01
2.65152	5.01
2.66818	5.01
2.68485	5.01
2.70152	5.01
2.71818	5.01
2.73485	5.01
2.75152	5.01
2.76818	5.01
2.78485	5.01
2.80152	5.01
2.81818	5.01
2.83485	5.00
2.85152	5.00
2.86818	5.00
2.88485	5.00
2.90152	5.00
2.91818	5.00
2.93485	5.00
2.95152	5.00
2.96818	5.00
2.98485	5.00
3.00152	5.00
3.01818	5.00
3.03485	5.00
3.05152	5.00
3.06818	5.00
3.08485	5.00
3.10152	5.00
3.11818	5.00
3.13485	5.00
3.15152	5.00
3.16818	5.00
3.18485	5.00
3.20152	5.00
3.21818	5.00
3.23485	5.00
3.25152	5.00
3.26818	5.00
3.28485	5.00
3.30152	5.00
3.31818	5.00
3.33485	5.00
3.35152	5.00
3.36818	5.00
3.38485	5.00
3.40152	5.00
3.41818	5.00
3.43485	5.00
3.45152	5.00
3.46818	5.00
3.48485	5.00
3.50152	5.00
3.51818	5.00
3.53485	5.00
3.55152	5.00
3.56818	5.00
3.58485	5.00
3.60152	5.00
3.61818	5.00
3.63485	5.00
3.65152	5.00
3.66818	5.00
3.68485	5.00
3.70152	5.00
3.71818	5.00
3.73485	5.00
3.75152	5.00
3.76818	5.00
3.78485	5.00
3.80152	5.00
3.81818	5.00
3.83485	5.00
3.85152	5.00
3.86818	5.00
3.88485	5.00
3.90152	5.00
3.91818	5.00
3.93485	5.00
3.95152	5.00
3.96818	5.00
3.98485	5.00

[Status Trace (Linear Velocity)]
Interval(msec)	1000
# of Points	240
Start Time(min)	0.002
End Time(min)	3.985
Intensity Units	
Intensity Multiplier	1
R.Time (min)	Intensity
0.00152	39.00
0.01818	37.95
0.03485	37.74
0.05152	39.27
0.06818	40.24
0.08485	39.27
0.10152	38.98
0.11818	39.00
0.13485	39.00
0.15152	39.00
0.16818	39.00
0.18485	39.00
0.20152	39.00
0.21818	39.00
0.23485	39.00
0.25152	39.00
0.26818	39.00
0.28485	39.00
0.30152	39.00
0.31818	39.00
0.33485	39.00
0.35152	39.00
0.36818	39.00
0.38485	39.00
0.40152	39.00
0.41818	39.00
0.43485	39.00
0.45152	39.00
0.46818	39.00
0.48485	39.00
0.50152	39.00
0.51818	39.00
0.53485	39.00
0.55152	39.00
0.56818	39.00
0.58485	39.00
0.60152	38.99
0.61818	39.00
0.63485	39.00
0.65152	39.00
0.66818	39.00
0.68485	39.00
0.70152	39.00
0.71818	38.99
0.73485	39.00
0.75152	39.00
0.76818	39.00
0.78485	39.00
0.80152	39.00
0.81818	39.00
0.83485	39.00
0.85152	39.00
0.86818	39.00
0.88485	39.00
0.90152	39.00
0.91818	39.00
0.93485	39.00
0.95152	39.00
0.96818	39.00
0.98485	39.00
1.00152	39.00
1.01818	39.00
1.03485	39.00
1.05152	39.00
1.06818	39.00
1.08485	39.00
1.10152	39.00
1.11818	39.00
1.13485	39.00
1.15152	39.00
1.16818	39.00
1.18485	39.00
1.20152	39.00
1.21818	39.00
1.23485	39.00
1.25152	39.00
1.26818	39.00
1.28485	39.00
1.30152	39.00
1.31818	39.00
1.33485	39.00
1.35152	39.00
1.36818	39.00
1.38485	39.00
1.40152	39.00
1.41818	39.00
1.43485	39.00
1.45152	39.00
1.46818	39.00
1.48485	39.00
1.50152	39.00
1.51818	39.00
1.53485	39.00
1.55152	39.00
1.56818	39.00
1.58485	39.00
1.60152	39.00
1.61818	38.99
1.63485	38.97
1.65152	38.95
1.66818	38.92
1.68485	38.89
1.70152	38.85
1.71818	38.81
1.73485	38.79
1.75152	38.76
1.76818	38.72
1.78485	38.69
1.80152	38.66
1.81818	38.63
1.83485	38.60
1.85152	38.57
1.86818	38.53
1.88485	38.51
1.90152	38.47
1.91818	38.44
1.93485	38.41
1.95152	38.38
1.96818	38.35
1.98485	38.32
2.00152	38.29
2.01818	38.26
2.03485	38.23
2.05152	38.20
2.06818	38.17
2.08485	38.14
2.10152	38.11
2.11818	38.08
2.13485	38.05
2.15152	38.02
2.16818	37.99
2.18485	37.97
2.20152	37.94
2.21818	37.90
2.23485	37.88
2.25152	37.85
2.26818	37.81
2.28485	37.79
2.30152	37.76
2.31818	37.73
2.33485	37.70
2.35152	37.67
2.36818	37.65
2.38485	37.64
2.40152	37.64
2.41818	37.64
2.43485	37.64
2.45152	37.64
2.46818	37.64
2.48485	37.64
2.50152	37.64
2.51818	37.64
2.53485	37.63
2.55152	37.64
2.56818	37.63
2.58485	37.63
2.60152	37.63
2.61818	37.63
2.63485	37.63
2.65152	37.63
2.66818	37.63
2.68485	37.63
2.70152	37.63
2.71818	37.63
2.73485	37.63
2.75152	37.63
2.76818	37.63
2.78485	37.63
2.80152	37.63
2.81818	37.63
2.83485	37.62
2.85152	37.62
2.86818	37.62
2.88485	37.62
2.90152	37.62
2.91818	37.62
2.93485	37.62
2.95152	37.62
2.96818	37.62
2.98485	37.62
3.00152	37.61
3.01818	37.61
3.03485	37.61
3.05152	37.61
3.06818	37.61
3.08485	37.61
3.10152	37.61
3.11818	37.61
3.13485	37.61
3.15152	37.61
3.16818	37.61
3.18485	37.61
3.20152	37.61
3.21818	37.61
3.23485	37.61
3.25152	37.60
3.26818	37.60
3.28485	37.61
3.30152	37.61
3.31818	37.61
3.33485	37.61
3.35152	37.61
3.36818	37.61
3.38485	37.61
3.40152	37.61
3.41818	37.61
3.43485	37.61
3.45152	37.61
3.46818	37.61
3.48485	37.61
3.50152	37.61
3.51818	37.61
3.53485	37.61
3.55152	37.61
3.56818	37.61
3.58485	37.60
3.60152	37.60
3.61818	37.61
3.63485	37.61
3.65152	37.61
3.66818	37.61
3.68485	37.61
3.70152	37.61
3.71818	37.61
3.73485	37.61
3.75152	37.61
3.76818	37.61
3.78485	37.61
3.80152	37.61
3.81818	37.61
3.83485	37.61
3.85152	37.61
3.86818	37.61
3.88485	37.61
3.90152	37.61
3.91818	37.61
3.93485	37.61
3.95152	37.61
3.96818	37.61
3.98485	37.61

