[Header]
Application Name	LabSolutions
Version	5.110
Data File Name	C:\Users\User\Desktop\GC Analyses\Jack\UIC Prairie Sampling\9.30.22\220930_092.gcd
Output Date	1/4/2023
Output Time	2:27:54 PM

[File Information]
Type	Data File
Generated	12/2/2022 3:15:22 PM
Generated by	System Administrator
Modified	12/2/2022 3:20:41 PM
Modified by	System Administrator

[Sample Information]
Operator Name	System Administrator
Acquired	12/2/2022 3:16:40 PM
Sample Type	1:Standard
Level	1
Sample Name	220930_UICPrairie
Sample ID	220930_UICPrairie
ISTD Amount1	1
ISTD Amount2	1
ISTD Amount3	1
ISTD Amount4	1
ISTD Amount5	1
ISTD Amount6	1
ISTD Amount7	1
ISTD Amount8	1
ISTD Amount9	1
ISTD Amount10	1
ISTD Amount11	1
ISTD Amount12	1
ISTD Amount13	1
ISTD Amount14	1
ISTD Amount15	1
ISTD Amount16	1
ISTD Amount17	1
ISTD Amount18	1
ISTD Amount19	1
ISTD Amount20	1
ISTD Amount21	1
ISTD Amount22	1
ISTD Amount23	1
ISTD Amount24	1
ISTD Amount25	1
ISTD Amount26	1
ISTD Amount27	1
ISTD Amount28	1
ISTD Amount29	1
ISTD Amount30	1
ISTD Amount31	1
ISTD Amount32	1
Sample Amount	1
Dilution Factor	1
Vial#	1
Injection Volume	1
Injection Count	1
Bar Code	

[Original Files]
Data File	C:\Users\User\Desktop\GC Analyses\Jack\UIC Prairie Sampling\9.30.22\220930_092.gcd
Method File	C:\LabSolutions\Data\GHG_4min_2022\ghg3_togas_w_acet_4 min_new_int.gcm
Batch File	
Report Format File	c:\LabSolutions\System\DEFAULT.lsr

[File Description]


[Configuration]
Instrument Name	C0B7VH3-Instrument1
Instrument #	1
Line #	1
# of Detectors	3
Detector ID	DET#1	DET#2	DET#3
Detector Name	FID	PTCD	ECD
# of Channels	1	1	1

[Peak Table(Ch1)]
# of Peaks	3
Peak#	R.Time	I.Time	F.Time	Area	Height	A/H	Conc.	Mark	ID#	Name	k'	Plate #	Plate Ht.	Tailing	Resolution	Sep.Factor	Area Ratio	Height Ratio	Conc. %	Norm Conc.
1	1.479	1.439	1.538	15325	6984	2.194	100.000	   	1	CO	0.000	8675	17.292	1.221	0.000	0.000	0	0	16.667	16.667
2	1.571	1.538	1.633	5307	2651	2.002	100.000	 V 	2	CH4	0.062	11198	13.395	0.000	1.492	0.000	0	0	16.667	16.667
3	2.000	1.952	2.499	1435367	688608	2.084	400.000	   	3	CO2	0.352	17466	8.588	1.268	7.155	5.680	0	0	66.667	66.667

[Peak Table(Ch2)]
# of Peaks	0

[Peak Table(Ch3)]
# of Peaks	5
Peak#	R.Time	I.Time	F.Time	Area	Height	A/H	Conc.	Mark	ID#	Name	k'	Plate #	Plate Ht.	Tailing	Resolution	Sep.Factor	Area Ratio	Height Ratio	Conc. %	Norm Conc.
1	2.469	1.919	2.477	1458	282	5.177	0.000	   			0.000	1986	75.512	0.000	0.000	0.000	0	0	0.000	0.000
2	2.510	2.477	2.521	906	388	2.332	0.000	 V 			0.016	558	268.644	0.000	0.125	0.000	0	0	0.000	0.000
3	2.576	2.521	2.660	2826	463	6.098	0.000	 V 			0.043	1212	123.746	0.000	0.183	2.636	0	0	0.000	0.000
4	2.752	2.660	2.814	1648	229	7.184	0.053	 V 	1	N2O	0.114	254	591.031	0.000	0.357	2.655	0	0	5.269	5.269
5	2.891	2.814	3.786	29640	5548	5.342	0.947	 V 	1	N2O	0.171	12625	11.881	3.376	0.351	1.494	0	0	94.731	94.731

[Compound Results(Ch1)]
# of IDs	6
ID#	Name	R.Time	Area	Height	Conc.	Curve	3rd	2nd	1st	Constant	Area Ratio	Height Ratio	Conc. %	Norm Conc.
1	CO	1.479	15325	6984	100.000	Linear	0.000000e+00	0.000000e+00	1.532509e+002	0.000000e+00	0	0	16.667	16.667
2	CH4	1.571	5307	2651	100.000	Linear	0.000000e+00	0.000000e+00	5.307311e+001	0.000000e+00	0	0	16.667	16.667
3	CO2	2.000	1435367	688608	400.000	Linear	0.000000e+00	0.000000e+00	3.588417e+003	0.000000e+00	0	0	66.667	66.667
4	Ethylene	0.000	0	0	0.000	Linear	0.000000e+00	0.000000e+00	0.000000e+00	0.000000e+00	0	0	0.000	0.000
5	Acetylene	0.000	0	0	0.000	Linear	0.000000e+00	0.000000e+00	0.000000e+00	0.000000e+00	0	0	0.000	0.000
6	Ethane	0.000	0	0	0.000	Linear	0.000000e+00	0.000000e+00	0.000000e+00	0.000000e+00	0	0	0.000	0.000

[Compound Results(Ch2)]
# of IDs	5
ID#	Name	R.Time	Area	Height	Conc.	Curve	3rd	2nd	1st	Constant	Area Ratio	Height Ratio	Conc. %	Norm Conc.
1	Hydrogen	0.000	0	0	0.000	Linear	0.000000e+00	0.000000e+00	0.000000e+00	0.000000e+00	0	0	0.000	0.000
2	Oxygen	0.000	0	0	0.000	Linear	0.000000e+00	0.000000e+00	0.000000e+00	0.000000e+00	0	0	0.000	0.000
3	Nitrogen	0.000	0	0	0.000	Linear	0.000000e+00	0.000000e+00	0.000000e+00	0.000000e+00	0	0	0.000	0.000
4	Methane	0.000	0	0	0.000	Linear	0.000000e+00	0.000000e+00	0.000000e+00	0.000000e+00	0	0	0.000	0.000
5	Carbon Monoxide	0.000	0	0	0.000	Linear	0.000000e+00	0.000000e+00	0.000000e+00	0.000000e+00	0	0	0.000	0.000

[Compound Results(Ch3)]
# of IDs	2
ID#	Name	R.Time	Area	Height	Conc.	Curve	3rd	2nd	1st	Constant	Area Ratio	Height Ratio	Conc. %	Norm Conc.
1	N2O	2.891	31288	5778	1.000	Linear	0.000000e+00	0.000000e+00	3.128805e+004	0.000000e+00	0	0	100.000	100.000
2	SF6	0.000	0	0	0.000	Linear	0.000000e+00	0.000000e+00	0.000000e+00	0.000000e+00	0	0	0.000	0.000

[Group Results(Ch1)]
# of Groups	0

[Group Results(Ch2)]
# of Groups	0

[Group Results(Ch3)]
# of Groups	0

[Chromatogram (Ch1)]
Interval(msec)	220
# of Points	1091
Start Time(min)	0.002
End Time(min)	3.998
R.Time (min)	Intensity
0.00167	-7
0.00533	-2
0.00900	0
0.01267	2
0.01633	4
0.02000	6
0.02367	10
0.02733	13
0.03100	15
0.03467	15
0.03833	13
0.04200	9
0.04567	7
0.04933	7
0.05300	10
0.05667	13
0.06033	14
0.06400	16
0.06767	15
0.07133	6
0.07500	-3
0.07867	-8
0.08233	-10
0.08600	-9
0.08967	-7
0.09333	-6
0.09700	-6
0.10067	-8
0.10433	-8
0.10800	-7
0.11167	-6
0.11533	-2
0.11900	3
0.12267	9
0.12633	14
0.13000	17
0.13367	19
0.13733	19
0.14100	16
0.14467	12
0.14833	5
0.15200	-5
0.15567	-20
0.15933	-28
0.16300	-27
0.16667	-23
0.17033	-19
0.17400	-18
0.17767	-19
0.18133	-20
0.18500	-23
0.18867	-24
0.19233	-23
0.19600	-19
0.19967	-18
0.20333	-20
0.20700	-19
0.21067	-14
0.21433	-3
0.21800	9
0.22167	14
0.22533	10
0.22900	4
0.23267	2
0.23633	4
0.24000	9
0.24367	11
0.24733	11
0.25100	7
0.25467	1
0.25833	-5
0.26200	-8
0.26567	-9
0.26933	-7
0.27300	-2
0.27667	5
0.28033	8
0.28400	9
0.28767	7
0.29133	4
0.29500	-0
0.29867	-6
0.30233	-11
0.30600	-13
0.30967	-13
0.31333	-13
0.31700	-14
0.32067	-16
0.32433	-16
0.32800	-15
0.33167	-15
0.33533	-17
0.33900	-18
0.34267	-16
0.34633	-11
0.35000	-3
0.35367	1
0.35733	5
0.36100	11
0.36467	13
0.36833	14
0.37200	15
0.37567	17
0.37933	16
0.38300	13
0.38667	9
0.39033	4
0.39400	-6
0.39767	-14
0.40133	-19
0.40500	-22
0.40867	-22
0.41233	-20
0.41600	-19
0.41967	-20
0.42333	-21
0.42700	-22
0.43067	-23
0.43433	-22
0.43800	-22
0.44167	-23
0.44533	-25
0.44900	-26
0.45267	-26
0.45633	-25
0.46000	-24
0.46367	-27
0.46733	-28
0.47100	-27
0.47467	-26
0.47833	-24
0.48200	-20
0.48567	-15
0.48933	-14
0.49300	-15
0.49667	-13
0.50033	-10
0.50400	-7
0.50767	-8
0.51133	-12
0.51500	-14
0.51867	-17
0.52233	-17
0.52600	-18
0.52967	-18
0.53333	-19
0.53700	-17
0.54067	-15
0.54433	-16
0.54800	-19
0.55167	-23
0.55533	-25
0.55900	-25
0.56267	-27
0.56633	-30
0.57000	-29
0.57367	-29
0.57733	-26
0.58100	-21
0.58467	-19
0.58833	-19
0.59200	-22
0.59567	-25
0.59933	-28
0.60300	-31
0.60667	-32
0.61033	-29
0.61400	-28
0.61767	-27
0.62133	-26
0.62500	-22
0.62867	-17
0.63233	-16
0.63600	-20
0.63967	-20
0.64333	-16
0.64700	-11
0.65067	-11
0.65433	-15
0.65800	-20
0.66167	-23
0.66533	-25
0.66900	-26
0.67267	-28
0.67633	-27
0.68000	-25
0.68367	-22
0.68733	-21
0.69100	-23
0.69467	-25
0.69833	-27
0.70200	-27
0.70567	-24
0.70933	-21
0.71300	-23
0.71667	-27
0.72033	-32
0.72400	-35
0.72767	-37
0.73133	-39
0.73500	-39
0.73867	-37
0.74233	-34
0.74600	-31
0.74967	-28
0.75333	-25
0.75700	-22
0.76067	-20
0.76433	-21
0.76800	-25
0.77167	-30
0.77533	-33
0.77900	-37
0.78267	-39
0.78633	-41
0.79000	-45
0.79367	-47
0.79733	-44
0.80100	-39
0.80467	-33
0.80833	-31
0.81200	-33
0.81567	-36
0.81933	-40
0.82300	-42
0.82667	-43
0.83033	-44
0.83400	-43
0.83767	-43
0.84133	-42
0.84500	-38
0.84867	-33
0.85233	-25
0.85600	-21
0.85967	-18
0.86333	-14
0.86700	-8
0.87067	-4
0.87433	-6
0.87800	-11
0.88167	-14
0.88533	-21
0.88900	-32
0.89267	-43
0.89633	-52
0.90000	-56
0.90367	-56
0.90733	-55
0.91100	-53
0.91467	-49
0.91833	-46
0.92200	-43
0.92567	-42
0.92933	-40
0.93300	-37
0.93667	-37
0.94033	-38
0.94400	-38
0.94767	-37
0.95133	-39
0.95500	-40
0.95867	-40
0.96233	-38
0.96600	-35
0.96967	-32
0.97333	-28
0.97700	-24
0.98067	-20
0.98433	-20
0.98800	-25
0.99167	-34
0.99533	-43
0.99900	-46
1.00267	-43
1.00633	-39
1.01000	-36
1.01367	-38
1.01733	-39
1.02100	-38
1.02467	-34
1.02833	-28
1.03200	-21
1.03567	-15
1.03933	-15
1.04300	-19
1.04667	-27
1.05033	-38
1.05400	-48
1.05767	-52
1.06133	-55
1.06500	-57
1.06867	-58
1.07233	-56
1.07600	-52
1.07967	-50
1.08333	-47
1.08700	-41
1.09067	-37
1.09433	-39
1.09800	-43
1.10167	-48
1.10533	-54
1.10900	-58
1.11267	-59
1.11633	-55
1.12000	-55
1.12367	-61
1.12733	-67
1.13100	-67
1.13467	-63
1.13833	-60
1.14200	-59
1.14567	-57
1.14933	-50
1.15300	-44
1.15667	-40
1.16033	-38
1.16400	-38
1.16767	-39
1.17133	-43
1.17500	-45
1.17867	-45
1.18233	-45
1.18600	-48
1.18967	-53
1.19333	-54
1.19700	-53
1.20067	-52
1.20433	-47
1.20800	-39
1.21167	-33
1.21533	-36
1.21900	-44
1.22267	-53
1.22633	-58
1.23000	-59
1.23367	-61
1.23733	-64
1.24100	-66
1.24467	-65
1.24833	-61
1.25200	-54
1.25567	-47
1.25933	-42
1.26300	-39
1.26667	-40
1.27033	-41
1.27400	-45
1.27767	-49
1.28133	-50
1.28500	-50
1.28867	-53
1.29233	-58
1.29600	-64
1.29967	-70
1.30333	-70
1.30700	-67
1.31067	-65
1.31433	-64
1.31800	-64
1.32167	-63
1.32533	-61
1.32900	-61
1.33267	-61
1.33633	-61
1.34000	-63
1.34367	-63
1.34733	-65
1.35100	-67
1.35467	-69
1.35833	-70
1.36200	-68
1.36567	-65
1.36933	-59
1.37300	-52
1.37667	-49
1.38033	-52
1.38400	-59
1.38767	-67
1.39133	-71
1.39500	-72
1.39867	-70
1.40233	-68
1.40600	-67
1.40967	-64
1.41333	-64
1.41700	-64
1.42067	-66
1.42433	-68
1.42800	-70
1.43167	-72
1.43533	-72
1.43900	-65
1.44267	-22
1.44633	129
1.45000	427
1.45367	951
1.45733	1838
1.46100	3045
1.46467	4327
1.46833	5453
1.47200	6300
1.47567	6810
1.47933	6924
1.48300	6601
1.48667	5886
1.49033	4924
1.49400	3898
1.49767	2959
1.50133	2181
1.50500	1583
1.50867	1141
1.51233	823
1.51600	597
1.51967	433
1.52333	313
1.52700	229
1.53067	172
1.53433	130
1.53800	102
1.54167	109
1.54533	203
1.54900	452
1.55267	868
1.55633	1372
1.56000	1858
1.56367	2251
1.56733	2509
1.57100	2603
1.57467	2505
1.57833	2227
1.58200	1826
1.58567	1394
1.58933	1005
1.59300	693
1.59667	459
1.60033	293
1.60400	182
1.60767	106
1.61133	53
1.61500	18
1.61867	-5
1.62233	-20
1.62600	-29
1.62967	-36
1.63333	-40
1.63700	-42
1.64067	-45
1.64433	-49
1.64800	-54
1.65167	-59
1.65533	-60
1.65900	-57
1.66267	-57
1.66633	-62
1.67000	-68
1.67367	-74
1.67733	-75
1.68100	-72
1.68467	-67
1.68833	-65
1.69200	-65
1.69567	-66
1.69933	-65
1.70300	-65
1.70667	-62
1.71033	-59
1.71400	-58
1.71767	-63
1.72133	-71
1.72500	-78
1.72867	-78
1.73233	-71
1.73600	-59
1.73967	-50
1.74333	-50
1.74700	-58
1.75067	-64
1.75433	-67
1.75800	-68
1.76167	-67
1.76533	-66
1.76900	-67
1.77267	-65
1.77633	-64
1.78000	-68
1.78367	-77
1.78733	-85
1.79100	-89
1.79467	-89
1.79833	-83
1.80200	-76
1.80567	-71
1.80933	-68
1.81300	-66
1.81667	-66
1.82033	-70
1.82400	-77
1.82767	-81
1.83133	-84
1.83500	-86
1.83867	-88
1.84233	-86
1.84600	-84
1.84967	-81
1.85333	-78
1.85700	-76
1.86067	-73
1.86433	-68
1.86800	-65
1.87167	-65
1.87533	-67
1.87900	-68
1.88267	-65
1.88633	-60
1.89000	-56
1.89367	-56
1.89733	-58
1.90100	-62
1.90467	-71
1.90833	-77
1.91200	-78
1.91567	-73
1.91933	-67
1.92300	-61
1.92667	-56
1.93033	-51
1.93400	-50
1.93767	-54
1.94133	-59
1.94500	-64
1.94867	-64
1.95233	-57
1.95600	-30
1.95967	125
1.96333	969
1.96700	4673
1.97067	17070
1.97433	48852
1.97800	112119
1.98167	211321
1.98533	336659
1.98900	467140
1.99267	580133
1.99633	657714
2.00000	688582
2.00367	669333
2.00733	606237
2.01100	513910
2.01467	410548
2.01833	312091
2.02200	228328
2.02567	162662
2.02933	114097
2.03300	79591
2.03667	55714
2.04033	39451
2.04400	28455
2.04767	21022
2.05133	15970
2.05500	12490
2.05867	10051
2.06233	8305
2.06600	7029
2.06967	6076
2.07333	5347
2.07700	4773
2.08067	4310
2.08433	3926
2.08800	3602
2.09167	3329
2.09533	3099
2.09900	2902
2.10267	2727
2.10633	2569
2.11000	2429
2.11367	2302
2.11733	2186
2.12100	2080
2.12467	1986
2.12833	1902
2.13200	1823
2.13567	1745
2.13933	1668
2.14300	1595
2.14667	1524
2.15033	1462
2.15400	1414
2.15767	1372
2.16133	1334
2.16500	1293
2.16867	1248
2.17233	1202
2.17600	1161
2.17967	1129
2.18333	1104
2.18700	1081
2.19067	1055
2.19433	1024
2.19800	992
2.20167	960
2.20533	929
2.20900	901
2.21267	874
2.21633	854
2.22000	839
2.22367	823
2.22733	807
2.23100	788
2.23467	769
2.23833	751
2.24200	735
2.24567	722
2.24933	712
2.25300	707
2.25667	702
2.26033	690
2.26400	675
2.26767	660
2.27133	643
2.27500	628
2.27867	612
2.28233	596
2.28600	584
2.28967	575
2.29333	566
2.29700	554
2.30067	543
2.30433	533
2.30800	526
2.31167	517
2.31533	509
2.31900	503
2.32267	500
2.32633	498
2.33000	494
2.33367	486
2.33733	476
2.34100	467
2.34467	462
2.34833	456
2.35200	447
2.35567	435
2.35933	423
2.36300	416
2.36667	417
2.37033	420
2.37400	419
2.37767	412
2.38133	400
2.38500	389
2.38867	381
2.39233	377
2.39600	380
2.39967	382
2.40333	382
2.40700	379
2.41067	377
2.41433	376
2.41800	374
2.42167	370
2.42533	365
2.42900	361
2.43267	358
2.43633	352
2.44000	338
2.44367	324
2.44733	313
2.45100	305
2.45467	300
2.45833	298
2.46200	299
2.46567	303
2.46933	308
2.47300	312
2.47667	316
2.48033	318
2.48400	319
2.48767	317
2.49133	312
2.49500	307
2.49867	300
2.50233	293
2.50600	289
2.50967	286
2.51333	286
2.51700	287
2.52067	286
2.52433	288
2.52800	292
2.53167	295
2.53533	292
2.53900	286
2.54267	280
2.54633	276
2.55000	271
2.55367	266
2.55733	261
2.56100	255
2.56467	253
2.56833	254
2.57200	252
2.57567	249
2.57933	248
2.58300	247
2.58667	244
2.59033	240
2.59400	238
2.59767	240
2.60133	245
2.60500	247
2.60867	247
2.61233	246
2.61600	245
2.61967	243
2.62333	242
2.62700	239
2.63067	235
2.63433	232
2.63800	229
2.64167	225
2.64533	223
2.64900	226
2.65267	229
2.65633	230
2.66000	227
2.66367	221
2.66733	215
2.67100	210
2.67467	207
2.67833	207
2.68200	209
2.68567	213
2.68933	213
2.69300	211
2.69667	209
2.70033	207
2.70400	206
2.70767	206
2.71133	206
2.71500	205
2.71867	203
2.72233	202
2.72600	199
2.72967	194
2.73333	189
2.73700	186
2.74067	183
2.74433	180
2.74800	178
2.75167	177
2.75533	174
2.75900	172
2.76267	170
2.76633	169
2.77000	174
2.77367	185
2.77733	193
2.78100	196
2.78467	197
2.78833	194
2.79200	189
2.79567	182
2.79933	175
2.80300	166
2.80667	157
2.81033	152
2.81400	152
2.81767	153
2.82133	155
2.82500	158
2.82867	162
2.83233	167
2.83600	171
2.83967	173
2.84333	175
2.84700	174
2.85067	171
2.85433	167
2.85800	161
2.86167	158
2.86533	159
2.86900	162
2.87267	164
2.87633	164
2.88000	161
2.88367	158
2.88733	157
2.89100	157
2.89467	157
2.89833	155
2.90200	153
2.90567	151
2.90933	150
2.91300	153
2.91667	158
2.92033	165
2.92400	171
2.92767	177
2.93133	179
2.93500	177
2.93867	172
2.94233	167
2.94600	163
2.94967	158
2.95333	153
2.95700	148
2.96067	144
2.96433	143
2.96800	143
2.97167	144
2.97533	150
2.97900	162
2.98267	175
2.98633	182
2.99000	184
2.99367	185
2.99733	189
3.00100	194
3.00467	197
3.00833	198
3.01200	194
3.01567	185
3.01933	181
3.02300	183
3.02667	186
3.03033	186
3.03400	180
3.03767	171
3.04133	161
3.04500	154
3.04867	152
3.05233	153
3.05600	155
3.05967	158
3.06333	161
3.06700	164
3.07067	165
3.07433	161
3.07800	158
3.08167	156
3.08533	153
3.08900	146
3.09267	139
3.09633	135
3.10000	139
3.10367	146
3.10733	150
3.11100	150
3.11467	148
3.11833	148
3.12200	150
3.12567	156
3.12933	162
3.13300	169
3.13667	175
3.14033	174
3.14400	168
3.14767	163
3.15133	158
3.15500	155
3.15867	156
3.16233	156
3.16600	154
3.16967	149
3.17333	146
3.17700	148
3.18067	154
3.18433	163
3.18800	169
3.19167	172
3.19533	167
3.19900	156
3.20267	144
3.20633	134
3.21000	128
3.21367	124
3.21733	123
3.22100	124
3.22467	127
3.22833	130
3.23200	133
3.23567	138
3.23933	143
3.24300	149
3.24667	153
3.25033	153
3.25400	153
3.25767	154
3.26133	153
3.26500	150
3.26867	145
3.27233	140
3.27600	136
3.27967	136
3.28333	139
3.28700	139
3.29067	135
3.29433	132
3.29800	131
3.30167	131
3.30533	128
3.30900	120
3.31267	111
3.31633	105
3.32000	102
3.32367	104
3.32733	111
3.33100	121
3.33467	130
3.33833	134
3.34200	138
3.34567	142
3.34933	143
3.35300	143
3.35667	141
3.36033	136
3.36400	128
3.36767	120
3.37133	115
3.37500	113
3.37867	114
3.38233	116
3.38600	120
3.38967	125
3.39333	127
3.39700	125
3.40067	125
3.40433	124
3.40800	123
3.41167	121
3.41533	120
3.41900	120
3.42267	122
3.42633	122
3.43000	121
3.43367	118
3.43733	113
3.44100	107
3.44467	102
3.44833	101
3.45200	107
3.45567	114
3.45933	118
3.46300	121
3.46667	117
3.47033	104
3.47400	81
3.47767	-85
3.48133	-156
3.48500	-125
3.48867	-70
3.49233	-19
3.49600	19
3.49967	48
3.50333	70
3.50700	87
3.51067	99
3.51433	106
3.51800	109
3.52167	110
3.52533	111
3.52900	113
3.53267	113
3.53633	109
3.54000	106
3.54367	104
3.54733	100
3.55100	95
3.55467	91
3.55833	92
3.56200	96
3.56567	100
3.56933	104
3.57300	106
3.57667	105
3.58033	103
3.58400	98
3.58767	92
3.59133	88
3.59500	86
3.59867	85
3.60233	82
3.60600	78
3.60967	75
3.61333	76
3.61700	77
3.62067	79
3.62433	83
3.62800	89
3.63167	92
3.63533	93
3.63900	95
3.64267	98
3.64633	98
3.65000	94
3.65367	91
3.65733	88
3.66100	82
3.66467	75
3.66833	71
3.67200	69
3.67567	68
3.67933	70
3.68300	75
3.68667	77
3.69033	80
3.69400	85
3.69767	90
3.70133	95
3.70500	98
3.70867	97
3.71233	96
3.71600	98
3.71967	98
3.72333	94
3.72700	87
3.73067	82
3.73433	77
3.73800	74
3.74167	75
3.74533	78
3.74900	77
3.75267	72
3.75633	68
3.76000	66
3.76367	65
3.76733	66
3.77100	67
3.77467	68
3.77833	68
3.78200	64
3.78567	58
3.78933	55
3.79300	56
3.79667	59
3.80033	62
3.80400	63
3.80767	64
3.81133	67
3.81500	71
3.81867	74
3.82233	75
3.82600	72
3.82967	64
3.83333	58
3.83700	60
3.84067	62
3.84433	64
3.84800	65
3.85167	70
3.85533	77
3.85900	79
3.86267	76
3.86633	72
3.87000	65
3.87367	56
3.87733	49
3.88100	46
3.88467	46
3.88833	49
3.89200	52
3.89567	56
3.89933	63
3.90300	72
3.90667	79
3.91033	80
3.91400	78
3.91767	74
3.92133	72
3.92500	70
3.92867	67
3.93233	67
3.93600	69
3.93967	71
3.94333	70
3.94700	68
3.95067	67
3.95433	67
3.95800	67
3.96167	63
3.96533	57
3.96900	55
3.97267	54
3.97633	53
3.98000	50
3.98367	44
3.98733	39
3.99100	35
3.99467	37
3.99833	44

[Chromatogram (Ch2)]
Interval(msec)	220
# of Points	1091
Start Time(min)	0.002
End Time(min)	3.998
R.Time (min)	Intensity
0.00167	-0
0.00533	-1
0.00900	-1
0.01267	-1
0.01633	-1
0.02000	-0
0.02367	-0
0.02733	-0
0.03100	0
0.03467	0
0.03833	0
0.04200	0
0.04567	-0
0.04933	-0
0.05300	-1
0.05667	-1
0.06033	-1
0.06400	-1
0.06767	-1
0.07133	-1
0.07500	-1
0.07867	-1
0.08233	-1
0.08600	-1
0.08967	-1
0.09333	-1
0.09700	-1
0.10067	-1
0.10433	-1
0.10800	-1
0.11167	-1
0.11533	-0
0.11900	-0
0.12267	-1
0.12633	-1
0.13000	-1
0.13367	-0
0.13733	-0
0.14100	-0
0.14467	-0
0.14833	-0
0.15200	-0
0.15567	-0
0.15933	-0
0.16300	-0
0.16667	-0
0.17033	-0
0.17400	-1
0.17767	-1
0.18133	-1
0.18500	-2
0.18867	-2
0.19233	-2
0.19600	-2
0.19967	-2
0.20333	-1
0.20700	-1
0.21067	-1
0.21433	-1
0.21800	-1
0.22167	-1
0.22533	-1
0.22900	-1
0.23267	-0
0.23633	-0
0.24000	0
0.24367	0
0.24733	0
0.25100	0
0.25467	0
0.25833	0
0.26200	-0
0.26567	-0
0.26933	-0
0.27300	-0
0.27667	-0
0.28033	-1
0.28400	-1
0.28767	-1
0.29133	-1
0.29500	-2
0.29867	-2
0.30233	-2
0.30600	-2
0.30967	-2
0.31333	-2
0.31700	-2
0.32067	-2
0.32433	-2
0.32800	-2
0.33167	-2
0.33533	-2
0.33900	-1
0.34267	-1
0.34633	-1
0.35000	-1
0.35367	-1
0.35733	-1
0.36100	-1
0.36467	-1
0.36833	-2
0.37200	-2
0.37567	-2
0.37933	-2
0.38300	-2
0.38667	-2
0.39033	-2
0.39400	-2
0.39767	-2
0.40133	-2
0.40500	-2
0.40867	-2
0.41233	-2
0.41600	-2
0.41967	-1
0.42333	-1
0.42700	-1
0.43067	-1
0.43433	-1
0.43800	-0
0.44167	-0
0.44533	-0
0.44900	-0
0.45267	-0
0.45633	-0
0.46000	-0
0.46367	-0
0.46733	-0
0.47100	-0
0.47467	-0
0.47833	-0
0.48200	-0
0.48567	-0
0.48933	-0
0.49300	-0
0.49667	-0
0.50033	-0
0.50400	-0
0.50767	-0
0.51133	-1
0.51500	-1
0.51867	-1
0.52233	-1
0.52600	-1
0.52967	-1
0.53333	-1
0.53700	-1
0.54067	-1
0.54433	-1
0.54800	-1
0.55167	-1
0.55533	-1
0.55900	-1
0.56267	-1
0.56633	-1
0.57000	-1
0.57367	-1
0.57733	-1
0.58100	-1
0.58467	-1
0.58833	-1
0.59200	-1
0.59567	-1
0.59933	-1
0.60300	-1
0.60667	-2
0.61033	-2
0.61400	-2
0.61767	-2
0.62133	-2
0.62500	-2
0.62867	-1
0.63233	-1
0.63600	-1
0.63967	-1
0.64333	-1
0.64700	-1
0.65067	-1
0.65433	-1
0.65800	-1
0.66167	-1
0.66533	-1
0.66900	-1
0.67267	-1
0.67633	-1
0.68000	-2
0.68367	-2
0.68733	-2
0.69100	-2
0.69467	-3
0.69833	-3
0.70200	-3
0.70567	-3
0.70933	-3
0.71300	-2
0.71667	-2
0.72033	-2
0.72400	-3
0.72767	-3
0.73133	-3
0.73500	-3
0.73867	-3
0.74233	-3
0.74600	-2
0.74967	-2
0.75333	-2
0.75700	-2
0.76067	-2
0.76433	-2
0.76800	-3
0.77167	-3
0.77533	-3
0.77900	-3
0.78267	-3
0.78633	-3
0.79000	-3
0.79367	-2
0.79733	-2
0.80100	-2
0.80467	-2
0.80833	-2
0.81200	-2
0.81567	-2
0.81933	-2
0.82300	-2
0.82667	-2
0.83033	-2
0.83400	-2
0.83767	-2
0.84133	-2
0.84500	-2
0.84867	-2
0.85233	-2
0.85600	-2
0.85967	-2
0.86333	-2
0.86700	-2
0.87067	-1
0.87433	-1
0.87800	-1
0.88167	-1
0.88533	-0
0.88900	-0
0.89267	0
0.89633	0
0.90000	0
0.90367	0
0.90733	0
0.91100	-0
0.91467	-0
0.91833	-0
0.92200	-1
0.92567	-1
0.92933	-1
0.93300	-1
0.93667	-1
0.94033	-1
0.94400	-2
0.94767	-2
0.95133	-2
0.95500	-2
0.95867	-2
0.96233	-2
0.96600	-2
0.96967	-2
0.97333	-2
0.97700	-2
0.98067	-2
0.98433	-1
0.98800	-1
0.99167	-1
0.99533	-1
0.99900	-1
1.00267	-1
1.00633	-1
1.01000	-1
1.01367	-1
1.01733	-1
1.02100	-1
1.02467	-1
1.02833	-1
1.03200	-2
1.03567	-2
1.03933	-2
1.04300	-2
1.04667	-2
1.05033	-1
1.05400	-1
1.05767	-1
1.06133	-1
1.06500	-1
1.06867	-1
1.07233	-1
1.07600	-1
1.07967	-1
1.08333	-1
1.08700	-2
1.09067	-2
1.09433	-2
1.09800	-2
1.10167	-3
1.10533	-3
1.10900	-3
1.11267	-3
1.11633	-3
1.12000	-3
1.12367	-3
1.12733	-3
1.13100	-3
1.13467	-3
1.13833	-3
1.14200	-3
1.14567	-3
1.14933	-3
1.15300	-3
1.15667	-3
1.16033	-3
1.16400	-3
1.16767	-3
1.17133	-3
1.17500	-2
1.17867	-2
1.18233	-2
1.18600	-2
1.18967	-2
1.19333	-2
1.19700	-3
1.20067	-3
1.20433	-3
1.20800	-3
1.21167	-3
1.21533	-3
1.21900	-3
1.22267	-3
1.22633	-3
1.23000	-3
1.23367	-3
1.23733	-3
1.24100	-3
1.24467	-3
1.24833	-2
1.25200	-2
1.25567	-2
1.25933	-2
1.26300	-2
1.26667	-2
1.27033	-2
1.27400	-2
1.27767	-2
1.28133	-2
1.28500	-2
1.28867	-2
1.29233	-2
1.29600	-2
1.29967	-1
1.30333	-1
1.30700	-2
1.31067	-2
1.31433	-2
1.31800	-2
1.32167	-2
1.32533	-2
1.32900	-2
1.33267	-2
1.33633	-2
1.34000	-2
1.34367	-2
1.34733	-2
1.35100	-2
1.35467	-2
1.35833	-2
1.36200	-2
1.36567	-2
1.36933	-3
1.37300	-3
1.37667	-3
1.38033	-4
1.38400	-4
1.38767	-4
1.39133	-4
1.39500	-4
1.39867	-4
1.40233	-4
1.40600	-4
1.40967	-4
1.41333	-3
1.41700	-3
1.42067	-3
1.42433	-3
1.42800	-3
1.43167	-3
1.43533	-3
1.43900	-3
1.44267	-3
1.44633	-3
1.45000	-3
1.45367	-3
1.45733	-3
1.46100	-3
1.46467	-3
1.46833	-3
1.47200	-3
1.47567	-4
1.47933	-4
1.48300	-4
1.48667	-4
1.49033	-4
1.49400	-4
1.49767	-4
1.50133	-4
1.50500	-3
1.50867	-3
1.51233	-3
1.51600	-3
1.51967	-3
1.52333	-3
1.52700	-3
1.53067	-3
1.53433	-3
1.53800	-3
1.54167	-3
1.54533	-3
1.54900	-4
1.55267	-4
1.55633	-4
1.56000	-4
1.56367	-5
1.56733	-5
1.57100	-5
1.57467	-5
1.57833	-4
1.58200	-4
1.58567	-4
1.58933	-4
1.59300	-4
1.59667	-4
1.60033	-5
1.60400	-6
1.60767	-7
1.61133	-9
1.61500	-10
1.61867	-13
1.62233	-15
1.62600	-18
1.62967	-21
1.63333	-24
1.63700	-27
1.64067	-31
1.64433	-34
1.64800	-38
1.65167	-41
1.65533	-45
1.65900	-49
1.66267	-53
1.66633	-58
1.67000	-63
1.67367	-68
1.67733	-73
1.68100	-78
1.68467	-82
1.68833	-86
1.69200	-90
1.69567	-93
1.69933	-96
1.70300	-98
1.70667	-100
1.71033	-102
1.71400	-104
1.71767	-105
1.72133	-106
1.72500	-107
1.72867	-108
1.73233	-109
1.73600	-110
1.73967	-111
1.74333	-111
1.74700	-112
1.75067	-113
1.75433	-114
1.75800	-114
1.76167	-115
1.76533	-115
1.76900	-114
1.77267	-114
1.77633	-113
1.78000	-113
1.78367	-113
1.78733	-113
1.79100	-113
1.79467	-113
1.79833	-114
1.80200	-115
1.80567	-116
1.80933	-116
1.81300	-116
1.81667	-117
1.82033	-117
1.82400	-117
1.82767	-118
1.83133	-118
1.83500	-119
1.83867	-119
1.84233	-119
1.84600	-119
1.84967	-119
1.85333	-119
1.85700	-119
1.86067	-119
1.86433	-119
1.86800	-120
1.87167	-119
1.87533	-119
1.87900	-118
1.88267	-118
1.88633	-118
1.89000	-118
1.89367	-118
1.89733	-117
1.90100	-117
1.90467	-117
1.90833	-118
1.91200	-118
1.91567	-118
1.91933	-118
1.92300	-118
1.92667	-118
1.93033	-118
1.93400	-118
1.93767	-118
1.94133	-117
1.94500	-117
1.94867	-116
1.95233	-116
1.95600	-115
1.95967	-114
1.96333	-113
1.96700	-113
1.97067	-113
1.97433	-113
1.97800	-113
1.98167	-113
1.98533	-113
1.98900	-112
1.99267	-112
1.99633	-112
2.00000	-112
2.00367	-112
2.00733	-112
2.01100	-112
2.01467	-111
2.01833	-111
2.02200	-111
2.02567	-111
2.02933	-111
2.03300	-110
2.03667	-110
2.04033	-109
2.04400	-109
2.04767	-108
2.05133	-108
2.05500	-108
2.05867	-108
2.06233	-108
2.06600	-108
2.06967	-108
2.07333	-107
2.07700	-107
2.08067	-106
2.08433	-106
2.08800	-105
2.09167	-105
2.09533	-104
2.09900	-104
2.10267	-103
2.10633	-103
2.11000	-103
2.11367	-103
2.11733	-103
2.12100	-103
2.12467	-103
2.12833	-103
2.13200	-102
2.13567	-102
2.13933	-102
2.14300	-102
2.14667	-102
2.15033	-101
2.15400	-101
2.15767	-101
2.16133	-100
2.16500	-100
2.16867	-99
2.17233	-99
2.17600	-99
2.17967	-99
2.18333	-98
2.18700	-98
2.19067	-98
2.19433	-97
2.19800	-97
2.20167	-96
2.20533	-96
2.20900	-95
2.21267	-95
2.21633	-95
2.22000	-94
2.22367	-94
2.22733	-93
2.23100	-92
2.23467	-91
2.23833	-91
2.24200	-90
2.24567	-90
2.24933	-89
2.25300	-90
2.25667	-90
2.26033	-91
2.26400	-91
2.26767	-91
2.27133	-91
2.27500	-91
2.27867	-90
2.28233	-90
2.28600	-89
2.28967	-89
2.29333	-89
2.29700	-88
2.30067	-88
2.30433	-87
2.30800	-87
2.31167	-86
2.31533	-86
2.31900	-86
2.32267	-87
2.32633	-87
2.33000	-88
2.33367	-89
2.33733	-89
2.34100	-89
2.34467	-88
2.34833	-87
2.35200	-86
2.35567	-85
2.35933	-83
2.36300	-81
2.36667	-79
2.37033	-76
2.37400	-73
2.37767	-70
2.38133	-67
2.38500	-63
2.38867	-60
2.39233	-56
2.39600	-52
2.39967	-48
2.40333	-44
2.40700	-40
2.41067	-37
2.41433	-34
2.41800	-31
2.42167	-28
2.42533	-25
2.42900	-22
2.43267	-20
2.43633	-18
2.44000	-16
2.44367	-14
2.44733	-11
2.45100	-10
2.45467	-8
2.45833	-7
2.46200	-5
2.46567	-4
2.46933	-3
2.47300	-1
2.47667	0
2.48033	1
2.48400	2
2.48767	3
2.49133	5
2.49500	6
2.49867	7
2.50233	8
2.50600	9
2.50967	9
2.51333	10
2.51700	10
2.52067	10
2.52433	11
2.52800	10
2.53167	10
2.53533	10
2.53900	10
2.54267	11
2.54633	11
2.55000	12
2.55367	12
2.55733	12
2.56100	13
2.56467	13
2.56833	13
2.57200	14
2.57567	14
2.57933	14
2.58300	14
2.58667	14
2.59033	14
2.59400	15
2.59767	15
2.60133	15
2.60500	16
2.60867	16
2.61233	16
2.61600	16
2.61967	16
2.62333	15
2.62700	15
2.63067	15
2.63433	15
2.63800	15
2.64167	15
2.64533	16
2.64900	16
2.65267	17
2.65633	18
2.66000	18
2.66367	19
2.66733	19
2.67100	19
2.67467	19
2.67833	20
2.68200	20
2.68567	20
2.68933	20
2.69300	20
2.69667	21
2.70033	21
2.70400	21
2.70767	22
2.71133	23
2.71500	23
2.71867	24
2.72233	25
2.72600	25
2.72967	26
2.73333	26
2.73700	27
2.74067	26
2.74433	26
2.74800	25
2.75167	24
2.75533	24
2.75900	23
2.76267	22
2.76633	22
2.77000	22
2.77367	22
2.77733	22
2.78100	23
2.78467	23
2.78833	23
2.79200	24
2.79567	24
2.79933	25
2.80300	25
2.80667	26
2.81033	26
2.81400	26
2.81767	26
2.82133	26
2.82500	26
2.82867	26
2.83233	26
2.83600	26
2.83967	26
2.84333	27
2.84700	27
2.85067	27
2.85433	27
2.85800	26
2.86167	24
2.86533	21
2.86900	16
2.87267	9
2.87633	-1
2.88000	-15
2.88367	-33
2.88733	-54
2.89100	-80
2.89467	-109
2.89833	-143
2.90200	-180
2.90567	-220
2.90933	-262
2.91300	-308
2.91667	-355
2.92033	-404
2.92400	-453
2.92767	-504
2.93133	-555
2.93500	-606
2.93867	-657
2.94233	-707
2.94600	-757
2.94967	-806
2.95333	-857
2.95700	-913
2.96067	-974
2.96433	-1033
2.96800	-1077
2.97167	-1099
2.97533	-1095
2.97900	-1065
2.98267	-1015
2.98633	-950
2.99000	-874
2.99367	-795
2.99733	-714
3.00100	-635
3.00467	-561
3.00833	-491
3.01200	-428
3.01567	-371
3.01933	-320
3.02300	-275
3.02667	-235
3.03033	-200
3.03400	-170
3.03767	-144
3.04133	-121
3.04500	-101
3.04867	-85
3.05233	-70
3.05600	-58
3.05967	-48
3.06333	-39
3.06700	-31
3.07067	-24
3.07433	-19
3.07800	-14
3.08167	-10
3.08533	-7
3.08900	-4
3.09267	-1
3.09633	1
3.10000	3
3.10367	5
3.10733	7
3.11100	8
3.11467	9
3.11833	10
3.12200	10
3.12567	11
3.12933	12
3.13300	13
3.13667	13
3.14033	14
3.14400	15
3.14767	15
3.15133	16
3.15500	16
3.15867	16
3.16233	17
3.16600	17
3.16967	17
3.17333	18
3.17700	18
3.18067	18
3.18433	19
3.18800	19
3.19167	19
3.19533	20
3.19900	20
3.20267	20
3.20633	20
3.21000	20
3.21367	21
3.21733	21
3.22100	21
3.22467	21
3.22833	21
3.23200	21
3.23567	21
3.23933	21
3.24300	21
3.24667	21
3.25033	21
3.25400	21
3.25767	22
3.26133	22
3.26500	22
3.26867	22
3.27233	22
3.27600	22
3.27967	22
3.28333	22
3.28700	22
3.29067	22
3.29433	22
3.29800	23
3.30167	23
3.30533	23
3.30900	23
3.31267	23
3.31633	23
3.32000	23
3.32367	23
3.32733	23
3.33100	23
3.33467	24
3.33833	24
3.34200	24
3.34567	24
3.34933	24
3.35300	25
3.35667	25
3.36033	25
3.36400	26
3.36767	26
3.37133	26
3.37500	26
3.37867	26
3.38233	26
3.38600	26
3.38967	26
3.39333	26
3.39700	26
3.40067	26
3.40433	26
3.40800	26
3.41167	27
3.41533	27
3.41900	27
3.42267	27
3.42633	27
3.43000	27
3.43367	27
3.43733	28
3.44100	28
3.44467	28
3.44833	28
3.45200	28
3.45567	27
3.45933	27
3.46300	27
3.46667	27
3.47033	27
3.47400	27
3.47767	27
3.48133	27
3.48500	27
3.48867	27
3.49233	27
3.49600	27
3.49967	27
3.50333	26
3.50700	26
3.51067	26
3.51433	26
3.51800	26
3.52167	26
3.52533	26
3.52900	26
3.53267	26
3.53633	26
3.54000	26
3.54367	26
3.54733	26
3.55100	26
3.55467	26
3.55833	26
3.56200	26
3.56567	26
3.56933	27
3.57300	27
3.57667	27
3.58033	27
3.58400	27
3.58767	27
3.59133	27
3.59500	27
3.59867	27
3.60233	27
3.60600	27
3.60967	27
3.61333	27
3.61700	27
3.62067	27
3.62433	27
3.62800	26
3.63167	26
3.63533	27
3.63900	27
3.64267	27
3.64633	27
3.65000	27
3.65367	27
3.65733	27
3.66100	27
3.66467	27
3.66833	27
3.67200	27
3.67567	28
3.67933	28
3.68300	28
3.68667	28
3.69033	28
3.69400	28
3.69767	28
3.70133	27
3.70500	27
3.70867	27
3.71233	27
3.71600	27
3.71967	27
3.72333	27
3.72700	27
3.73067	26
3.73433	26
3.73800	26
3.74167	26
3.74533	27
3.74900	27
3.75267	27
3.75633	27
3.76000	27
3.76367	27
3.76733	27
3.77100	27
3.77467	27
3.77833	27
3.78200	27
3.78567	27
3.78933	27
3.79300	27
3.79667	27
3.80033	27
3.80400	26
3.80767	26
3.81133	27
3.81500	27
3.81867	27
3.82233	27
3.82600	27
3.82967	27
3.83333	27
3.83700	26
3.84067	26
3.84433	26
3.84800	26
3.85167	26
3.85533	26
3.85900	26
3.86267	26
3.86633	26
3.87000	26
3.87367	26
3.87733	26
3.88100	26
3.88467	26
3.88833	26
3.89200	26
3.89567	27
3.89933	27
3.90300	26
3.90667	26
3.91033	26
3.91400	26
3.91767	26
3.92133	26
3.92500	26
3.92867	26
3.93233	26
3.93600	26
3.93967	26
3.94333	26
3.94700	26
3.95067	26
3.95433	26
3.95800	27
3.96167	27
3.96533	27
3.96900	27
3.97267	28
3.97633	28
3.98000	28
3.98367	28
3.98733	28
3.99100	28
3.99467	28
3.99833	28

[Chromatogram (Ch3)]
Interval(msec)	220
# of Points	1091
Start Time(min)	0.002
End Time(min)	3.998
R.Time (min)	Intensity
0.00167	0
0.00533	0
0.00900	1
0.01267	4
0.01633	6
0.02000	7
0.02367	5
0.02733	4
0.03100	6
0.03467	5
0.03833	5
0.04200	4
0.04567	5
0.04933	6
0.05300	8
0.05667	6
0.06033	5
0.06400	6
0.06767	9
0.07133	10
0.07500	8
0.07867	6
0.08233	3
0.08600	1
0.08967	-0
0.09333	-1
0.09700	-1
0.10067	-2
0.10433	-2
0.10800	-2
0.11167	-1
0.11533	-1
0.11900	-2
0.12267	-1
0.12633	3
0.13000	7
0.13367	8
0.13733	8
0.14100	7
0.14467	6
0.14833	4
0.15200	2
0.15567	2
0.15933	4
0.16300	6
0.16667	6
0.17033	7
0.17400	7
0.17767	6
0.18133	5
0.18500	4
0.18867	5
0.19233	5
0.19600	2
0.19967	1
0.20333	2
0.20700	1
0.21067	1
0.21433	4
0.21800	5
0.22167	3
0.22533	2
0.22900	1
0.23267	0
0.23633	0
0.24000	3
0.24367	5
0.24733	5
0.25100	7
0.25467	7
0.25833	5
0.26200	4
0.26567	5
0.26933	4
0.27300	6
0.27667	9
0.28033	10
0.28400	9
0.28767	8
0.29133	8
0.29500	7
0.29867	6
0.30233	4
0.30600	3
0.30967	4
0.31333	5
0.31700	5
0.32067	5
0.32433	3
0.32800	1
0.33167	4
0.33533	9
0.33900	13
0.34267	12
0.34633	10
0.35000	9
0.35367	8
0.35733	6
0.36100	7
0.36467	7
0.36833	5
0.37200	5
0.37567	5
0.37933	6
0.38300	8
0.38667	8
0.39033	8
0.39400	6
0.39767	5
0.40133	4
0.40500	3
0.40867	2
0.41233	2
0.41600	2
0.41967	2
0.42333	2
0.42700	0
0.43067	-1
0.43433	-1
0.43800	2
0.44167	6
0.44533	7
0.44900	7
0.45267	8
0.45633	9
0.46000	7
0.46367	4
0.46733	2
0.47100	3
0.47467	2
0.47833	1
0.48200	-0
0.48567	-1
0.48933	-1
0.49300	-1
0.49667	1
0.50033	2
0.50400	1
0.50767	1
0.51133	1
0.51500	4
0.51867	5
0.52233	3
0.52600	3
0.52967	5
0.53333	8
0.53700	12
0.54067	14
0.54433	13
0.54800	9
0.55167	9
0.55533	9
0.55900	10
0.56267	11
0.56633	10
0.57000	7
0.57367	7
0.57733	6
0.58100	4
0.58467	3
0.58833	3
0.59200	2
0.59567	3
0.59933	4
0.60300	5
0.60667	6
0.61033	5
0.61400	4
0.61767	2
0.62133	2
0.62500	1
0.62867	2
0.63233	2
0.63600	1
0.63967	3
0.64333	6
0.64700	7
0.65067	7
0.65433	6
0.65800	5
0.66167	3
0.66533	1
0.66900	-0
0.67267	-1
0.67633	0
0.68000	2
0.68367	5
0.68733	5
0.69100	5
0.69467	6
0.69833	9
0.70200	8
0.70567	7
0.70933	6
0.71300	8
0.71667	8
0.72033	8
0.72400	9
0.72767	8
0.73133	8
0.73500	6
0.73867	5
0.74233	6
0.74600	7
0.74967	6
0.75333	4
0.75700	3
0.76067	2
0.76433	2
0.76800	0
0.77167	-0
0.77533	-0
0.77900	-2
0.78267	-1
0.78633	-3
0.79000	-6
0.79367	-7
0.79733	-4
0.80100	-2
0.80467	-1
0.80833	0
0.81200	2
0.81567	2
0.81933	-0
0.82300	-1
0.82667	0
0.83033	2
0.83400	2
0.83767	0
0.84133	1
0.84500	1
0.84867	2
0.85233	-1
0.85600	-3
0.85967	-4
0.86333	-6
0.86700	-6
0.87067	-4
0.87433	-2
0.87800	-0
0.88167	-1
0.88533	-1
0.88900	1
0.89267	2
0.89633	3
0.90000	2
0.90367	1
0.90733	3
0.91100	4
0.91467	3
0.91833	3
0.92200	2
0.92567	3
0.92933	3
0.93300	3
0.93667	3
0.94033	2
0.94400	1
0.94767	1
0.95133	1
0.95500	2
0.95867	4
0.96233	5
0.96600	6
0.96967	6
0.97333	5
0.97700	3
0.98067	0
0.98433	-0
0.98800	3
0.99167	4
0.99533	5
0.99900	4
1.00267	3
1.00633	3
1.01000	2
1.01367	-0
1.01733	-3
1.02100	-3
1.02467	-2
1.02833	0
1.03200	1
1.03567	1
1.03933	-1
1.04300	-2
1.04667	-2
1.05033	-1
1.05400	-1
1.05767	-0
1.06133	0
1.06500	-1
1.06867	-3
1.07233	-4
1.07600	-4
1.07967	-3
1.08333	-2
1.08700	-4
1.09067	-3
1.09433	-1
1.09800	-2
1.10167	-5
1.10533	-7
1.10900	-7
1.11267	-6
1.11633	-5
1.12000	-4
1.12367	-3
1.12733	-3
1.13100	-2
1.13467	-2
1.13833	-4
1.14200	-5
1.14567	-4
1.14933	-3
1.15300	2
1.15667	4
1.16033	4
1.16400	3
1.16767	-0
1.17133	-1
1.17500	-1
1.17867	-1
1.18233	-2
1.18600	-4
1.18967	-4
1.19333	-2
1.19700	-1
1.20067	1
1.20433	2
1.20800	1
1.21167	-1
1.21533	-3
1.21900	-2
1.22267	1
1.22633	2
1.23000	3
1.23367	1
1.23733	-2
1.24100	-4
1.24467	-4
1.24833	-3
1.25200	-1
1.25567	2
1.25933	2
1.26300	-1
1.26667	-2
1.27033	-2
1.27400	1
1.27767	2
1.28133	2
1.28500	0
1.28867	-1
1.29233	-1
1.29600	-2
1.29967	-4
1.30333	-4
1.30700	-3
1.31067	-4
1.31433	-4
1.31800	-6
1.32167	-8
1.32533	-10
1.32900	-10
1.33267	-7
1.33633	-6
1.34000	-7
1.34367	-6
1.34733	-7
1.35100	-7
1.35467	-6
1.35833	-5
1.36200	-4
1.36567	-3
1.36933	-2
1.37300	-1
1.37667	-2
1.38033	-3
1.38400	-4
1.38767	-6
1.39133	-5
1.39500	-5
1.39867	-4
1.40233	-5
1.40600	-6
1.40967	-6
1.41333	-6
1.41700	-6
1.42067	-7
1.42433	-7
1.42800	-4
1.43167	-2
1.43533	-2
1.43900	-4
1.44267	-6
1.44633	-8
1.45000	-11
1.45367	-11
1.45733	-10
1.46100	-8
1.46467	-7
1.46833	-9
1.47200	-11
1.47567	-11
1.47933	-11
1.48300	-11
1.48667	-11
1.49033	-11
1.49400	-11
1.49767	-9
1.50133	-7
1.50500	-5
1.50867	-6
1.51233	-8
1.51600	-8
1.51967	-7
1.52333	-7
1.52700	-8
1.53067	-8
1.53433	-7
1.53800	-6
1.54167	-6
1.54533	-6
1.54900	-5
1.55267	-6
1.55633	-4
1.56000	-4
1.56367	-4
1.56733	-5
1.57100	-5
1.57467	-5
1.57833	-2
1.58200	-2
1.58567	-2
1.58933	-4
1.59300	-4
1.59667	-4
1.60033	-4
1.60400	-5
1.60767	-4
1.61133	-3
1.61500	-3
1.61867	-5
1.62233	-5
1.62600	-3
1.62967	-1
1.63333	-1
1.63700	-3
1.64067	-4
1.64433	-4
1.64800	-3
1.65167	-4
1.65533	-4
1.65900	-1
1.66267	2
1.66633	4
1.67000	4
1.67367	3
1.67733	3
1.68100	3
1.68467	5
1.68833	7
1.69200	8
1.69567	8
1.69933	10
1.70300	11
1.70667	10
1.71033	10
1.71400	9
1.71767	10
1.72133	10
1.72500	10
1.72867	11
1.73233	10
1.73600	12
1.73967	13
1.74333	13
1.74700	13
1.75067	13
1.75433	12
1.75800	11
1.76167	11
1.76533	11
1.76900	11
1.77267	11
1.77633	11
1.78000	11
1.78367	11
1.78733	11
1.79100	12
1.79467	13
1.79833	14
1.80200	12
1.80567	11
1.80933	12
1.81300	14
1.81667	13
1.82033	13
1.82400	13
1.82767	15
1.83133	16
1.83500	18
1.83867	18
1.84233	19
1.84600	17
1.84967	16
1.85333	16
1.85700	16
1.86067	14
1.86433	13
1.86800	12
1.87167	12
1.87533	15
1.87900	16
1.88267	16
1.88633	16
1.89000	15
1.89367	14
1.89733	14
1.90100	14
1.90467	13
1.90833	14
1.91200	15
1.91567	15
1.91933	17
1.92300	20
1.92667	23
1.93033	25
1.93400	27
1.93767	29
1.94133	31
1.94500	29
1.94867	28
1.95233	28
1.95600	31
1.95967	31
1.96333	29
1.96700	27
1.97067	27
1.97433	30
1.97800	31
1.98167	33
1.98533	33
1.98900	33
1.99267	33
1.99633	34
2.00000	36
2.00367	37
2.00733	36
2.01100	36
2.01467	36
2.01833	38
2.02200	39
2.02567	38
2.02933	38
2.03300	37
2.03667	37
2.04033	38
2.04400	39
2.04767	40
2.05133	42
2.05500	43
2.05867	43
2.06233	44
2.06600	45
2.06967	47
2.07333	50
2.07700	51
2.08067	51
2.08433	53
2.08800	54
2.09167	52
2.09533	52
2.09900	55
2.10267	57
2.10633	57
2.11000	59
2.11367	61
2.11733	62
2.12100	62
2.12467	60
2.12833	59
2.13200	60
2.13567	59
2.13933	62
2.14300	65
2.14667	67
2.15033	67
2.15400	66
2.15767	66
2.16133	68
2.16500	70
2.16867	72
2.17233	73
2.17600	74
2.17967	74
2.18333	72
2.18700	72
2.19067	72
2.19433	72
2.19800	73
2.20167	73
2.20533	75
2.20900	75
2.21267	74
2.21633	73
2.22000	75
2.22367	79
2.22733	82
2.23100	81
2.23467	81
2.23833	83
2.24200	82
2.24567	80
2.24933	80
2.25300	82
2.25667	85
2.26033	88
2.26400	87
2.26767	86
2.27133	88
2.27500	90
2.27867	91
2.28233	90
2.28600	91
2.28967	91
2.29333	90
2.29700	91
2.30067	93
2.30433	93
2.30800	92
2.31167	91
2.31533	93
2.31900	95
2.32267	98
2.32633	100
2.33000	101
2.33367	98
2.33733	95
2.34100	95
2.34467	98
2.34833	98
2.35200	98
2.35567	99
2.35933	98
2.36300	97
2.36667	98
2.37033	101
2.37400	103
2.37767	103
2.38133	103
2.38500	104
2.38867	104
2.39233	104
2.39600	103
2.39967	103
2.40333	105
2.40700	107
2.41067	112
2.41433	116
2.41800	118
2.42167	119
2.42533	121
2.42900	122
2.43267	123
2.43633	126
2.44000	128
2.44367	146
2.44733	195
2.45100	250
2.45467	289
2.45833	311
2.46200	329
2.46567	340
2.46933	342
2.47300	339
2.47667	334
2.48033	334
2.48400	343
2.48767	358
2.49133	380
2.49500	404
2.49867	427
2.50233	442
2.50600	450
2.50967	452
2.51333	450
2.51700	445
2.52067	441
2.52433	440
2.52800	439
2.53167	441
2.53533	448
2.53900	456
2.54267	463
2.54633	471
2.55000	477
2.55367	485
2.55733	494
2.56100	503
2.56467	512
2.56833	521
2.57200	528
2.57567	533
2.57933	531
2.58300	526
2.58667	518
2.59033	507
2.59400	494
2.59767	484
2.60133	473
2.60500	460
2.60867	446
2.61233	432
2.61600	414
2.61967	390
2.62333	362
2.62700	332
2.63067	298
2.63433	264
2.63800	233
2.64167	206
2.64533	185
2.64900	167
2.65267	152
2.65633	144
2.66000	141
2.66367	143
2.66733	144
2.67100	149
2.67467	155
2.67833	161
2.68200	170
2.68567	179
2.68933	189
2.69300	198
2.69667	208
2.70033	218
2.70400	226
2.70767	237
2.71133	246
2.71500	256
2.71867	265
2.72233	274
2.72600	280
2.72967	286
2.73333	292
2.73700	299
2.74067	305
2.74433	309
2.74800	312
2.75167	313
2.75533	311
2.75900	311
2.76267	312
2.76633	312
2.77000	311
2.77367	308
2.77733	307
2.78100	307
2.78467	306
2.78833	305
2.79200	303
2.79567	303
2.79933	303
2.80300	302
2.80667	300
2.81033	298
2.81400	296
2.81767	298
2.82133	300
2.82500	300
2.82867	301
2.83233	305
2.83600	316
2.83967	345
2.84333	404
2.84700	514
2.85067	701
2.85433	987
2.85800	1388
2.86167	1898
2.86533	2501
2.86900	3161
2.87267	3829
2.87633	4447
2.88000	4964
2.88367	5348
2.88733	5576
2.89100	5642
2.89467	5562
2.89833	5361
2.90200	5073
2.90567	4722
2.90933	4342
2.91300	3955
2.91667	3575
2.92033	3213
2.92400	2878
2.92767	2571
2.93133	2290
2.93500	2039
2.93867	1821
2.94233	1630
2.94600	1459
2.94967	1310
2.95333	1179
2.95700	1066
2.96067	969
2.96433	888
2.96800	817
2.97167	753
2.97533	697
2.97900	649
2.98267	609
2.98633	575
2.99000	547
2.99367	522
2.99733	499
3.00100	483
3.00467	471
3.00833	460
3.01200	449
3.01567	438
3.01933	431
3.02300	426
3.02667	421
3.03033	418
3.03400	414
3.03767	410
3.04133	407
3.04500	405
3.04867	406
3.05233	408
3.05600	408
3.05967	407
3.06333	406
3.06700	407
3.07067	408
3.07433	410
3.07800	410
3.08167	411
3.08533	413
3.08900	415
3.09267	416
3.09633	413
3.10000	413
3.10367	413
3.10733	414
3.11100	415
3.11467	414
3.11833	413
3.12200	413
3.12567	413
3.12933	413
3.13300	411
3.13667	411
3.14033	411
3.14400	410
3.14767	410
3.15133	409
3.15500	406
3.15867	404
3.16233	402
3.16600	400
3.16967	397
3.17333	395
3.17700	395
3.18067	393
3.18433	392
3.18800	390
3.19167	385
3.19533	383
3.19900	381
3.20267	380
3.20633	380
3.21000	380
3.21367	378
3.21733	376
3.22100	375
3.22467	374
3.22833	371
3.23200	368
3.23567	367
3.23933	366
3.24300	365
3.24667	362
3.25033	360
3.25400	358
3.25767	357
3.26133	359
3.26500	361
3.26867	360
3.27233	358
3.27600	354
3.27967	349
3.28333	346
3.28700	346
3.29067	344
3.29433	342
3.29800	339
3.30167	335
3.30533	334
3.30900	334
3.31267	332
3.31633	330
3.32000	330
3.32367	331
3.32733	330
3.33100	326
3.33467	323
3.33833	319
3.34200	315
3.34567	311
3.34933	307
3.35300	305
3.35667	303
3.36033	301
3.36400	299
3.36767	297
3.37133	296
3.37500	294
3.37867	291
3.38233	284
3.38600	280
3.38967	279
3.39333	281
3.39700	285
3.40067	286
3.40433	285
3.40800	282
3.41167	276
3.41533	269
3.41900	265
3.42267	262
3.42633	261
3.43000	262
3.43367	264
3.43733	264
3.44100	262
3.44467	259
3.44833	257
3.45200	255
3.45567	254
3.45933	254
3.46300	254
3.46667	253
3.47033	248
3.47400	243
3.47767	240
3.48133	239
3.48500	239
3.48867	237
3.49233	235
3.49600	232
3.49967	230
3.50333	229
3.50700	230
3.51067	227
3.51433	225
3.51800	223
3.52167	222
3.52533	222
3.52900	222
3.53267	219
3.53633	219
3.54000	218
3.54367	217
3.54733	215
3.55100	213
3.55467	212
3.55833	211
3.56200	209
3.56567	207
3.56933	208
3.57300	208
3.57667	208
3.58033	208
3.58400	207
3.58767	206
3.59133	204
3.59500	203
3.59867	202
3.60233	199
3.60600	198
3.60967	200
3.61333	201
3.61700	199
3.62067	197
3.62433	192
3.62800	189
3.63167	188
3.63533	189
3.63900	190
3.64267	190
3.64633	189
3.65000	187
3.65367	189
3.65733	193
3.66100	194
3.66467	192
3.66833	190
3.67200	187
3.67567	184
3.67933	184
3.68300	184
3.68667	181
3.69033	180
3.69400	180
3.69767	178
3.70133	177
3.70500	177
3.70867	178
3.71233	181
3.71600	183
3.71967	185
3.72333	184
3.72700	182
3.73067	179
3.73433	176
3.73800	176
3.74167	176
3.74533	176
3.74900	174
3.75267	171
3.75633	168
3.76000	166
3.76367	168
3.76733	170
3.77100	169
3.77467	168
3.77833	167
3.78200	167
3.78567	165
3.78933	165
3.79300	167
3.79667	169
3.80033	170
3.80400	171
3.80767	170
3.81133	168
3.81500	168
3.81867	167
3.82233	165
3.82600	164
3.82967	165
3.83333	166
3.83700	165
3.84067	165
3.84433	164
3.84800	163
3.85167	164
3.85533	165
3.85900	164
3.86267	163
3.86633	163
3.87000	164
3.87367	165
3.87733	166
3.88100	166
3.88467	166
3.88833	168
3.89200	168
3.89567	167
3.89933	164
3.90300	162
3.90667	163
3.91033	163
3.91400	162
3.91767	163
3.92133	164
3.92500	164
3.92867	164
3.93233	161
3.93600	160
3.93967	158
3.94333	157
3.94700	156
3.95067	156
3.95433	155
3.95800	155
3.96167	155
3.96533	157
3.96900	158
3.97267	158
3.97633	155
3.98000	152
3.98367	150
3.98733	151
3.99100	151
3.99467	151
3.99833	152

[Status Trace (Column Oven Temperature)]
Interval(msec)	1000
# of Points	240
Start Time(min)	0.017
End Time(min)	4.000
Intensity Units	
Intensity Multiplier	1
R.Time (min)	Intensity
0.01662	35.00
0.03328	34.99
0.04995	34.99
0.06662	34.99
0.08328	34.99
0.09995	34.99
0.11662	34.99
0.13328	34.99
0.14995	35.00
0.16662	35.00
0.18328	35.01
0.19995	35.00
0.21662	35.01
0.23328	35.01
0.24995	35.01
0.26662	35.00
0.28328	34.99
0.29995	35.00
0.31662	35.00
0.33328	35.00
0.34995	34.99
0.36662	35.00
0.38328	35.01
0.39995	35.01
0.41662	35.00
0.43328	35.00
0.44995	35.00
0.46662	35.00
0.48328	34.99
0.49995	35.00
0.51662	34.99
0.53328	35.00
0.54995	34.99
0.56662	34.99
0.58328	35.01
0.59995	35.00
0.61662	35.00
0.63328	34.99
0.64995	35.00
0.66662	34.99
0.68328	34.99
0.69995	34.99
0.71662	34.99
0.73328	35.00
0.74995	35.00
0.76662	35.00
0.78328	35.00
0.79995	35.01
0.81662	35.01
0.83328	35.01
0.84995	35.01
0.86662	35.00
0.88328	35.00
0.89995	35.00
0.91662	35.00
0.93328	35.00
0.94995	35.00
0.96662	34.99
0.98328	35.00
0.99995	34.99
1.01662	34.99
1.03328	34.98
1.04995	34.99
1.06662	34.99
1.08328	35.00
1.09995	34.99
1.11662	34.99
1.13328	34.99
1.14995	35.00
1.16662	35.00
1.18328	34.99
1.19995	35.00
1.21662	35.00
1.23328	35.01
1.24995	35.01
1.26662	35.00
1.28328	34.99
1.29995	34.99
1.31662	34.99
1.33328	35.00
1.34995	35.00
1.36662	35.00
1.38328	35.00
1.39995	35.00
1.41662	35.00
1.43328	35.00
1.44995	35.00
1.46662	34.99
1.48328	35.00
1.49995	34.99
1.51662	34.99
1.53328	34.98
1.54995	34.99
1.56662	35.00
1.58328	34.99
1.59995	35.02
1.61662	35.11
1.63328	35.26
1.64995	35.48
1.66662	35.79
1.68328	36.15
1.69995	36.50
1.71662	36.84
1.73328	37.18
1.74995	37.53
1.76662	37.84
1.78328	38.15
1.79995	38.50
1.81662	38.83
1.83328	39.17
1.84995	39.50
1.86662	39.82
1.88328	40.16
1.89995	40.49
1.91662	40.82
1.93328	41.14
1.94995	41.44
1.96662	41.79
1.98328	42.10
1.99995	42.44
2.01662	42.77
2.03328	43.08
2.04995	43.41
2.06662	43.75
2.08328	44.08
2.09995	44.40
2.11662	44.72
2.13328	45.04
2.14995	45.38
2.16662	45.69
2.18328	46.01
2.19995	46.33
2.21662	46.67
2.23328	46.98
2.24995	47.33
2.26662	47.68
2.28328	48.00
2.29995	48.32
2.31662	48.68
2.33328	49.04
2.34995	49.33
2.36662	49.55
2.38328	49.65
2.39995	49.65
2.41662	49.66
2.43328	49.66
2.44995	49.67
2.46662	49.68
2.48328	49.68
2.49995	49.69
2.51662	49.69
2.53328	49.72
2.54995	49.75
2.56662	49.75
2.58328	49.78
2.59995	49.78
2.61662	49.82
2.63328	49.84
2.64995	49.83
2.66662	49.85
2.68328	49.87
2.69995	49.87
2.71662	49.85
2.73328	49.84
2.74995	49.87
2.76662	49.88
2.78328	49.88
2.79995	49.87
2.81662	49.87
2.83328	49.87
2.84995	49.86
2.86662	49.86
2.88328	49.87
2.89995	49.88
2.91662	49.89
2.93328	49.90
2.94995	49.92
2.96662	49.93
2.98328	49.95
2.99995	49.98
3.01662	49.98
3.03328	49.99
3.04995	50.00
3.06662	50.01
3.08328	50.01
3.09995	50.02
3.11662	50.03
3.13328	50.04
3.14995	50.05
3.16662	50.05
3.18328	50.06
3.19995	50.07
3.21662	50.07
3.23328	50.08
3.24995	50.08
3.26662	50.09
3.28328	50.10
3.29995	50.10
3.31662	50.10
3.33328	50.10
3.34995	50.10
3.36662	50.09
3.38328	50.09
3.39995	50.08
3.41662	50.07
3.43328	50.06
3.44995	50.05
3.46662	50.05
3.48328	50.05
3.49995	50.04
3.51662	50.05
3.53328	50.05
3.54995	50.05
3.56662	50.04
3.58328	50.05
3.59995	50.05
3.61662	50.05
3.63328	50.05
3.64995	50.05
3.66662	50.05
3.68328	50.05
3.69995	50.06
3.71662	50.07
3.73328	50.07
3.74995	50.06
3.76662	50.06
3.78328	50.06
3.79995	50.06
3.81662	50.06
3.83328	50.06
3.84995	50.06
3.86662	50.07
3.88328	50.08
3.89995	50.10
3.91662	50.10
3.93328	50.09
3.94995	50.09
3.96662	50.09
3.98328	50.08
3.99995	50.07

[Status Trace (Injection Unit Temperature)]
Interval(msec)	1000
# of Points	240
Start Time(min)	0.017
End Time(min)	4.000
Intensity Units	
Intensity Multiplier	1
R.Time (min)	Intensity
0.01662	99.99
0.03328	99.98
0.04995	99.99
0.06662	99.99
0.08328	99.99
0.09995	99.99
0.11662	99.99
0.13328	99.99
0.14995	99.99
0.16662	99.99
0.18328	99.99
0.19995	99.99
0.21662	99.99
0.23328	99.99
0.24995	99.99
0.26662	99.99
0.28328	99.99
0.29995	99.99
0.31662	99.99
0.33328	99.99
0.34995	99.99
0.36662	99.99
0.38328	99.99
0.39995	99.99
0.41662	99.99
0.43328	99.99
0.44995	99.99
0.46662	99.99
0.48328	99.99
0.49995	99.99
0.51662	99.99
0.53328	99.99
0.54995	99.99
0.56662	99.99
0.58328	99.99
0.59995	99.99
0.61662	99.99
0.63328	99.99
0.64995	99.99
0.66662	99.99
0.68328	99.99
0.69995	99.99
0.71662	99.98
0.73328	99.99
0.74995	99.99
0.76662	99.99
0.78328	99.99
0.79995	99.99
0.81662	99.99
0.83328	99.99
0.84995	99.99
0.86662	99.99
0.88328	99.99
0.89995	99.99
0.91662	99.99
0.93328	99.99
0.94995	99.99
0.96662	99.99
0.98328	99.99
0.99995	99.99
1.01662	99.99
1.03328	99.99
1.04995	99.99
1.06662	99.99
1.08328	99.99
1.09995	99.99
1.11662	99.99
1.13328	99.99
1.14995	99.99
1.16662	99.99
1.18328	99.99
1.19995	99.99
1.21662	99.99
1.23328	99.99
1.24995	99.99
1.26662	99.99
1.28328	99.99
1.29995	99.99
1.31662	99.99
1.33328	99.99
1.34995	99.99
1.36662	99.99
1.38328	99.99
1.39995	99.99
1.41662	99.99
1.43328	99.99
1.44995	99.99
1.46662	99.99
1.48328	99.99
1.49995	99.99
1.51662	99.99
1.53328	99.99
1.54995	99.99
1.56662	99.99
1.58328	99.99
1.59995	99.99
1.61662	99.99
1.63328	99.99
1.64995	99.99
1.66662	99.99
1.68328	99.99
1.69995	99.99
1.71662	99.99
1.73328	99.99
1.74995	99.99
1.76662	99.99
1.78328	99.99
1.79995	99.99
1.81662	99.99
1.83328	99.99
1.84995	99.99
1.86662	99.99
1.88328	99.99
1.89995	99.99
1.91662	99.98
1.93328	99.98
1.94995	99.98
1.96662	99.98
1.98328	99.98
1.99995	99.98
2.01662	99.98
2.03328	99.98
2.04995	99.98
2.06662	99.98
2.08328	99.98
2.09995	99.98
2.11662	99.98
2.13328	99.98
2.14995	99.98
2.16662	99.98
2.18328	99.97
2.19995	99.98
2.21662	99.98
2.23328	99.98
2.24995	99.98
2.26662	99.98
2.28328	99.97
2.29995	99.98
2.31662	99.98
2.33328	99.98
2.34995	99.98
2.36662	99.98
2.38328	99.98
2.39995	99.98
2.41662	99.98
2.43328	99.97
2.44995	99.98
2.46662	99.98
2.48328	99.98
2.49995	99.98
2.51662	99.98
2.53328	99.98
2.54995	99.98
2.56662	99.98
2.58328	99.98
2.59995	99.98
2.61662	99.99
2.63328	99.98
2.64995	99.99
2.66662	99.99
2.68328	99.99
2.69995	99.99
2.71662	99.99
2.73328	99.99
2.74995	100.00
2.76662	100.00
2.78328	100.00
2.79995	100.00
2.81662	100.00
2.83328	100.00
2.84995	100.00
2.86662	100.00
2.88328	100.01
2.89995	100.01
2.91662	100.01
2.93328	100.01
2.94995	100.01
2.96662	100.01
2.98328	100.02
2.99995	100.01
3.01662	100.02
3.03328	100.02
3.04995	100.02
3.06662	100.02
3.08328	100.02
3.09995	100.02
3.11662	100.02
3.13328	100.03
3.14995	100.02
3.16662	100.02
3.18328	100.02
3.19995	100.02
3.21662	100.03
3.23328	100.03
3.24995	100.03
3.26662	100.03
3.28328	100.03
3.29995	100.03
3.31662	100.03
3.33328	100.03
3.34995	100.04
3.36662	100.03
3.38328	100.04
3.39995	100.04
3.41662	100.03
3.43328	100.04
3.44995	100.04
3.46662	100.04
3.48328	100.04
3.49995	100.04
3.51662	100.04
3.53328	100.04
3.54995	100.04
3.56662	100.04
3.58328	100.04
3.59995	100.04
3.61662	100.04
3.63328	100.04
3.64995	100.04
3.66662	100.04
3.68328	100.04
3.69995	100.04
3.71662	100.04
3.73328	100.04
3.74995	100.04
3.76662	100.04
3.78328	100.04
3.79995	100.04
3.81662	100.04
3.83328	100.04
3.84995	100.04
3.86662	100.04
3.88328	100.05
3.89995	100.04
3.91662	100.04
3.93328	100.04
3.94995	100.05
3.96662	100.04
3.98328	100.05
3.99995	100.04

[Status Trace (Carrier Gas Pressure)]
Interval(msec)	1000
# of Points	240
Start Time(min)	0.017
End Time(min)	4.000
Intensity Units	
Intensity Multiplier	1
R.Time (min)	Intensity
0.01662	56.77
0.03328	55.82
0.04995	58.19
0.06662	59.91
0.08328	58.57
0.09995	57.97
0.11662	58.00
0.13328	58.01
0.14995	58.01
0.16662	58.00
0.18328	58.00
0.19995	58.00
0.21662	58.00
0.23328	58.00
0.24995	58.00
0.26662	58.00
0.28328	58.00
0.29995	58.00
0.31662	58.00
0.33328	58.00
0.34995	58.00
0.36662	58.00
0.38328	58.00
0.39995	58.00
0.41662	58.00
0.43328	58.00
0.44995	58.00
0.46662	58.00
0.48328	58.00
0.49995	58.00
0.51662	58.00
0.53328	58.00
0.54995	58.00
0.56662	58.00
0.58328	58.00
0.59995	58.00
0.61662	58.00
0.63328	58.00
0.64995	58.00
0.66662	58.00
0.68328	58.00
0.69995	58.00
0.71662	58.00
0.73328	58.00
0.74995	58.00
0.76662	58.00
0.78328	58.00
0.79995	58.00
0.81662	58.00
0.83328	58.00
0.84995	58.00
0.86662	58.00
0.88328	58.00
0.89995	58.00
0.91662	58.00
0.93328	58.00
0.94995	58.00
0.96662	58.00
0.98328	58.00
0.99995	58.00
1.01662	58.00
1.03328	58.00
1.04995	58.00
1.06662	58.00
1.08328	58.00
1.09995	58.00
1.11662	58.00
1.13328	58.00
1.14995	58.00
1.16662	58.00
1.18328	58.00
1.19995	58.00
1.21662	58.00
1.23328	58.00
1.24995	58.00
1.26662	58.00
1.28328	58.00
1.29995	58.00
1.31662	58.00
1.33328	58.00
1.34995	58.00
1.36662	58.00
1.38328	58.00
1.39995	58.00
1.41662	58.00
1.43328	58.00
1.44995	58.00
1.46662	58.00
1.48328	58.00
1.49995	58.00
1.51662	58.00
1.53328	58.00
1.54995	58.00
1.56662	58.00
1.58328	58.00
1.59995	58.00
1.61662	58.00
1.63328	58.00
1.64995	58.00
1.66662	58.01
1.68328	58.01
1.69995	58.00
1.71662	58.00
1.73328	58.00
1.74995	58.00
1.76662	58.00
1.78328	58.00
1.79995	58.00
1.81662	58.00
1.83328	58.00
1.84995	58.00
1.86662	58.00
1.88328	58.00
1.89995	58.00
1.91662	58.00
1.93328	58.00
1.94995	58.00
1.96662	58.00
1.98328	58.00
1.99995	58.00
2.01662	58.00
2.03328	58.00
2.04995	58.00
2.06662	58.00
2.08328	58.00
2.09995	58.00
2.11662	58.00
2.13328	58.00
2.14995	58.00
2.16662	58.00
2.18328	58.00
2.19995	58.00
2.21662	58.00
2.23328	58.00
2.24995	58.00
2.26662	58.00
2.28328	58.00
2.29995	58.00
2.31662	58.00
2.33328	58.00
2.34995	58.00
2.36662	58.00
2.38328	57.99
2.39995	57.99
2.41662	58.00
2.43328	58.00
2.44995	58.00
2.46662	58.00
2.48328	58.00
2.49995	58.00
2.51662	57.99
2.53328	57.99
2.54995	58.00
2.56662	58.00
2.58328	58.00
2.59995	58.00
2.61662	58.00
2.63328	58.00
2.64995	58.00
2.66662	58.00
2.68328	58.00
2.69995	58.00
2.71662	58.00
2.73328	58.00
2.74995	58.00
2.76662	58.00
2.78328	58.00
2.79995	58.00
2.81662	58.00
2.83328	58.00
2.84995	58.00
2.86662	58.00
2.88328	58.00
2.89995	58.00
2.91662	58.00
2.93328	58.00
2.94995	58.00
2.96662	58.00
2.98328	58.00
2.99995	58.00
3.01662	58.00
3.03328	58.00
3.04995	58.00
3.06662	58.00
3.08328	58.00
3.09995	58.00
3.11662	58.00
3.13328	58.00
3.14995	58.00
3.16662	58.00
3.18328	58.00
3.19995	58.00
3.21662	58.00
3.23328	58.00
3.24995	58.00
3.26662	58.00
3.28328	58.00
3.29995	58.00
3.31662	58.00
3.33328	58.00
3.34995	58.00
3.36662	58.00
3.38328	58.00
3.39995	58.00
3.41662	58.00
3.43328	58.00
3.44995	58.00
3.46662	58.00
3.48328	58.00
3.49995	58.00
3.51662	58.00
3.53328	58.00
3.54995	58.00
3.56662	58.00
3.58328	58.00
3.59995	58.00
3.61662	58.00
3.63328	58.00
3.64995	58.00
3.66662	58.00
3.68328	58.00
3.69995	58.00
3.71662	58.00
3.73328	58.00
3.74995	58.00
3.76662	58.00
3.78328	58.00
3.79995	58.00
3.81662	58.00
3.83328	58.00
3.84995	58.00
3.86662	58.00
3.88328	58.00
3.89995	58.00
3.91662	58.00
3.93328	58.00
3.94995	58.00
3.96662	58.00
3.98328	58.00
3.99995	58.00

[Status Trace (Carrier Gas Flow)]
Interval(msec)	1000
# of Points	240
Start Time(min)	0.017
End Time(min)	4.000
Intensity Units	
Intensity Multiplier	1
R.Time (min)	Intensity
0.01662	33.87
0.03328	34.53
0.04995	34.55
0.06662	34.51
0.08328	34.52
0.09995	34.52
0.11662	34.52
0.13328	34.52
0.14995	34.52
0.16662	34.52
0.18328	34.52
0.19995	34.52
0.21662	34.52
0.23328	34.52
0.24995	34.52
0.26662	34.52
0.28328	34.52
0.29995	34.52
0.31662	34.52
0.33328	34.52
0.34995	34.52
0.36662	34.52
0.38328	34.52
0.39995	34.52
0.41662	34.52
0.43328	34.52
0.44995	34.52
0.46662	34.52
0.48328	34.52
0.49995	34.52
0.51662	34.52
0.53328	34.52
0.54995	34.52
0.56662	34.52
0.58328	34.52
0.59995	34.52
0.61662	34.52
0.63328	34.52
0.64995	34.52
0.66662	34.52
0.68328	34.52
0.69995	34.52
0.71662	34.52
0.73328	34.52
0.74995	34.52
0.76662	34.52
0.78328	34.52
0.79995	34.52
0.81662	34.52
0.83328	34.52
0.84995	34.52
0.86662	34.52
0.88328	34.52
0.89995	34.52
0.91662	34.52
0.93328	34.52
0.94995	34.52
0.96662	34.52
0.98328	34.52
0.99995	34.52
1.01662	34.52
1.03328	34.52
1.04995	34.52
1.06662	34.52
1.08328	34.52
1.09995	34.52
1.11662	34.52
1.13328	34.52
1.14995	34.52
1.16662	34.52
1.18328	34.52
1.19995	34.52
1.21662	34.52
1.23328	34.52
1.24995	34.52
1.26662	34.52
1.28328	34.52
1.29995	34.52
1.31662	34.52
1.33328	34.52
1.34995	34.52
1.36662	34.52
1.38328	34.52
1.39995	34.52
1.41662	34.52
1.43328	34.52
1.44995	34.52
1.46662	34.52
1.48328	34.52
1.49995	34.52
1.51662	34.52
1.53328	34.52
1.54995	34.52
1.56662	34.52
1.58328	34.52
1.59995	34.52
1.61662	34.52
1.63328	34.52
1.64995	34.52
1.66662	34.52
1.68328	34.52
1.69995	34.52
1.71662	34.52
1.73328	34.52
1.74995	34.52
1.76662	34.52
1.78328	34.52
1.79995	34.52
1.81662	34.52
1.83328	34.52
1.84995	34.52
1.86662	34.52
1.88328	34.52
1.89995	34.52
1.91662	34.52
1.93328	34.52
1.94995	34.52
1.96662	34.52
1.98328	34.52
1.99995	34.52
2.01662	34.52
2.03328	34.52
2.04995	34.52
2.06662	34.52
2.08328	34.52
2.09995	34.52
2.11662	34.52
2.13328	34.52
2.14995	34.52
2.16662	34.52
2.18328	34.52
2.19995	34.52
2.21662	34.52
2.23328	34.52
2.24995	34.52
2.26662	34.52
2.28328	34.52
2.29995	34.52
2.31662	34.52
2.33328	34.52
2.34995	34.52
2.36662	34.52
2.38328	34.52
2.39995	34.52
2.41662	34.52
2.43328	34.52
2.44995	34.52
2.46662	34.52
2.48328	34.52
2.49995	34.52
2.51662	34.52
2.53328	34.52
2.54995	34.53
2.56662	34.51
2.58328	34.52
2.59995	34.52
2.61662	34.52
2.63328	34.52
2.64995	34.52
2.66662	34.52
2.68328	34.52
2.69995	34.52
2.71662	34.52
2.73328	34.52
2.74995	34.52
2.76662	34.52
2.78328	34.52
2.79995	34.52
2.81662	34.52
2.83328	34.52
2.84995	34.52
2.86662	34.52
2.88328	34.52
2.89995	34.52
2.91662	34.52
2.93328	34.52
2.94995	34.52
2.96662	34.52
2.98328	34.52
2.99995	34.52
3.01662	34.52
3.03328	34.52
3.04995	34.52
3.06662	34.52
3.08328	34.52
3.09995	34.52
3.11662	34.52
3.13328	34.52
3.14995	34.52
3.16662	34.52
3.18328	34.52
3.19995	34.52
3.21662	34.52
3.23328	34.52
3.24995	34.52
3.26662	34.52
3.28328	34.52
3.29995	34.52
3.31662	34.52
3.33328	34.52
3.34995	34.52
3.36662	34.52
3.38328	34.52
3.39995	34.52
3.41662	34.52
3.43328	34.52
3.44995	34.52
3.46662	34.52
3.48328	34.52
3.49995	34.52
3.51662	34.52
3.53328	34.52
3.54995	34.52
3.56662	34.52
3.58328	34.52
3.59995	34.52
3.61662	34.52
3.63328	34.52
3.64995	34.52
3.66662	34.52
3.68328	34.52
3.69995	34.52
3.71662	34.52
3.73328	34.52
3.74995	34.52
3.76662	34.52
3.78328	34.52
3.79995	34.52
3.81662	34.52
3.83328	34.52
3.84995	34.52
3.86662	34.52
3.88328	34.52
3.89995	34.52
3.91662	34.52
3.93328	34.52
3.94995	34.52
3.96662	34.52
3.98328	34.52
3.99995	34.52

[Status Trace (Column Flow)]
Interval(msec)	1000
# of Points	240
Start Time(min)	0.017
End Time(min)	4.000
Intensity Units	
Intensity Multiplier	1
R.Time (min)	Intensity
0.01662	5.32
0.03328	5.21
0.04995	5.49
0.06662	5.69
0.08328	5.53
0.09995	5.46
0.11662	5.46
0.13328	5.47
0.14995	5.46
0.16662	5.46
0.18328	5.46
0.19995	5.46
0.21662	5.46
0.23328	5.46
0.24995	5.46
0.26662	5.46
0.28328	5.46
0.29995	5.46
0.31662	5.46
0.33328	5.46
0.34995	5.46
0.36662	5.46
0.38328	5.46
0.39995	5.46
0.41662	5.46
0.43328	5.46
0.44995	5.46
0.46662	5.46
0.48328	5.46
0.49995	5.46
0.51662	5.46
0.53328	5.46
0.54995	5.46
0.56662	5.46
0.58328	5.46
0.59995	5.46
0.61662	5.46
0.63328	5.46
0.64995	5.46
0.66662	5.46
0.68328	5.46
0.69995	5.46
0.71662	5.46
0.73328	5.46
0.74995	5.46
0.76662	5.46
0.78328	5.46
0.79995	5.46
0.81662	5.46
0.83328	5.46
0.84995	5.46
0.86662	5.46
0.88328	5.46
0.89995	5.46
0.91662	5.46
0.93328	5.46
0.94995	5.46
0.96662	5.46
0.98328	5.46
0.99995	5.46
1.01662	5.46
1.03328	5.46
1.04995	5.46
1.06662	5.46
1.08328	5.46
1.09995	5.46
1.11662	5.46
1.13328	5.46
1.14995	5.46
1.16662	5.46
1.18328	5.46
1.19995	5.46
1.21662	5.46
1.23328	5.46
1.24995	5.46
1.26662	5.46
1.28328	5.46
1.29995	5.46
1.31662	5.46
1.33328	5.46
1.34995	5.46
1.36662	5.46
1.38328	5.46
1.39995	5.46
1.41662	5.46
1.43328	5.46
1.44995	5.46
1.46662	5.46
1.48328	5.46
1.49995	5.46
1.51662	5.46
1.53328	5.46
1.54995	5.46
1.56662	5.46
1.58328	5.46
1.59995	5.46
1.61662	5.46
1.63328	5.46
1.64995	5.45
1.66662	5.44
1.68328	5.43
1.69995	5.42
1.71662	5.41
1.73328	5.40
1.74995	5.39
1.76662	5.38
1.78328	5.37
1.79995	5.36
1.81662	5.35
1.83328	5.34
1.84995	5.33
1.86662	5.32
1.88328	5.31
1.89995	5.30
1.91662	5.29
1.93328	5.28
1.94995	5.27
1.96662	5.26
1.98328	5.25
1.99995	5.24
2.01662	5.23
2.03328	5.22
2.04995	5.21
2.06662	5.20
2.08328	5.19
2.09995	5.18
2.11662	5.17
2.13328	5.16
2.14995	5.15
2.16662	5.14
2.18328	5.14
2.19995	5.13
2.21662	5.12
2.23328	5.11
2.24995	5.10
2.26662	5.09
2.28328	5.08
2.29995	5.07
2.31662	5.06
2.33328	5.05
2.34995	5.04
2.36662	5.04
2.38328	5.03
2.39995	5.03
2.41662	5.03
2.43328	5.03
2.44995	5.03
2.46662	5.03
2.48328	5.03
2.49995	5.03
2.51662	5.03
2.53328	5.03
2.54995	5.03
2.56662	5.03
2.58328	5.03
2.59995	5.03
2.61662	5.03
2.63328	5.03
2.64995	5.03
2.66662	5.03
2.68328	5.03
2.69995	5.03
2.71662	5.03
2.73328	5.03
2.74995	5.03
2.76662	5.03
2.78328	5.03
2.79995	5.03
2.81662	5.03
2.83328	5.03
2.84995	5.03
2.86662	5.03
2.88328	5.03
2.89995	5.03
2.91662	5.03
2.93328	5.03
2.94995	5.03
2.96662	5.03
2.98328	5.03
2.99995	5.03
3.01662	5.03
3.03328	5.03
3.04995	5.03
3.06662	5.03
3.08328	5.03
3.09995	5.02
3.11662	5.02
3.13328	5.02
3.14995	5.02
3.16662	5.02
3.18328	5.02
3.19995	5.02
3.21662	5.02
3.23328	5.02
3.24995	5.02
3.26662	5.02
3.28328	5.02
3.29995	5.02
3.31662	5.02
3.33328	5.02
3.34995	5.02
3.36662	5.02
3.38328	5.02
3.39995	5.02
3.41662	5.02
3.43328	5.02
3.44995	5.02
3.46662	5.02
3.48328	5.02
3.49995	5.02
3.51662	5.02
3.53328	5.02
3.54995	5.02
3.56662	5.02
3.58328	5.02
3.59995	5.02
3.61662	5.02
3.63328	5.02
3.64995	5.02
3.66662	5.02
3.68328	5.02
3.69995	5.02
3.71662	5.02
3.73328	5.02
3.74995	5.02
3.76662	5.02
3.78328	5.02
3.79995	5.02
3.81662	5.02
3.83328	5.02
3.84995	5.02
3.86662	5.02
3.88328	5.02
3.89995	5.02
3.91662	5.02
3.93328	5.02
3.94995	5.02
3.96662	5.02
3.98328	5.02
3.99995	5.02

[Status Trace (Linear Velocity)]
Interval(msec)	1000
# of Points	240
Start Time(min)	0.017
End Time(min)	4.000
Intensity Units	
Intensity Multiplier	1
R.Time (min)	Intensity
0.01662	38.20
0.03328	37.57
0.04995	39.13
0.06662	40.25
0.08328	39.37
0.09995	38.98
0.11662	39.00
0.13328	39.01
0.14995	39.01
0.16662	39.01
0.18328	39.00
0.19995	39.00
0.21662	39.00
0.23328	39.00
0.24995	39.00
0.26662	39.00
0.28328	39.00
0.29995	39.00
0.31662	39.00
0.33328	39.00
0.34995	39.00
0.36662	39.00
0.38328	39.00
0.39995	39.00
0.41662	39.00
0.43328	39.00
0.44995	39.00
0.46662	39.00
0.48328	39.00
0.49995	39.00
0.51662	39.00
0.53328	39.00
0.54995	39.00
0.56662	39.00
0.58328	39.00
0.59995	39.00
0.61662	39.00
0.63328	39.00
0.64995	39.00
0.66662	39.00
0.68328	39.00
0.69995	39.00
0.71662	39.00
0.73328	39.00
0.74995	39.00
0.76662	39.00
0.78328	39.00
0.79995	39.00
0.81662	39.00
0.83328	39.00
0.84995	39.00
0.86662	39.00
0.88328	39.00
0.89995	39.00
0.91662	39.00
0.93328	39.00
0.94995	39.00
0.96662	39.00
0.98328	39.00
0.99995	39.00
1.01662	39.00
1.03328	39.00
1.04995	39.00
1.06662	39.00
1.08328	39.00
1.09995	39.00
1.11662	39.00
1.13328	39.00
1.14995	39.00
1.16662	39.00
1.18328	39.00
1.19995	39.00
1.21662	39.00
1.23328	39.00
1.24995	39.00
1.26662	39.00
1.28328	39.00
1.29995	39.00
1.31662	39.00
1.33328	39.00
1.34995	39.00
1.36662	39.00
1.38328	39.00
1.39995	39.00
1.41662	39.00
1.43328	39.00
1.44995	39.00
1.46662	39.00
1.48328	39.00
1.49995	39.00
1.51662	39.00
1.53328	39.00
1.54995	39.00
1.56662	39.00
1.58328	39.00
1.59995	39.00
1.61662	38.99
1.63328	38.98
1.64995	38.96
1.66662	38.93
1.68328	38.90
1.69995	38.86
1.71662	38.83
1.73328	38.80
1.74995	38.76
1.76662	38.73
1.78328	38.70
1.79995	38.67
1.81662	38.64
1.83328	38.61
1.84995	38.57
1.86662	38.54
1.88328	38.52
1.89995	38.48
1.91662	38.45
1.93328	38.42
1.94995	38.39
1.96662	38.36
1.98328	38.34
1.99995	38.30
2.01662	38.27
2.03328	38.24
2.04995	38.21
2.06662	38.18
2.08328	38.15
2.09995	38.12
2.11662	38.09
2.13328	38.07
2.14995	38.03
2.16662	38.00
2.18328	37.98
2.19995	37.95
2.21662	37.92
2.23328	37.89
2.24995	37.86
2.26662	37.83
2.28328	37.80
2.29995	37.77
2.31662	37.74
2.33328	37.71
2.34995	37.68
2.36662	37.66
2.38328	37.65
2.39995	37.65
2.41662	37.65
2.43328	37.65
2.44995	37.65
2.46662	37.65
2.48328	37.65
2.49995	37.65
2.51662	37.64
2.53328	37.64
2.54995	37.64
2.56662	37.64
2.58328	37.64
2.59995	37.64
2.61662	37.64
2.63328	37.63
2.64995	37.63
2.66662	37.63
2.68328	37.63
2.69995	37.63
2.71662	37.63
2.73328	37.63
2.74995	37.63
2.76662	37.63
2.78328	37.63
2.79995	37.63
2.81662	37.63
2.83328	37.63
2.84995	37.63
2.86662	37.63
2.88328	37.63
2.89995	37.63
2.91662	37.63
2.93328	37.63
2.94995	37.63
2.96662	37.63
2.98328	37.62
2.99995	37.62
3.01662	37.62
3.03328	37.62
3.04995	37.62
3.06662	37.62
3.08328	37.62
3.09995	37.62
3.11662	37.62
3.13328	37.62
3.14995	37.62
3.16662	37.62
3.18328	37.61
3.19995	37.61
3.21662	37.61
3.23328	37.61
3.24995	37.61
3.26662	37.61
3.28328	37.61
3.29995	37.61
3.31662	37.61
3.33328	37.61
3.34995	37.61
3.36662	37.61
3.38328	37.61
3.39995	37.61
3.41662	37.61
3.43328	37.61
3.44995	37.61
3.46662	37.62
3.48328	37.62
3.49995	37.62
3.51662	37.62
3.53328	37.61
3.54995	37.61
3.56662	37.62
3.58328	37.62
3.59995	37.62
3.61662	37.61
3.63328	37.61
3.64995	37.61
3.66662	37.61
3.68328	37.61
3.69995	37.61
3.71662	37.61
3.73328	37.61
3.74995	37.61
3.76662	37.61
3.78328	37.61
3.79995	37.61
3.81662	37.61
3.83328	37.61
3.84995	37.61
3.86662	37.61
3.88328	37.61
3.89995	37.61
3.91662	37.61
3.93328	37.61
3.94995	37.61
3.96662	37.61
3.98328	37.61
3.99995	37.61

