[Header]
Application Name	LabSolutions
Version	5.110
Data File Name	C:\Users\User\Desktop\GC Analyses\Jack\UIC Prairie Sampling\9.30.22\220930_036.gcd
Output Date	1/4/2023
Output Time	2:27:58 PM

[File Information]
Type	Data File
Generated	11/30/2022 11:12:09 AM
Generated by	System Administrator
Modified	11/30/2022 11:16:34 AM
Modified by	System Administrator

[Sample Information]
Operator Name	System Administrator
Acquired	11/30/2022 11:12:33 AM
Sample Type	1:Standard
Level	1
Sample Name	220930_UICPrairie
Sample ID	220930_UICPrairie
ISTD Amount1	1
ISTD Amount2	1
ISTD Amount3	1
ISTD Amount4	1
ISTD Amount5	1
ISTD Amount6	1
ISTD Amount7	1
ISTD Amount8	1
ISTD Amount9	1
ISTD Amount10	1
ISTD Amount11	1
ISTD Amount12	1
ISTD Amount13	1
ISTD Amount14	1
ISTD Amount15	1
ISTD Amount16	1
ISTD Amount17	1
ISTD Amount18	1
ISTD Amount19	1
ISTD Amount20	1
ISTD Amount21	1
ISTD Amount22	1
ISTD Amount23	1
ISTD Amount24	1
ISTD Amount25	1
ISTD Amount26	1
ISTD Amount27	1
ISTD Amount28	1
ISTD Amount29	1
ISTD Amount30	1
ISTD Amount31	1
ISTD Amount32	1
Sample Amount	1
Dilution Factor	1
Vial#	1
Injection Volume	1
Injection Count	1
Bar Code	

[Original Files]
Data File	C:\Users\User\Desktop\GC Analyses\Jack\UIC Prairie Sampling\9.30.22\220930_036.gcd
Method File	C:\LabSolutions\Data\GHG_4min_2022\ghg3_togas_w_acet_4 min_new_int.gcm
Batch File	
Report Format File	c:\LabSolutions\System\DEFAULT.lsr

[File Description]


[Configuration]
Instrument Name	C0B7VH3-Instrument1
Instrument #	1
Line #	1
# of Detectors	3
Detector ID	DET#1	DET#2	DET#3
Detector Name	FID	PTCD	ECD
# of Channels	1	1	1

[Peak Table(Ch1)]
# of Peaks	3
Peak#	R.Time	I.Time	F.Time	Area	Height	A/H	Conc.	Mark	ID#	Name	k'	Plate #	Plate Ht.	Tailing	Resolution	Sep.Factor	Area Ratio	Height Ratio	Conc. %	Norm Conc.
1	1.483	1.439	1.545	6798	3617	1.880	100.000	   	1	CO	0.000	11417	13.138	1.284	0.000	0.000	0	0	16.667	16.667
2	1.575	1.545	1.630	2634	1599	1.648	100.000	 V 	2	CH4	0.062	16705	8.979	0.000	1.759	0.000	0	0	16.667	16.667
3	2.004	1.963	2.319	645126	358975	1.797	400.000	   	3	CO2	0.351	22682	6.613	1.324	8.416	5.680	0	0	66.667	66.667

[Peak Table(Ch2)]
# of Peaks	0

[Peak Table(Ch3)]
# of Peaks	5
Peak#	R.Time	I.Time	F.Time	Area	Height	A/H	Conc.	Mark	ID#	Name	k'	Plate #	Plate Ht.	Tailing	Resolution	Sep.Factor	Area Ratio	Height Ratio	Conc. %	Norm Conc.
1	2.466	1.879	2.480	2446	266	9.178	0.000	   			0.000	2550	58.818	0.000	0.000	0.000	0	0	0.000	0.000
2	2.510	2.480	2.528	856	330	2.597	0.000	 V 			0.018	584	256.763	0.000	0.144	0.000	0	0	0.000	0.000
3	2.583	2.528	2.664	2557	400	6.397	0.000	 V 			0.048	1291	116.185	0.000	0.209	2.667	0	0	0.000	0.000
4	2.763	2.664	2.832	2372	271	8.746	0.113	 V 	1	N2O	0.120	308	487.627	0.000	0.392	2.531	0	0	11.342	11.342
5	2.891	2.832	3.819	18542	3088	6.005	0.887	 V 	1	N2O	0.173	13471	11.135	0.000	0.352	1.432	0	0	88.658	88.658

[Compound Results(Ch1)]
# of IDs	6
ID#	Name	R.Time	Area	Height	Conc.	Curve	3rd	2nd	1st	Constant	Area Ratio	Height Ratio	Conc. %	Norm Conc.
1	CO	1.483	6798	3617	100.000	Linear	0.000000e+00	0.000000e+00	6.798356e+001	0.000000e+00	0	0	16.667	16.667
2	CH4	1.575	2634	1599	100.000	Linear	0.000000e+00	0.000000e+00	2.633785e+001	0.000000e+00	0	0	16.667	16.667
3	CO2	2.004	645126	358975	400.000	Linear	0.000000e+00	0.000000e+00	1.612815e+003	0.000000e+00	0	0	66.667	66.667
4	Ethylene	0.000	0	0	0.000	Linear	0.000000e+00	0.000000e+00	0.000000e+00	0.000000e+00	0	0	0.000	0.000
5	Acetylene	0.000	0	0	0.000	Linear	0.000000e+00	0.000000e+00	0.000000e+00	0.000000e+00	0	0	0.000	0.000
6	Ethane	0.000	0	0	0.000	Linear	0.000000e+00	0.000000e+00	0.000000e+00	0.000000e+00	0	0	0.000	0.000

[Compound Results(Ch2)]
# of IDs	5
ID#	Name	R.Time	Area	Height	Conc.	Curve	3rd	2nd	1st	Constant	Area Ratio	Height Ratio	Conc. %	Norm Conc.
1	Hydrogen	0.000	0	0	0.000	Linear	0.000000e+00	0.000000e+00	0.000000e+00	0.000000e+00	0	0	0.000	0.000
2	Oxygen	0.000	0	0	0.000	Linear	0.000000e+00	0.000000e+00	0.000000e+00	0.000000e+00	0	0	0.000	0.000
3	Nitrogen	0.000	0	0	0.000	Linear	0.000000e+00	0.000000e+00	0.000000e+00	0.000000e+00	0	0	0.000	0.000
4	Methane	0.000	0	0	0.000	Linear	0.000000e+00	0.000000e+00	0.000000e+00	0.000000e+00	0	0	0.000	0.000
5	Carbon Monoxide	0.000	0	0	0.000	Linear	0.000000e+00	0.000000e+00	0.000000e+00	0.000000e+00	0	0	0.000	0.000

[Compound Results(Ch3)]
# of IDs	2
ID#	Name	R.Time	Area	Height	Conc.	Curve	3rd	2nd	1st	Constant	Area Ratio	Height Ratio	Conc. %	Norm Conc.
1	N2O	2.891	20914	3359	1.000	Linear	0.000000e+00	0.000000e+00	2.091371e+004	0.000000e+00	0	0	100.000	100.000
2	SF6	0.000	0	0	0.000	Linear	0.000000e+00	0.000000e+00	0.000000e+00	0.000000e+00	0	0	0.000	0.000

[Group Results(Ch1)]
# of Groups	0

[Group Results(Ch2)]
# of Groups	0

[Group Results(Ch3)]
# of Groups	0

[Chromatogram (Ch1)]
Interval(msec)	220
# of Points	1091
Start Time(min)	0.002
End Time(min)	3.998
R.Time (min)	Intensity
0.00167	7
0.00533	2
0.00900	2
0.01267	3
0.01633	4
0.02000	4
0.02367	2
0.02733	-1
0.03100	-2
0.03467	-3
0.03833	-4
0.04200	-7
0.04567	-10
0.04933	-16
0.05300	-20
0.05667	-21
0.06033	-17
0.06400	-9
0.06767	-2
0.07133	4
0.07500	5
0.07867	1
0.08233	-5
0.08600	-9
0.08967	-10
0.09333	-13
0.09700	-15
0.10067	-14
0.10433	-8
0.10800	-1
0.11167	5
0.11533	7
0.11900	2
0.12267	-6
0.12633	-18
0.13000	-31
0.13367	-39
0.13733	-42
0.14100	-42
0.14467	-38
0.14833	-29
0.15200	-20
0.15567	-11
0.15933	-2
0.16300	4
0.16667	11
0.17033	12
0.17400	5
0.17767	-7
0.18133	-22
0.18500	-35
0.18867	-41
0.19233	-43
0.19600	-44
0.19967	-41
0.20333	-36
0.20700	-31
0.21067	-25
0.21433	-19
0.21800	-15
0.22167	-13
0.22533	-15
0.22900	-21
0.23267	-25
0.23633	-28
0.24000	-31
0.24367	-34
0.24733	-36
0.25100	-31
0.25467	-20
0.25833	-9
0.26200	-5
0.26567	-7
0.26933	-14
0.27300	-23
0.27667	-29
0.28033	-32
0.28400	-31
0.28767	-28
0.29133	-24
0.29500	-22
0.29867	-21
0.30233	-20
0.30600	-17
0.30967	-16
0.31333	-19
0.31700	-27
0.32067	-37
0.32433	-45
0.32800	-53
0.33167	-57
0.33533	-55
0.33900	-47
0.34267	-38
0.34633	-32
0.35000	-29
0.35367	-26
0.35733	-22
0.36100	-22
0.36467	-25
0.36833	-29
0.37200	-33
0.37567	-34
0.37933	-27
0.38300	-15
0.38667	-7
0.39033	-6
0.39400	-12
0.39767	-22
0.40133	-34
0.40500	-47
0.40867	-57
0.41233	-64
0.41600	-68
0.41967	-67
0.42333	-60
0.42700	-51
0.43067	-41
0.43433	-33
0.43800	-28
0.44167	-31
0.44533	-36
0.44900	-38
0.45267	-38
0.45633	-37
0.46000	-37
0.46367	-38
0.46733	-39
0.47100	-40
0.47467	-42
0.47833	-46
0.48200	-47
0.48567	-46
0.48933	-44
0.49300	-40
0.49667	-34
0.50033	-24
0.50400	-17
0.50767	-19
0.51133	-24
0.51500	-33
0.51867	-41
0.52233	-44
0.52600	-46
0.52967	-50
0.53333	-56
0.53700	-59
0.54067	-60
0.54433	-59
0.54800	-55
0.55167	-52
0.55533	-53
0.55900	-54
0.56267	-53
0.56633	-53
0.57000	-53
0.57367	-52
0.57733	-51
0.58100	-49
0.58467	-48
0.58833	-49
0.59200	-53
0.59567	-57
0.59933	-57
0.60300	-56
0.60667	-54
0.61033	-53
0.61400	-51
0.61767	-50
0.62133	-49
0.62500	-48
0.62867	-46
0.63233	-45
0.63600	-47
0.63967	-54
0.64333	-62
0.64700	-69
0.65067	-71
0.65433	-67
0.65800	-61
0.66167	-55
0.66533	-52
0.66900	-53
0.67267	-57
0.67633	-60
0.68000	-63
0.68367	-65
0.68733	-66
0.69100	-70
0.69467	-73
0.69833	-75
0.70200	-75
0.70567	-73
0.70933	-69
0.71300	-65
0.71667	-61
0.72033	-61
0.72400	-61
0.72767	-60
0.73133	-57
0.73500	-55
0.73867	-54
0.74233	-56
0.74600	-58
0.74967	-60
0.75333	-61
0.75700	-61
0.76067	-61
0.76433	-61
0.76800	-61
0.77167	-62
0.77533	-64
0.77900	-67
0.78267	-70
0.78633	-72
0.79000	-72
0.79367	-72
0.79733	-72
0.80100	-70
0.80467	-69
0.80833	-68
0.81200	-72
0.81567	-77
0.81933	-80
0.82300	-81
0.82667	-83
0.83033	-86
0.83400	-87
0.83767	-88
0.84133	-85
0.84500	-82
0.84867	-79
0.85233	-73
0.85600	-68
0.85967	-69
0.86333	-77
0.86700	-85
0.87067	-91
0.87433	-96
0.87800	-100
0.88167	-99
0.88533	-95
0.88900	-91
0.89267	-86
0.89633	-82
0.90000	-80
0.90367	-80
0.90733	-81
0.91100	-80
0.91467	-80
0.91833	-81
0.92200	-82
0.92567	-82
0.92933	-82
0.93300	-79
0.93667	-75
0.94033	-73
0.94400	-73
0.94767	-75
0.95133	-77
0.95500	-78
0.95867	-79
0.96233	-83
0.96600	-83
0.96967	-80
0.97333	-73
0.97700	-66
0.98067	-62
0.98433	-61
0.98800	-62
0.99167	-65
0.99533	-70
0.99900	-78
1.00267	-87
1.00633	-94
1.01000	-96
1.01367	-97
1.01733	-99
1.02100	-97
1.02467	-89
1.02833	-80
1.03200	-77
1.03567	-82
1.03933	-91
1.04300	-98
1.04667	-102
1.05033	-100
1.05400	-96
1.05767	-92
1.06133	-89
1.06500	-86
1.06867	-84
1.07233	-81
1.07600	-79
1.07967	-82
1.08333	-89
1.08700	-95
1.09067	-97
1.09433	-98
1.09800	-97
1.10167	-97
1.10533	-95
1.10900	-88
1.11267	-80
1.11633	-79
1.12000	-85
1.12367	-93
1.12733	-98
1.13100	-99
1.13467	-101
1.13833	-102
1.14200	-102
1.14567	-99
1.14933	-95
1.15300	-92
1.15667	-89
1.16033	-88
1.16400	-89
1.16767	-91
1.17133	-90
1.17500	-90
1.17867	-96
1.18233	-105
1.18600	-113
1.18967	-115
1.19333	-110
1.19700	-103
1.20067	-96
1.20433	-88
1.20800	-88
1.21167	-92
1.21533	-95
1.21900	-96
1.22267	-99
1.22633	-103
1.23000	-105
1.23367	-105
1.23733	-106
1.24100	-106
1.24467	-103
1.24833	-99
1.25200	-99
1.25567	-100
1.25933	-101
1.26300	-106
1.26667	-112
1.27033	-117
1.27400	-117
1.27767	-113
1.28133	-109
1.28500	-105
1.28867	-104
1.29233	-103
1.29600	-102
1.29967	-105
1.30333	-109
1.30700	-113
1.31067	-116
1.31433	-117
1.31800	-115
1.32167	-111
1.32533	-106
1.32900	-100
1.33267	-96
1.33633	-95
1.34000	-94
1.34367	-94
1.34733	-95
1.35100	-99
1.35467	-107
1.35833	-117
1.36200	-124
1.36567	-128
1.36933	-128
1.37300	-125
1.37667	-116
1.38033	-106
1.38400	-99
1.38767	-96
1.39133	-98
1.39500	-104
1.39867	-110
1.40233	-112
1.40600	-112
1.40967	-108
1.41333	-103
1.41700	-100
1.42067	-107
1.42433	-119
1.42800	-129
1.43167	-134
1.43533	-130
1.43900	-124
1.44267	-118
1.44633	-114
1.45000	-104
1.45367	-38
1.45733	139
1.46100	408
1.46467	764
1.46833	1283
1.47200	1987
1.47567	2736
1.47933	3298
1.48300	3493
1.48667	3299
1.49033	2831
1.49400	2253
1.49767	1694
1.50133	1223
1.50500	858
1.50867	589
1.51233	397
1.51600	261
1.51967	160
1.52333	89
1.52700	43
1.53067	12
1.53433	-7
1.53800	-18
1.54167	-25
1.54533	-30
1.54900	-27
1.55267	8
1.55633	125
1.56000	373
1.56367	735
1.56733	1117
1.57100	1393
1.57467	1475
1.57833	1359
1.58200	1113
1.58567	825
1.58933	562
1.59300	354
1.59667	200
1.60033	88
1.60400	11
1.60767	-39
1.61133	-68
1.61500	-84
1.61867	-97
1.62233	-108
1.62600	-116
1.62967	-124
1.63333	-128
1.63700	-126
1.64067	-123
1.64433	-123
1.64800	-126
1.65167	-130
1.65533	-129
1.65900	-126
1.66267	-121
1.66633	-118
1.67000	-117
1.67367	-121
1.67733	-127
1.68100	-131
1.68467	-133
1.68833	-134
1.69200	-134
1.69567	-132
1.69933	-128
1.70300	-119
1.70667	-113
1.71033	-113
1.71400	-118
1.71767	-127
1.72133	-132
1.72500	-130
1.72867	-125
1.73233	-124
1.73600	-126
1.73967	-129
1.74333	-132
1.74700	-136
1.75067	-141
1.75433	-145
1.75800	-144
1.76167	-138
1.76533	-129
1.76900	-122
1.77267	-118
1.77633	-114
1.78000	-113
1.78367	-111
1.78733	-113
1.79100	-118
1.79467	-128
1.79833	-136
1.80200	-141
1.80567	-142
1.80933	-141
1.81300	-137
1.81667	-132
1.82033	-128
1.82400	-127
1.82767	-130
1.83133	-131
1.83500	-131
1.83867	-132
1.84233	-135
1.84600	-137
1.84967	-134
1.85333	-128
1.85700	-124
1.86067	-125
1.86433	-126
1.86800	-124
1.87167	-119
1.87533	-117
1.87900	-123
1.88267	-130
1.88633	-133
1.89000	-134
1.89367	-135
1.89733	-138
1.90100	-143
1.90467	-147
1.90833	-149
1.91200	-147
1.91567	-139
1.91933	-130
1.92300	-119
1.92667	-111
1.93033	-105
1.93400	-101
1.93767	-98
1.94133	-97
1.94500	-99
1.94867	-103
1.95233	-108
1.95600	-113
1.95967	-113
1.96333	-98
1.96700	-23
1.97067	361
1.97433	2073
1.97800	8134
1.98167	24791
1.98533	60587
1.98900	120744
1.99267	199712
1.99633	279498
2.00000	337718
2.00367	358907
2.00733	341484
2.01100	296025
2.01467	237866
2.01833	180182
2.02200	130727
2.02567	92150
2.02933	63904
2.03300	44077
2.03667	30530
2.04033	21416
2.04400	15328
2.04767	11258
2.05133	8518
2.05500	6652
2.05867	5355
2.06233	4434
2.06600	3761
2.06967	3254
2.07333	2858
2.07700	2544
2.08067	2288
2.08433	2075
2.08800	1896
2.09167	1742
2.09533	1608
2.09900	1490
2.10267	1386
2.10633	1296
2.11000	1218
2.11367	1149
2.11733	1084
2.12100	1025
2.12467	971
2.12833	924
2.13200	879
2.13567	837
2.13933	797
2.14300	761
2.14667	729
2.15033	702
2.15400	675
2.15767	649
2.16133	626
2.16500	604
2.16867	581
2.17233	559
2.17600	535
2.17967	510
2.18333	490
2.18700	474
2.19067	460
2.19433	442
2.19800	425
2.20167	417
2.20533	416
2.20900	414
2.21267	408
2.21633	398
2.22000	381
2.22367	359
2.22733	337
2.23100	322
2.23467	313
2.23833	307
2.24200	302
2.24567	296
2.24933	290
2.25300	281
2.25667	273
2.26033	266
2.26400	260
2.26767	255
2.27133	252
2.27500	250
2.27867	245
2.28233	236
2.28600	226
2.28967	217
2.29333	205
2.29700	193
2.30067	183
2.30433	176
2.30800	173
2.31167	171
2.31533	169
2.31900	167
2.32267	169
2.32633	174
2.33000	177
2.33367	176
2.33733	173
2.34100	171
2.34467	170
2.34833	169
2.35200	166
2.35567	160
2.35933	153
2.36300	147
2.36667	146
2.37033	147
2.37400	146
2.37767	144
2.38133	144
2.38500	139
2.38867	133
2.39233	126
2.39600	118
2.39967	113
2.40333	112
2.40700	113
2.41067	113
2.41433	113
2.41800	114
2.42167	118
2.42533	121
2.42900	120
2.43267	116
2.43633	110
2.44000	106
2.44367	106
2.44733	108
2.45100	111
2.45467	112
2.45833	111
2.46200	110
2.46567	108
2.46933	105
2.47300	103
2.47667	101
2.48033	99
2.48400	96
2.48767	93
2.49133	88
2.49500	84
2.49867	80
2.50233	77
2.50600	75
2.50967	73
2.51333	70
2.51700	69
2.52067	70
2.52433	72
2.52800	74
2.53167	78
2.53533	81
2.53900	85
2.54267	82
2.54633	76
2.55000	66
2.55367	58
2.55733	57
2.56100	56
2.56467	54
2.56833	51
2.57200	51
2.57567	53
2.57933	54
2.58300	50
2.58667	46
2.59033	44
2.59400	41
2.59767	40
2.60133	42
2.60500	50
2.60867	57
2.61233	59
2.61600	57
2.61967	54
2.62333	50
2.62700	48
2.63067	51
2.63433	56
2.63800	60
2.64167	61
2.64533	57
2.64900	52
2.65267	45
2.65633	35
2.66000	29
2.66367	26
2.66733	23
2.67100	19
2.67467	15
2.67833	16
2.68200	19
2.68567	22
2.68933	25
2.69300	30
2.69667	37
2.70033	41
2.70400	39
2.70767	35
2.71133	28
2.71500	21
2.71867	19
2.72233	21
2.72600	26
2.72967	28
2.73333	27
2.73700	24
2.74067	20
2.74433	18
2.74800	18
2.75167	21
2.75533	27
2.75900	32
2.76267	34
2.76633	35
2.77000	35
2.77367	36
2.77733	34
2.78100	30
2.78467	26
2.78833	24
2.79200	26
2.79567	26
2.79933	26
2.80300	24
2.80667	23
2.81033	20
2.81400	17
2.81767	16
2.82133	16
2.82500	19
2.82867	23
2.83233	28
2.83600	29
2.83967	27
2.84333	25
2.84700	23
2.85067	24
2.85433	29
2.85800	38
2.86167	47
2.86533	52
2.86900	50
2.87267	43
2.87633	33
2.88000	24
2.88367	15
2.88733	9
2.89100	6
2.89467	6
2.89833	6
2.90200	4
2.90567	3
2.90933	1
2.91300	3
2.91667	7
2.92033	10
2.92400	12
2.92767	11
2.93133	11
2.93500	13
2.93867	17
2.94233	20
2.94600	22
2.94967	23
2.95333	26
2.95700	30
2.96067	34
2.96433	36
2.96800	36
2.97167	32
2.97533	26
2.97900	17
2.98267	9
2.98633	4
2.99000	4
2.99367	3
2.99733	4
3.00100	6
3.00467	10
3.00833	11
3.01200	12
3.01567	16
3.01933	24
3.02300	29
3.02667	29
3.03033	27
3.03400	24
3.03767	21
3.04133	20
3.04500	22
3.04867	29
3.05233	37
3.05600	43
3.05967	43
3.06333	40
3.06700	37
3.07067	35
3.07433	32
3.07800	26
3.08167	20
3.08533	16
3.08900	15
3.09267	15
3.09633	16
3.10000	18
3.10367	20
3.10733	24
3.11100	29
3.11467	31
3.11833	31
3.12200	29
3.12567	22
3.12933	12
3.13300	6
3.13667	4
3.14033	5
3.14400	9
3.14767	12
3.15133	14
3.15500	12
3.15867	6
3.16233	-2
3.16600	-9
3.16967	-13
3.17333	-11
3.17700	-4
3.18067	6
3.18433	12
3.18800	12
3.19167	6
3.19533	-2
3.19900	-6
3.20267	-5
3.20633	1
3.21000	8
3.21367	13
3.21733	14
3.22100	16
3.22467	17
3.22833	16
3.23200	14
3.23567	12
3.23933	14
3.24300	21
3.24667	29
3.25033	33
3.25400	32
3.25767	28
3.26133	23
3.26500	20
3.26867	20
3.27233	20
3.27600	17
3.27967	15
3.28333	12
3.28700	10
3.29067	9
3.29433	11
3.29800	14
3.30167	18
3.30533	23
3.30900	26
3.31267	28
3.31633	27
3.32000	23
3.32367	15
3.32733	6
3.33100	-1
3.33467	-5
3.33833	-7
3.34200	-5
3.34567	1
3.34933	9
3.35300	19
3.35667	24
3.36033	21
3.36400	12
3.36767	3
3.37133	-1
3.37500	-0
3.37867	2
3.38233	5
3.38600	10
3.38967	13
3.39333	11
3.39700	6
3.40067	2
3.40433	2
3.40800	4
3.41167	6
3.41533	4
3.41900	2
3.42267	1
3.42633	3
3.43000	5
3.43367	5
3.43733	5
3.44100	3
3.44467	-3
3.44833	-7
3.45200	-9
3.45567	-6
3.45933	-1
3.46300	2
3.46667	2
3.47033	-1
3.47400	-3
3.47767	2
3.48133	9
3.48500	13
3.48867	12
3.49233	9
3.49600	5
3.49967	-1
3.50333	-4
3.50700	-5
3.51067	-7
3.51433	-8
3.51800	-7
3.52167	-7
3.52533	-6
3.52900	-5
3.53267	-4
3.53633	-3
3.54000	-2
3.54367	-2
3.54733	-3
3.55100	-3
3.55467	-2
3.55833	3
3.56200	10
3.56567	16
3.56933	16
3.57300	14
3.57667	15
3.58033	17
3.58400	14
3.58767	4
3.59133	-5
3.59500	-11
3.59867	-11
3.60233	-6
3.60600	1
3.60967	5
3.61333	1
3.61700	-9
3.62067	-21
3.62433	-33
3.62800	-37
3.63167	-38
3.63533	-34
3.63900	-28
3.64267	-20
3.64633	-13
3.65000	-10
3.65367	-11
3.65733	-12
3.66100	-11
3.66467	-10
3.66833	-14
3.67200	-17
3.67567	-20
3.67933	-22
3.68300	-21
3.68667	-17
3.69033	-12
3.69400	-10
3.69767	-9
3.70133	-10
3.70500	-13
3.70867	-18
3.71233	-22
3.71600	-25
3.71967	-26
3.72333	-27
3.72700	-29
3.73067	-26
3.73433	-22
3.73800	-18
3.74167	-14
3.74533	-9
3.74900	-4
3.75267	-4
3.75633	-10
3.76000	-15
3.76367	-22
3.76733	-30
3.77100	-36
3.77467	-40
3.77833	-41
3.78200	-42
3.78567	-43
3.78933	-41
3.79300	-37
3.79667	-35
3.80033	-35
3.80400	-38
3.80767	-43
3.81133	-48
3.81500	-49
3.81867	-45
3.82233	-42
3.82600	-40
3.82967	-43
3.83333	-45
3.83700	-43
3.84067	-38
3.84433	-35
3.84800	-34
3.85167	-35
3.85533	-37
3.85900	-42
3.86267	-45
3.86633	-43
3.87000	-37
3.87367	-28
3.87733	-22
3.88100	-22
3.88467	-25
3.88833	-28
3.89200	-29
3.89567	-27
3.89933	-23
3.90300	-21
3.90667	-23
3.91033	-28
3.91400	-33
3.91767	-34
3.92133	-29
3.92500	-23
3.92867	-22
3.93233	-25
3.93600	-28
3.93967	-31
3.94333	-32
3.94700	-35
3.95067	-39
3.95433	-43
3.95800	-43
3.96167	-40
3.96533	-36
3.96900	-32
3.97267	-31
3.97633	-33
3.98000	-34
3.98367	-34
3.98733	-36
3.99100	-39
3.99467	-42
3.99833	-45

[Chromatogram (Ch2)]
Interval(msec)	220
# of Points	1091
Start Time(min)	0.002
End Time(min)	3.998
R.Time (min)	Intensity
0.00167	0
0.00533	0
0.00900	0
0.01267	1
0.01633	1
0.02000	1
0.02367	1
0.02733	1
0.03100	1
0.03467	1
0.03833	1
0.04200	2
0.04567	2
0.04933	2
0.05300	2
0.05667	2
0.06033	3
0.06400	3
0.06767	3
0.07133	3
0.07500	3
0.07867	3
0.08233	3
0.08600	3
0.08967	3
0.09333	3
0.09700	3
0.10067	3
0.10433	3
0.10800	2
0.11167	2
0.11533	2
0.11900	2
0.12267	2
0.12633	2
0.13000	2
0.13367	2
0.13733	2
0.14100	2
0.14467	2
0.14833	3
0.15200	3
0.15567	3
0.15933	2
0.16300	2
0.16667	2
0.17033	2
0.17400	2
0.17767	2
0.18133	2
0.18500	2
0.18867	1
0.19233	1
0.19600	1
0.19967	1
0.20333	1
0.20700	1
0.21067	1
0.21433	1
0.21800	1
0.22167	1
0.22533	1
0.22900	1
0.23267	0
0.23633	0
0.24000	0
0.24367	-0
0.24733	-0
0.25100	-0
0.25467	-0
0.25833	-0
0.26200	-0
0.26567	-0
0.26933	-0
0.27300	-0
0.27667	-0
0.28033	-0
0.28400	-0
0.28767	-0
0.29133	-0
0.29500	-0
0.29867	-0
0.30233	-1
0.30600	-1
0.30967	-1
0.31333	-1
0.31700	-1
0.32067	-1
0.32433	-1
0.32800	-1
0.33167	-2
0.33533	-2
0.33900	-2
0.34267	-1
0.34633	-1
0.35000	-1
0.35367	-1
0.35733	-1
0.36100	-1
0.36467	-1
0.36833	-1
0.37200	-1
0.37567	-1
0.37933	-1
0.38300	-1
0.38667	-1
0.39033	-0
0.39400	-0
0.39767	0
0.40133	0
0.40500	1
0.40867	1
0.41233	1
0.41600	1
0.41967	1
0.42333	1
0.42700	1
0.43067	1
0.43433	1
0.43800	1
0.44167	1
0.44533	1
0.44900	1
0.45267	1
0.45633	1
0.46000	1
0.46367	1
0.46733	1
0.47100	1
0.47467	1
0.47833	1
0.48200	0
0.48567	0
0.48933	-0
0.49300	-0
0.49667	-0
0.50033	-0
0.50400	-0
0.50767	-0
0.51133	-0
0.51500	-0
0.51867	-1
0.52233	-1
0.52600	-1
0.52967	-1
0.53333	-1
0.53700	-1
0.54067	-1
0.54433	-1
0.54800	-1
0.55167	-1
0.55533	-1
0.55900	-1
0.56267	-1
0.56633	-1
0.57000	-1
0.57367	-1
0.57733	-1
0.58100	-1
0.58467	-1
0.58833	-1
0.59200	-1
0.59567	-1
0.59933	-1
0.60300	-1
0.60667	-1
0.61033	-1
0.61400	-1
0.61767	-1
0.62133	-1
0.62500	-0
0.62867	-0
0.63233	-0
0.63600	-0
0.63967	-0
0.64333	-0
0.64700	-1
0.65067	-1
0.65433	-1
0.65800	-1
0.66167	-2
0.66533	-2
0.66900	-2
0.67267	-2
0.67633	-2
0.68000	-2
0.68367	-2
0.68733	-2
0.69100	-2
0.69467	-2
0.69833	-2
0.70200	-2
0.70567	-2
0.70933	-2
0.71300	-2
0.71667	-2
0.72033	-2
0.72400	-2
0.72767	-1
0.73133	-1
0.73500	-1
0.73867	-0
0.74233	-0
0.74600	-0
0.74967	-0
0.75333	-0
0.75700	-0
0.76067	0
0.76433	0
0.76800	0
0.77167	0
0.77533	0
0.77900	0
0.78267	1
0.78633	1
0.79000	1
0.79367	1
0.79733	1
0.80100	1
0.80467	1
0.80833	1
0.81200	2
0.81567	2
0.81933	2
0.82300	1
0.82667	1
0.83033	1
0.83400	1
0.83767	1
0.84133	1
0.84500	1
0.84867	1
0.85233	1
0.85600	0
0.85967	-0
0.86333	-0
0.86700	-1
0.87067	-1
0.87433	-1
0.87800	-1
0.88167	-1
0.88533	-1
0.88900	-1
0.89267	-1
0.89633	-1
0.90000	-2
0.90367	-2
0.90733	-2
0.91100	-2
0.91467	-1
0.91833	-1
0.92200	-1
0.92567	-1
0.92933	-1
0.93300	-1
0.93667	-0
0.94033	-0
0.94400	-0
0.94767	-0
0.95133	-0
0.95500	0
0.95867	0
0.96233	0
0.96600	-0
0.96967	-0
0.97333	-0
0.97700	-1
0.98067	-1
0.98433	-1
0.98800	-2
0.99167	-2
0.99533	-2
0.99900	-3
1.00267	-3
1.00633	-3
1.01000	-3
1.01367	-3
1.01733	-3
1.02100	-3
1.02467	-3
1.02833	-3
1.03200	-3
1.03567	-3
1.03933	-3
1.04300	-3
1.04667	-3
1.05033	-3
1.05400	-3
1.05767	-3
1.06133	-2
1.06500	-2
1.06867	-2
1.07233	-1
1.07600	-1
1.07967	-1
1.08333	-1
1.08700	-1
1.09067	-1
1.09433	-1
1.09800	-1
1.10167	-1
1.10533	-1
1.10900	-1
1.11267	-1
1.11633	-0
1.12000	-0
1.12367	-0
1.12733	-0
1.13100	-0
1.13467	-0
1.13833	-0
1.14200	-1
1.14567	-1
1.14933	-1
1.15300	-1
1.15667	-1
1.16033	-1
1.16400	-1
1.16767	-1
1.17133	-1
1.17500	-1
1.17867	-1
1.18233	-1
1.18600	-0
1.18967	-0
1.19333	-0
1.19700	-1
1.20067	-1
1.20433	-1
1.20800	-1
1.21167	-1
1.21533	-0
1.21900	-0
1.22267	-1
1.22633	-1
1.23000	-1
1.23367	-1
1.23733	-1
1.24100	-2
1.24467	-2
1.24833	-1
1.25200	-1
1.25567	-1
1.25933	-1
1.26300	-1
1.26667	-1
1.27033	-1
1.27400	-0
1.27767	-0
1.28133	0
1.28500	1
1.28867	1
1.29233	1
1.29600	0
1.29967	0
1.30333	0
1.30700	-0
1.31067	-0
1.31433	-1
1.31800	-1
1.32167	-1
1.32533	-1
1.32900	-1
1.33267	-1
1.33633	-1
1.34000	-1
1.34367	-1
1.34733	-1
1.35100	-2
1.35467	-2
1.35833	-2
1.36200	-2
1.36567	-3
1.36933	-3
1.37300	-3
1.37667	-3
1.38033	-3
1.38400	-2
1.38767	-2
1.39133	-2
1.39500	-2
1.39867	-2
1.40233	-2
1.40600	-2
1.40967	-2
1.41333	-1
1.41700	-1
1.42067	-1
1.42433	-1
1.42800	-1
1.43167	-0
1.43533	-0
1.43900	-0
1.44267	-0
1.44633	-0
1.45000	-0
1.45367	-0
1.45733	-0
1.46100	-0
1.46467	-0
1.46833	-0
1.47200	-0
1.47567	-0
1.47933	-0
1.48300	-0
1.48667	-0
1.49033	-0
1.49400	-0
1.49767	0
1.50133	0
1.50500	0
1.50867	-0
1.51233	-0
1.51600	-0
1.51967	-1
1.52333	-1
1.52700	-1
1.53067	-1
1.53433	-1
1.53800	-1
1.54167	-1
1.54533	-0
1.54900	-0
1.55267	-1
1.55633	-0
1.56000	-0
1.56367	-0
1.56733	-1
1.57100	-1
1.57467	-1
1.57833	-1
1.58200	-1
1.58567	-2
1.58933	-2
1.59300	-2
1.59667	-3
1.60033	-4
1.60400	-5
1.60767	-6
1.61133	-7
1.61500	-9
1.61867	-11
1.62233	-13
1.62600	-16
1.62967	-19
1.63333	-22
1.63700	-25
1.64067	-29
1.64433	-32
1.64800	-36
1.65167	-40
1.65533	-44
1.65900	-48
1.66267	-52
1.66633	-56
1.67000	-61
1.67367	-66
1.67733	-71
1.68100	-76
1.68467	-82
1.68833	-86
1.69200	-90
1.69567	-94
1.69933	-97
1.70300	-100
1.70667	-103
1.71033	-104
1.71400	-106
1.71767	-107
1.72133	-108
1.72500	-109
1.72867	-109
1.73233	-110
1.73600	-111
1.73967	-112
1.74333	-113
1.74700	-114
1.75067	-115
1.75433	-115
1.75800	-116
1.76167	-116
1.76533	-116
1.76900	-116
1.77267	-115
1.77633	-115
1.78000	-115
1.78367	-115
1.78733	-115
1.79100	-116
1.79467	-117
1.79833	-118
1.80200	-118
1.80567	-119
1.80933	-120
1.81300	-120
1.81667	-120
1.82033	-120
1.82400	-120
1.82767	-120
1.83133	-120
1.83500	-120
1.83867	-119
1.84233	-119
1.84600	-119
1.84967	-119
1.85333	-119
1.85700	-119
1.86067	-119
1.86433	-119
1.86800	-119
1.87167	-119
1.87533	-119
1.87900	-119
1.88267	-118
1.88633	-118
1.89000	-118
1.89367	-118
1.89733	-118
1.90100	-118
1.90467	-117
1.90833	-117
1.91200	-117
1.91567	-117
1.91933	-117
1.92300	-116
1.92667	-116
1.93033	-115
1.93400	-114
1.93767	-114
1.94133	-113
1.94500	-113
1.94867	-113
1.95233	-113
1.95600	-113
1.95967	-113
1.96333	-113
1.96700	-113
1.97067	-113
1.97433	-113
1.97800	-113
1.98167	-113
1.98533	-113
1.98900	-113
1.99267	-113
1.99633	-113
2.00000	-113
2.00367	-113
2.00733	-112
2.01100	-112
2.01467	-112
2.01833	-112
2.02200	-112
2.02567	-112
2.02933	-112
2.03300	-111
2.03667	-110
2.04033	-109
2.04400	-109
2.04767	-108
2.05133	-107
2.05500	-107
2.05867	-106
2.06233	-106
2.06600	-105
2.06967	-105
2.07333	-105
2.07700	-105
2.08067	-105
2.08433	-105
2.08800	-105
2.09167	-104
2.09533	-104
2.09900	-104
2.10267	-103
2.10633	-103
2.11000	-103
2.11367	-102
2.11733	-102
2.12100	-102
2.12467	-102
2.12833	-103
2.13200	-103
2.13567	-103
2.13933	-102
2.14300	-102
2.14667	-101
2.15033	-100
2.15400	-100
2.15767	-99
2.16133	-98
2.16500	-98
2.16867	-98
2.17233	-98
2.17600	-97
2.17967	-97
2.18333	-97
2.18700	-96
2.19067	-96
2.19433	-95
2.19800	-94
2.20167	-94
2.20533	-93
2.20900	-93
2.21267	-92
2.21633	-92
2.22000	-92
2.22367	-93
2.22733	-92
2.23100	-92
2.23467	-92
2.23833	-91
2.24200	-91
2.24567	-90
2.24933	-90
2.25300	-89
2.25667	-89
2.26033	-89
2.26400	-88
2.26767	-88
2.27133	-87
2.27500	-87
2.27867	-87
2.28233	-87
2.28600	-87
2.28967	-88
2.29333	-88
2.29700	-88
2.30067	-87
2.30433	-86
2.30800	-85
2.31167	-84
2.31533	-83
2.31900	-83
2.32267	-83
2.32633	-83
2.33000	-84
2.33367	-85
2.33733	-85
2.34100	-85
2.34467	-85
2.34833	-84
2.35200	-83
2.35567	-81
2.35933	-79
2.36300	-77
2.36667	-75
2.37033	-73
2.37400	-70
2.37767	-68
2.38133	-64
2.38500	-61
2.38867	-57
2.39233	-53
2.39600	-49
2.39967	-45
2.40333	-42
2.40700	-38
2.41067	-34
2.41433	-30
2.41800	-26
2.42167	-22
2.42533	-19
2.42900	-16
2.43267	-14
2.43633	-12
2.44000	-10
2.44367	-9
2.44733	-7
2.45100	-6
2.45467	-5
2.45833	-3
2.46200	-2
2.46567	-1
2.46933	1
2.47300	2
2.47667	4
2.48033	5
2.48400	5
2.48767	6
2.49133	7
2.49500	8
2.49867	9
2.50233	10
2.50600	11
2.50967	11
2.51333	12
2.51700	13
2.52067	13
2.52433	14
2.52800	14
2.53167	14
2.53533	14
2.53900	15
2.54267	15
2.54633	16
2.55000	16
2.55367	17
2.55733	18
2.56100	18
2.56467	18
2.56833	18
2.57200	18
2.57567	17
2.57933	17
2.58300	17
2.58667	18
2.59033	18
2.59400	18
2.59767	19
2.60133	19
2.60500	19
2.60867	18
2.61233	18
2.61600	17
2.61967	17
2.62333	18
2.62700	18
2.63067	19
2.63433	20
2.63800	20
2.64167	21
2.64533	21
2.64900	22
2.65267	22
2.65633	23
2.66000	23
2.66367	24
2.66733	24
2.67100	24
2.67467	24
2.67833	23
2.68200	23
2.68567	23
2.68933	23
2.69300	23
2.69667	23
2.70033	23
2.70400	23
2.70767	24
2.71133	24
2.71500	25
2.71867	25
2.72233	26
2.72600	26
2.72967	26
2.73333	26
2.73700	25
2.74067	25
2.74433	24
2.74800	24
2.75167	23
2.75533	23
2.75900	23
2.76267	24
2.76633	24
2.77000	24
2.77367	24
2.77733	25
2.78100	25
2.78467	25
2.78833	26
2.79200	26
2.79567	27
2.79933	27
2.80300	27
2.80667	27
2.81033	27
2.81400	28
2.81767	28
2.82133	28
2.82500	28
2.82867	28
2.83233	28
2.83600	28
2.83967	28
2.84333	28
2.84700	27
2.85067	27
2.85433	27
2.85800	27
2.86167	27
2.86533	26
2.86900	26
2.87267	25
2.87633	22
2.88000	18
2.88367	12
2.88733	3
2.89100	-9
2.89467	-25
2.89833	-44
2.90200	-67
2.90567	-94
2.90933	-124
2.91300	-157
2.91667	-192
2.92033	-230
2.92400	-271
2.92767	-313
2.93133	-356
2.93500	-401
2.93867	-450
2.94233	-501
2.94600	-549
2.94967	-588
2.95333	-612
2.95700	-619
2.96067	-609
2.96433	-585
2.96800	-551
2.97167	-510
2.97533	-465
2.97900	-418
2.98267	-372
2.98633	-328
2.99000	-286
2.99367	-248
2.99733	-214
3.00100	-183
3.00467	-156
3.00833	-131
3.01200	-110
3.01567	-92
3.01933	-76
3.02300	-62
3.02667	-50
3.03033	-40
3.03400	-31
3.03767	-23
3.04133	-17
3.04500	-11
3.04867	-6
3.05233	-2
3.05600	1
3.05967	4
3.06333	7
3.06700	9
3.07067	11
3.07433	12
3.07800	13
3.08167	15
3.08533	16
3.08900	17
3.09267	17
3.09633	18
3.10000	19
3.10367	19
3.10733	20
3.11100	20
3.11467	20
3.11833	20
3.12200	20
3.12567	21
3.12933	21
3.13300	21
3.13667	21
3.14033	21
3.14400	21
3.14767	22
3.15133	22
3.15500	22
3.15867	23
3.16233	23
3.16600	23
3.16967	23
3.17333	23
3.17700	23
3.18067	23
3.18433	23
3.18800	23
3.19167	23
3.19533	23
3.19900	23
3.20267	23
3.20633	24
3.21000	24
3.21367	24
3.21733	24
3.22100	24
3.22467	24
3.22833	24
3.23200	24
3.23567	24
3.23933	24
3.24300	25
3.24667	25
3.25033	25
3.25400	25
3.25767	26
3.26133	26
3.26500	26
3.26867	26
3.27233	26
3.27600	26
3.27967	26
3.28333	26
3.28700	26
3.29067	26
3.29433	26
3.29800	26
3.30167	26
3.30533	26
3.30900	26
3.31267	26
3.31633	26
3.32000	26
3.32367	26
3.32733	26
3.33100	26
3.33467	26
3.33833	26
3.34200	26
3.34567	26
3.34933	26
3.35300	26
3.35667	26
3.36033	26
3.36400	27
3.36767	27
3.37133	27
3.37500	27
3.37867	27
3.38233	27
3.38600	27
3.38967	27
3.39333	27
3.39700	28
3.40067	28
3.40433	28
3.40800	29
3.41167	29
3.41533	30
3.41900	30
3.42267	30
3.42633	30
3.43000	30
3.43367	30
3.43733	30
3.44100	30
3.44467	30
3.44833	31
3.45200	31
3.45567	30
3.45933	30
3.46300	30
3.46667	30
3.47033	30
3.47400	30
3.47767	29
3.48133	29
3.48500	29
3.48867	29
3.49233	29
3.49600	29
3.49967	29
3.50333	29
3.50700	29
3.51067	29
3.51433	29
3.51800	30
3.52167	30
3.52533	30
3.52900	30
3.53267	30
3.53633	30
3.54000	30
3.54367	30
3.54733	29
3.55100	29
3.55467	29
3.55833	29
3.56200	29
3.56567	29
3.56933	29
3.57300	29
3.57667	28
3.58033	28
3.58400	28
3.58767	28
3.59133	29
3.59500	29
3.59867	29
3.60233	29
3.60600	29
3.60967	29
3.61333	29
3.61700	29
3.62067	29
3.62433	29
3.62800	28
3.63167	28
3.63533	27
3.63900	27
3.64267	27
3.64633	27
3.65000	27
3.65367	26
3.65733	26
3.66100	26
3.66467	27
3.66833	27
3.67200	27
3.67567	27
3.67933	27
3.68300	27
3.68667	27
3.69033	27
3.69400	27
3.69767	27
3.70133	27
3.70500	27
3.70867	27
3.71233	27
3.71600	27
3.71967	27
3.72333	27
3.72700	27
3.73067	26
3.73433	27
3.73800	27
3.74167	27
3.74533	27
3.74900	27
3.75267	27
3.75633	27
3.76000	27
3.76367	27
3.76733	27
3.77100	27
3.77467	27
3.77833	27
3.78200	27
3.78567	27
3.78933	27
3.79300	27
3.79667	27
3.80033	27
3.80400	27
3.80767	27
3.81133	27
3.81500	27
3.81867	27
3.82233	27
3.82600	27
3.82967	27
3.83333	27
3.83700	27
3.84067	27
3.84433	27
3.84800	27
3.85167	27
3.85533	27
3.85900	27
3.86267	27
3.86633	27
3.87000	27
3.87367	27
3.87733	27
3.88100	27
3.88467	27
3.88833	27
3.89200	27
3.89567	27
3.89933	27
3.90300	27
3.90667	27
3.91033	27
3.91400	27
3.91767	27
3.92133	27
3.92500	27
3.92867	27
3.93233	28
3.93600	28
3.93967	28
3.94333	27
3.94700	27
3.95067	27
3.95433	27
3.95800	27
3.96167	27
3.96533	27
3.96900	28
3.97267	28
3.97633	28
3.98000	28
3.98367	28
3.98733	28
3.99100	28
3.99467	27
3.99833	27

[Chromatogram (Ch3)]
Interval(msec)	220
# of Points	1091
Start Time(min)	0.002
End Time(min)	3.998
R.Time (min)	Intensity
0.00167	1
0.00533	3
0.00900	4
0.01267	3
0.01633	1
0.02000	-1
0.02367	-1
0.02733	0
0.03100	-0
0.03467	0
0.03833	2
0.04200	-1
0.04567	-5
0.04933	-5
0.05300	-7
0.05667	-7
0.06033	-5
0.06400	-4
0.06767	-2
0.07133	1
0.07500	2
0.07867	2
0.08233	0
0.08600	0
0.08967	-0
0.09333	-2
0.09700	-3
0.10067	-3
0.10433	-3
0.10800	-4
0.11167	-4
0.11533	-2
0.11900	0
0.12267	3
0.12633	1
0.13000	-1
0.13367	-3
0.13733	-5
0.14100	-7
0.14467	-4
0.14833	-3
0.15200	-3
0.15567	-5
0.15933	-7
0.16300	-6
0.16667	-5
0.17033	-5
0.17400	-7
0.17767	-6
0.18133	-4
0.18500	-0
0.18867	1
0.19233	1
0.19600	0
0.19967	-0
0.20333	-1
0.20700	-1
0.21067	-1
0.21433	-1
0.21800	-3
0.22167	-2
0.22533	-2
0.22900	-1
0.23267	-1
0.23633	-3
0.24000	-4
0.24367	-5
0.24733	-4
0.25100	-2
0.25467	-2
0.25833	-2
0.26200	-4
0.26567	-4
0.26933	-3
0.27300	-3
0.27667	-4
0.28033	-4
0.28400	-2
0.28767	-1
0.29133	-2
0.29500	-4
0.29867	-8
0.30233	-11
0.30600	-12
0.30967	-15
0.31333	-15
0.31700	-13
0.32067	-12
0.32433	-11
0.32800	-6
0.33167	-4
0.33533	-3
0.33900	-2
0.34267	-4
0.34633	-6
0.35000	-7
0.35367	-9
0.35733	-9
0.36100	-8
0.36467	-9
0.36833	-12
0.37200	-12
0.37567	-11
0.37933	-9
0.38300	-6
0.38667	-2
0.39033	-5
0.39400	-9
0.39767	-7
0.40133	-6
0.40500	-5
0.40867	-5
0.41233	-4
0.41600	-4
0.41967	-4
0.42333	-4
0.42700	-4
0.43067	-3
0.43433	-3
0.43800	-1
0.44167	-1
0.44533	-4
0.44900	-7
0.45267	-8
0.45633	-9
0.46000	-11
0.46367	-13
0.46733	-12
0.47100	-10
0.47467	-9
0.47833	-11
0.48200	-10
0.48567	-8
0.48933	-7
0.49300	-6
0.49667	-8
0.50033	-8
0.50400	-9
0.50767	-8
0.51133	-7
0.51500	-7
0.51867	-7
0.52233	-7
0.52600	-5
0.52967	-4
0.53333	-3
0.53700	-3
0.54067	-3
0.54433	-4
0.54800	-8
0.55167	-10
0.55533	-9
0.55900	-7
0.56267	-7
0.56633	-7
0.57000	-7
0.57367	-7
0.57733	-6
0.58100	-5
0.58467	-7
0.58833	-6
0.59200	-6
0.59567	-7
0.59933	-6
0.60300	-7
0.60667	-11
0.61033	-14
0.61400	-15
0.61767	-14
0.62133	-13
0.62500	-11
0.62867	-8
0.63233	-5
0.63600	-5
0.63967	-7
0.64333	-9
0.64700	-10
0.65067	-11
0.65433	-12
0.65800	-13
0.66167	-14
0.66533	-14
0.66900	-13
0.67267	-16
0.67633	-16
0.68000	-14
0.68367	-13
0.68733	-13
0.69100	-12
0.69467	-12
0.69833	-15
0.70200	-14
0.70567	-13
0.70933	-13
0.71300	-12
0.71667	-11
0.72033	-11
0.72400	-11
0.72767	-12
0.73133	-12
0.73500	-11
0.73867	-11
0.74233	-12
0.74600	-13
0.74967	-14
0.75333	-13
0.75700	-14
0.76067	-14
0.76433	-14
0.76800	-15
0.77167	-16
0.77533	-14
0.77900	-15
0.78267	-16
0.78633	-14
0.79000	-12
0.79367	-11
0.79733	-13
0.80100	-13
0.80467	-12
0.80833	-13
0.81200	-12
0.81567	-13
0.81933	-15
0.82300	-16
0.82667	-17
0.83033	-17
0.83400	-17
0.83767	-17
0.84133	-16
0.84500	-15
0.84867	-17
0.85233	-18
0.85600	-19
0.85967	-20
0.86333	-19
0.86700	-18
0.87067	-17
0.87433	-16
0.87800	-15
0.88167	-13
0.88533	-11
0.88900	-9
0.89267	-10
0.89633	-12
0.90000	-12
0.90367	-13
0.90733	-17
0.91100	-20
0.91467	-22
0.91833	-21
0.92200	-20
0.92567	-20
0.92933	-22
0.93300	-24
0.93667	-24
0.94033	-21
0.94400	-21
0.94767	-21
0.95133	-24
0.95500	-23
0.95867	-21
0.96233	-19
0.96600	-19
0.96967	-18
0.97333	-20
0.97700	-22
0.98067	-23
0.98433	-24
0.98800	-22
0.99167	-21
0.99533	-19
0.99900	-17
1.00267	-14
1.00633	-14
1.01000	-14
1.01367	-15
1.01733	-16
1.02100	-16
1.02467	-16
1.02833	-18
1.03200	-18
1.03567	-17
1.03933	-15
1.04300	-14
1.04667	-14
1.05033	-13
1.05400	-13
1.05767	-14
1.06133	-15
1.06500	-14
1.06867	-13
1.07233	-12
1.07600	-14
1.07967	-15
1.08333	-17
1.08700	-21
1.09067	-22
1.09433	-21
1.09800	-18
1.10167	-18
1.10533	-18
1.10900	-19
1.11267	-21
1.11633	-23
1.12000	-23
1.12367	-20
1.12733	-15
1.13100	-12
1.13467	-13
1.13833	-14
1.14200	-12
1.14567	-12
1.14933	-13
1.15300	-15
1.15667	-15
1.16033	-17
1.16400	-17
1.16767	-17
1.17133	-15
1.17500	-15
1.17867	-16
1.18233	-17
1.18600	-17
1.18967	-16
1.19333	-16
1.19700	-19
1.20067	-20
1.20433	-20
1.20800	-18
1.21167	-17
1.21533	-15
1.21900	-15
1.22267	-16
1.22633	-18
1.23000	-18
1.23367	-19
1.23733	-20
1.24100	-21
1.24467	-22
1.24833	-23
1.25200	-23
1.25567	-19
1.25933	-18
1.26300	-17
1.26667	-17
1.27033	-17
1.27400	-18
1.27767	-21
1.28133	-24
1.28500	-25
1.28867	-24
1.29233	-23
1.29600	-22
1.29967	-21
1.30333	-20
1.30700	-20
1.31067	-20
1.31433	-22
1.31800	-23
1.32167	-23
1.32533	-23
1.32900	-22
1.33267	-20
1.33633	-21
1.34000	-23
1.34367	-24
1.34733	-25
1.35100	-25
1.35467	-24
1.35833	-24
1.36200	-25
1.36567	-27
1.36933	-28
1.37300	-27
1.37667	-26
1.38033	-25
1.38400	-26
1.38767	-28
1.39133	-28
1.39500	-26
1.39867	-25
1.40233	-23
1.40600	-23
1.40967	-26
1.41333	-27
1.41700	-28
1.42067	-28
1.42433	-27
1.42800	-25
1.43167	-23
1.43533	-24
1.43900	-25
1.44267	-25
1.44633	-23
1.45000	-22
1.45367	-22
1.45733	-24
1.46100	-27
1.46467	-28
1.46833	-28
1.47200	-26
1.47567	-24
1.47933	-22
1.48300	-22
1.48667	-22
1.49033	-23
1.49400	-24
1.49767	-23
1.50133	-21
1.50500	-18
1.50867	-19
1.51233	-22
1.51600	-22
1.51967	-23
1.52333	-23
1.52700	-22
1.53067	-22
1.53433	-23
1.53800	-23
1.54167	-23
1.54533	-22
1.54900	-21
1.55267	-19
1.55633	-20
1.56000	-20
1.56367	-20
1.56733	-22
1.57100	-22
1.57467	-24
1.57833	-26
1.58200	-25
1.58567	-26
1.58933	-26
1.59300	-24
1.59667	-22
1.60033	-20
1.60400	-19
1.60767	-18
1.61133	-18
1.61500	-17
1.61867	-18
1.62233	-20
1.62600	-21
1.62967	-20
1.63333	-20
1.63700	-22
1.64067	-21
1.64433	-20
1.64800	-20
1.65167	-22
1.65533	-24
1.65900	-23
1.66267	-23
1.66633	-23
1.67000	-23
1.67367	-20
1.67733	-18
1.68100	-17
1.68467	-19
1.68833	-23
1.69200	-25
1.69567	-25
1.69933	-22
1.70300	-21
1.70667	-18
1.71033	-17
1.71400	-17
1.71767	-17
1.72133	-16
1.72500	-14
1.72867	-12
1.73233	-11
1.73600	-11
1.73967	-12
1.74333	-11
1.74700	-10
1.75067	-10
1.75433	-11
1.75800	-10
1.76167	-9
1.76533	-8
1.76900	-7
1.77267	-7
1.77633	-6
1.78000	-4
1.78367	-4
1.78733	-4
1.79100	-3
1.79467	-1
1.79833	2
1.80200	4
1.80567	4
1.80933	4
1.81300	3
1.81667	-0
1.82033	-3
1.82400	-2
1.82767	1
1.83133	3
1.83500	4
1.83867	3
1.84233	1
1.84600	0
1.84967	1
1.85333	2
1.85700	2
1.86067	-1
1.86433	-2
1.86800	-1
1.87167	-1
1.87533	-0
1.87900	1
1.88267	2
1.88633	2
1.89000	2
1.89367	2
1.89733	1
1.90100	3
1.90467	4
1.90833	4
1.91200	4
1.91567	5
1.91933	5
1.92300	3
1.92667	4
1.93033	8
1.93400	11
1.93767	15
1.94133	15
1.94500	12
1.94867	8
1.95233	9
1.95600	11
1.95967	12
1.96333	12
1.96700	13
1.97067	12
1.97433	13
1.97800	14
1.98167	14
1.98533	15
1.98900	16
1.99267	17
1.99633	17
2.00000	16
2.00367	16
2.00733	17
2.01100	17
2.01467	16
2.01833	14
2.02200	13
2.02567	15
2.02933	16
2.03300	17
2.03667	20
2.04033	21
2.04400	22
2.04767	23
2.05133	24
2.05500	27
2.05867	29
2.06233	30
2.06600	31
2.06967	31
2.07333	29
2.07700	28
2.08067	28
2.08433	28
2.08800	29
2.09167	30
2.09533	34
2.09900	36
2.10267	36
2.10633	35
2.11000	37
2.11367	39
2.11733	42
2.12100	44
2.12467	45
2.12833	44
2.13200	44
2.13567	44
2.13933	44
2.14300	43
2.14667	40
2.15033	40
2.15400	41
2.15767	44
2.16133	47
2.16500	49
2.16867	51
2.17233	51
2.17600	50
2.17967	51
2.18333	54
2.18700	57
2.19067	59
2.19433	60
2.19800	63
2.20167	64
2.20533	68
2.20900	69
2.21267	68
2.21633	66
2.22000	64
2.22367	65
2.22733	67
2.23100	70
2.23467	72
2.23833	70
2.24200	68
2.24567	68
2.24933	72
2.25300	76
2.25667	78
2.26033	80
2.26400	78
2.26767	78
2.27133	77
2.27500	78
2.27867	81
2.28233	84
2.28600	87
2.28967	88
2.29333	88
2.29700	87
2.30067	87
2.30433	89
2.30800	91
2.31167	91
2.31533	93
2.31900	95
2.32267	100
2.32633	102
2.33000	103
2.33367	102
2.33733	102
2.34100	104
2.34467	107
2.34833	109
2.35200	111
2.35567	113
2.35933	114
2.36300	113
2.36667	114
2.37033	116
2.37400	117
2.37767	117
2.38133	118
2.38500	120
2.38867	122
2.39233	125
2.39600	128
2.39967	131
2.40333	135
2.40700	137
2.41067	140
2.41433	143
2.41800	145
2.42167	146
2.42533	145
2.42900	147
2.43267	150
2.43633	151
2.44000	153
2.44367	172
2.44733	212
2.45100	247
2.45467	265
2.45833	266
2.46200	266
2.46567	269
2.46933	269
2.47300	262
2.47667	253
2.48033	247
2.48400	249
2.48767	258
2.49133	272
2.49500	288
2.49867	302
2.50233	315
2.50600	326
2.50967	333
2.51333	333
2.51700	329
2.52067	324
2.52433	321
2.52800	317
2.53167	315
2.53533	317
2.53900	323
2.54267	329
2.54633	334
2.55000	342
2.55367	349
2.55733	355
2.56100	364
2.56467	372
2.56833	382
2.57200	389
2.57567	396
2.57933	400
2.58300	403
2.58667	403
2.59033	399
2.59400	391
2.59767	380
2.60133	373
2.60500	365
2.60867	358
2.61233	351
2.61600	343
2.61967	332
2.62333	318
2.62700	302
2.63067	281
2.63433	257
2.63800	234
2.64167	212
2.64533	192
2.64900	177
2.65267	165
2.65633	157
2.66000	153
2.66367	154
2.66733	156
2.67100	160
2.67467	166
2.67833	171
2.68200	176
2.68567	184
2.68933	191
2.69300	196
2.69667	201
2.70033	206
2.70400	211
2.70767	216
2.71133	220
2.71500	227
2.71867	234
2.72233	239
2.72600	247
2.72967	255
2.73333	262
2.73700	264
2.74067	265
2.74433	268
2.74800	271
2.75167	272
2.75533	273
2.75900	275
2.76267	275
2.76633	272
2.77000	270
2.77367	270
2.77733	268
2.78100	268
2.78467	267
2.78833	263
2.79200	258
2.79567	255
2.79933	254
2.80300	254
2.80667	254
2.81033	252
2.81400	252
2.81767	255
2.82133	257
2.82500	256
2.82867	253
2.83233	252
2.83600	255
2.83967	261
2.84333	270
2.84700	289
2.85067	332
2.85433	418
2.85800	567
2.86167	796
2.86533	1108
2.86900	1486
2.87267	1898
2.87633	2301
2.88000	2646
2.88367	2900
2.88733	3048
2.89100	3092
2.89467	3047
2.89833	2929
2.90200	2761
2.90567	2560
2.90933	2346
2.91300	2131
2.91667	1922
2.92033	1728
2.92400	1549
2.92767	1384
2.93133	1238
2.93500	1106
2.93867	990
2.94233	890
2.94600	803
2.94967	727
2.95333	662
2.95700	605
2.96067	558
2.96433	519
2.96800	484
2.97167	453
2.97533	427
2.97900	404
2.98267	383
2.98633	366
2.99000	350
2.99367	337
2.99733	327
3.00100	319
3.00467	310
3.00833	303
3.01200	299
3.01567	296
3.01933	294
3.02300	292
3.02667	290
3.03033	289
3.03400	287
3.03767	282
3.04133	278
3.04500	275
3.04867	274
3.05233	274
3.05600	273
3.05967	271
3.06333	273
3.06700	273
3.07067	274
3.07433	276
3.07800	275
3.08167	275
3.08533	275
3.08900	273
3.09267	271
3.09633	270
3.10000	268
3.10367	265
3.10733	265
3.11100	265
3.11467	266
3.11833	267
3.12200	267
3.12567	266
3.12933	263
3.13300	260
3.13667	256
3.14033	255
3.14400	254
3.14767	254
3.15133	255
3.15500	255
3.15867	253
3.16233	250
3.16600	248
3.16967	244
3.17333	240
3.17700	237
3.18067	237
3.18433	235
3.18800	232
3.19167	231
3.19533	229
3.19900	226
3.20267	227
3.20633	225
3.21000	223
3.21367	223
3.21733	220
3.22100	219
3.22467	216
3.22833	213
3.23200	211
3.23567	211
3.23933	211
3.24300	209
3.24667	208
3.25033	206
3.25400	201
3.25767	197
3.26133	196
3.26500	193
3.26867	189
3.27233	188
3.27600	187
3.27967	185
3.28333	183
3.28700	180
3.29067	176
3.29433	172
3.29800	170
3.30167	168
3.30533	167
3.30900	166
3.31267	163
3.31633	158
3.32000	155
3.32367	153
3.32733	152
3.33100	150
3.33467	149
3.33833	148
3.34200	147
3.34567	146
3.34933	145
3.35300	144
3.35667	143
3.36033	140
3.36400	139
3.36767	137
3.37133	135
3.37500	132
3.37867	131
3.38233	128
3.38600	124
3.38967	124
3.39333	125
3.39700	124
3.40067	121
3.40433	118
3.40800	116
3.41167	116
3.41533	115
3.41900	113
3.42267	109
3.42633	107
3.43000	104
3.43367	102
3.43733	100
3.44100	98
3.44467	97
3.44833	96
3.45200	95
3.45567	92
3.45933	91
3.46300	92
3.46667	92
3.47033	92
3.47400	90
3.47767	87
3.48133	85
3.48500	85
3.48867	84
3.49233	82
3.49600	80
3.49967	80
3.50333	78
3.50700	78
3.51067	77
3.51433	74
3.51800	73
3.52167	73
3.52533	72
3.52900	71
3.53267	69
3.53633	68
3.54000	65
3.54367	64
3.54733	64
3.55100	63
3.55467	60
3.55833	57
3.56200	55
3.56567	55
3.56933	55
3.57300	56
3.57667	55
3.58033	53
3.58400	53
3.58767	52
3.59133	49
3.59500	48
3.59867	47
3.60233	47
3.60600	45
3.60967	43
3.61333	43
3.61700	44
3.62067	44
3.62433	41
3.62800	41
3.63167	42
3.63533	41
3.63900	39
3.64267	38
3.64633	36
3.65000	34
3.65367	32
3.65733	32
3.66100	32
3.66467	33
3.66833	32
3.67200	30
3.67567	30
3.67933	29
3.68300	28
3.68667	27
3.69033	30
3.69400	33
3.69767	34
3.70133	34
3.70500	34
3.70867	32
3.71233	30
3.71600	30
3.71967	28
3.72333	26
3.72700	25
3.73067	24
3.73433	24
3.73800	21
3.74167	19
3.74533	18
3.74900	16
3.75267	15
3.75633	17
3.76000	18
3.76367	17
3.76733	17
3.77100	16
3.77467	17
3.77833	17
3.78200	19
3.78567	21
3.78933	22
3.79300	21
3.79667	19
3.80033	17
3.80400	15
3.80767	13
3.81133	12
3.81500	11
3.81867	8
3.82233	6
3.82600	6
3.82967	8
3.83333	10
3.83700	10
3.84067	11
3.84433	13
3.84800	13
3.85167	9
3.85533	9
3.85900	11
3.86267	10
3.86633	10
3.87000	9
3.87367	8
3.87733	6
3.88100	6
3.88467	5
3.88833	4
3.89200	3
3.89567	7
3.89933	10
3.90300	8
3.90667	5
3.91033	2
3.91400	1
3.91767	2
3.92133	3
3.92500	5
3.92867	5
3.93233	7
3.93600	7
3.93967	7
3.94333	5
3.94700	0
3.95067	-3
3.95433	-2
3.95800	-0
3.96167	2
3.96533	1
3.96900	2
3.97267	5
3.97633	6
3.98000	4
3.98367	4
3.98733	4
3.99100	4
3.99467	1
3.99833	-2

[Status Trace (Column Oven Temperature)]
Interval(msec)	1000
# of Points	240
Start Time(min)	0.010
End Time(min)	3.993
Intensity Units	
Intensity Multiplier	1
R.Time (min)	Intensity
0.00990	35.02
0.02657	35.02
0.04323	35.01
0.05990	35.01
0.07657	34.99
0.09323	34.99
0.10990	34.99
0.12657	34.99
0.14323	34.99
0.15990	34.99
0.17657	34.99
0.19323	34.98
0.20990	34.98
0.22657	34.98
0.24323	34.99
0.25990	34.99
0.27657	34.99
0.29323	35.00
0.30990	34.99
0.32657	35.00
0.34323	35.00
0.35990	35.00
0.37657	34.99
0.39323	34.99
0.40990	34.99
0.42657	34.99
0.44323	34.99
0.45990	34.98
0.47657	34.98
0.49323	34.99
0.50990	34.99
0.52657	35.00
0.54323	35.00
0.55990	35.01
0.57657	35.00
0.59323	34.99
0.60990	34.98
0.62657	34.98
0.64323	34.99
0.65990	35.00
0.67657	35.01
0.69323	35.03
0.70990	35.02
0.72657	35.01
0.74323	35.01
0.75990	35.00
0.77657	35.00
0.79323	34.99
0.80990	34.98
0.82657	34.98
0.84323	34.98
0.85990	34.98
0.87657	34.99
0.89323	34.99
0.90990	35.00
0.92657	34.99
0.94323	35.00
0.95990	34.99
0.97657	34.99
0.99323	35.00
1.00990	35.01
1.02657	35.01
1.04323	35.01
1.05990	35.01
1.07657	35.01
1.09323	35.01
1.10990	35.00
1.12657	35.00
1.14323	35.00
1.15990	35.00
1.17657	35.00
1.19323	35.00
1.20990	34.99
1.22657	35.00
1.24323	35.01
1.25990	35.00
1.27657	35.00
1.29323	35.00
1.30990	35.00
1.32657	35.00
1.34323	35.01
1.35990	35.01
1.37657	35.01
1.39323	35.01
1.40990	35.02
1.42657	35.01
1.44323	35.00
1.45990	35.00
1.47657	34.99
1.49323	35.00
1.50990	34.99
1.52657	35.00
1.54323	34.99
1.55990	34.99
1.57657	35.00
1.59323	35.01
1.60990	35.07
1.62657	35.20
1.64323	35.39
1.65990	35.64
1.67657	35.99
1.69323	36.36
1.70990	36.71
1.72657	37.04
1.74323	37.39
1.75990	37.72
1.77657	38.02
1.79323	38.36
1.80990	38.70
1.82657	39.04
1.84323	39.37
1.85990	39.70
1.87657	40.02
1.89323	40.36
1.90990	40.69
1.92657	41.00
1.94323	41.32
1.95990	41.64
1.97657	41.96
1.99323	42.30
2.00990	42.62
2.02657	42.96
2.04323	43.28
2.05990	43.60
2.07657	43.94
2.09323	44.25
2.10990	44.58
2.12657	44.92
2.14323	45.24
2.15990	45.57
2.17657	45.88
2.19323	46.21
2.20990	46.55
2.22657	46.87
2.24323	47.21
2.25990	47.52
2.27657	47.86
2.29323	48.20
2.30990	48.49
2.32657	48.87
2.34323	49.19
2.35990	49.45
2.37657	49.60
2.39323	49.64
2.40990	49.64
2.42657	49.64
2.44323	49.66
2.45990	49.67
2.47657	49.69
2.49323	49.70
2.50990	49.72
2.52657	49.73
2.54323	49.73
2.55990	49.75
2.57657	49.77
2.59323	49.76
2.60990	49.81
2.62657	49.82
2.64323	49.84
2.65990	49.83
2.67657	49.84
2.69323	49.86
2.70990	49.85
2.72657	49.84
2.74323	49.86
2.75990	49.88
2.77657	49.87
2.79323	49.87
2.80990	49.85
2.82657	49.85
2.84323	49.86
2.85990	49.88
2.87657	49.89
2.89323	49.89
2.90990	49.91
2.92657	49.93
2.94323	49.95
2.95990	49.95
2.97657	49.96
2.99323	49.96
3.00990	49.97
3.02657	49.98
3.04323	49.98
3.05990	49.99
3.07657	50.00
3.09323	50.00
3.10990	50.01
3.12657	50.02
3.14323	50.04
3.15990	50.05
3.17657	50.06
3.19323	50.06
3.20990	50.08
3.22657	50.08
3.24323	50.08
3.25990	50.08
3.27657	50.08
3.29323	50.09
3.30990	50.09
3.32657	50.10
3.34323	50.10
3.35990	50.11
3.37657	50.12
3.39323	50.11
3.40990	50.10
3.42657	50.09
3.44323	50.07
3.45990	50.07
3.47657	50.06
3.49323	50.05
3.50990	50.04
3.52657	50.03
3.54323	50.03
3.55990	50.03
3.57657	50.03
3.59323	50.03
3.60990	50.03
3.62657	50.04
3.64323	50.04
3.65990	50.04
3.67657	50.04
3.69323	50.04
3.70990	50.05
3.72657	50.06
3.74323	50.06
3.75990	50.06
3.77657	50.06
3.79323	50.05
3.80990	50.06
3.82657	50.06
3.84323	50.06
3.85990	50.06
3.87657	50.05
3.89323	50.05
3.90990	50.05
3.92657	50.05
3.94323	50.05
3.95990	50.05
3.97657	50.05
3.99323	50.05

[Status Trace (Injection Unit Temperature)]
Interval(msec)	1000
# of Points	240
Start Time(min)	0.010
End Time(min)	3.993
Intensity Units	
Intensity Multiplier	1
R.Time (min)	Intensity
0.00990	99.99
0.02657	99.99
0.04323	99.98
0.05990	99.98
0.07657	99.99
0.09323	99.99
0.10990	99.99
0.12657	99.99
0.14323	99.98
0.15990	99.98
0.17657	99.99
0.19323	99.99
0.20990	99.99
0.22657	99.99
0.24323	99.99
0.25990	99.99
0.27657	99.99
0.29323	99.99
0.30990	99.99
0.32657	99.99
0.34323	99.99
0.35990	99.99
0.37657	99.99
0.39323	99.99
0.40990	99.99
0.42657	99.99
0.44323	99.99
0.45990	99.99
0.47657	99.99
0.49323	99.99
0.50990	99.99
0.52657	99.99
0.54323	99.99
0.55990	99.99
0.57657	99.99
0.59323	99.99
0.60990	99.99
0.62657	99.99
0.64323	99.99
0.65990	99.98
0.67657	99.99
0.69323	99.99
0.70990	99.99
0.72657	99.99
0.74323	99.99
0.75990	99.99
0.77657	99.99
0.79323	99.99
0.80990	99.99
0.82657	99.99
0.84323	99.99
0.85990	99.99
0.87657	99.99
0.89323	99.99
0.90990	99.99
0.92657	99.99
0.94323	99.99
0.95990	99.99
0.97657	99.99
0.99323	99.99
1.00990	99.99
1.02657	99.99
1.04323	99.99
1.05990	99.99
1.07657	99.99
1.09323	99.99
1.10990	99.99
1.12657	99.99
1.14323	99.99
1.15990	99.99
1.17657	99.99
1.19323	99.99
1.20990	99.99
1.22657	99.99
1.24323	99.99
1.25990	99.99
1.27657	99.99
1.29323	99.99
1.30990	99.99
1.32657	99.99
1.34323	99.99
1.35990	99.99
1.37657	99.99
1.39323	99.99
1.40990	99.99
1.42657	100.00
1.44323	99.99
1.45990	99.99
1.47657	99.99
1.49323	99.99
1.50990	99.99
1.52657	99.99
1.54323	99.99
1.55990	99.99
1.57657	99.99
1.59323	99.99
1.60990	99.99
1.62657	99.99
1.64323	99.99
1.65990	99.99
1.67657	100.00
1.69323	100.00
1.70990	99.99
1.72657	99.99
1.74323	100.00
1.75990	99.99
1.77657	100.00
1.79323	99.99
1.80990	99.99
1.82657	99.99
1.84323	99.99
1.85990	99.99
1.87657	99.99
1.89323	99.99
1.90990	99.99
1.92657	99.99
1.94323	99.99
1.95990	99.99
1.97657	99.99
1.99323	99.99
2.00990	99.99
2.02657	99.98
2.04323	99.99
2.05990	99.99
2.07657	99.98
2.09323	99.98
2.10990	99.98
2.12657	99.98
2.14323	99.98
2.15990	99.98
2.17657	99.98
2.19323	99.98
2.20990	99.98
2.22657	99.98
2.24323	99.98
2.25990	99.97
2.27657	99.98
2.29323	99.97
2.30990	99.98
2.32657	99.98
2.34323	99.98
2.35990	99.97
2.37657	99.98
2.39323	99.98
2.40990	99.98
2.42657	99.98
2.44323	99.97
2.45990	99.98
2.47657	99.98
2.49323	99.98
2.50990	99.98
2.52657	99.98
2.54323	99.98
2.55990	99.98
2.57657	99.98
2.59323	99.98
2.60990	99.98
2.62657	99.98
2.64323	99.99
2.65990	99.98
2.67657	99.98
2.69323	99.99
2.70990	99.99
2.72657	99.99
2.74323	99.99
2.75990	99.99
2.77657	99.99
2.79323	99.99
2.80990	99.99
2.82657	100.00
2.84323	100.00
2.85990	100.00
2.87657	100.00
2.89323	100.00
2.90990	100.00
2.92657	100.00
2.94323	100.01
2.95990	100.01
2.97657	100.01
2.99323	100.01
3.00990	100.01
3.02657	100.01
3.04323	100.01
3.05990	100.01
3.07657	100.01
3.09323	100.02
3.10990	100.02
3.12657	100.02
3.14323	100.02
3.15990	100.02
3.17657	100.02
3.19323	100.02
3.20990	100.02
3.22657	100.03
3.24323	100.03
3.25990	100.03
3.27657	100.03
3.29323	100.03
3.30990	100.03
3.32657	100.03
3.34323	100.03
3.35990	100.03
3.37657	100.03
3.39323	100.03
3.40990	100.03
3.42657	100.04
3.44323	100.04
3.45990	100.04
3.47657	100.04
3.49323	100.04
3.50990	100.04
3.52657	100.04
3.54323	100.04
3.55990	100.05
3.57657	100.04
3.59323	100.05
3.60990	100.05
3.62657	100.05
3.64323	100.05
3.65990	100.05
3.67657	100.05
3.69323	100.05
3.70990	100.05
3.72657	100.05
3.74323	100.05
3.75990	100.05
3.77657	100.05
3.79323	100.05
3.80990	100.05
3.82657	100.05
3.84323	100.05
3.85990	100.06
3.87657	100.05
3.89323	100.06
3.90990	100.05
3.92657	100.06
3.94323	100.05
3.95990	100.06
3.97657	100.05
3.99323	100.06

[Status Trace (Carrier Gas Pressure)]
Interval(msec)	1000
# of Points	240
Start Time(min)	0.010
End Time(min)	3.993
Intensity Units	
Intensity Multiplier	1
R.Time (min)	Intensity
0.00990	58.00
0.02657	55.15
0.04323	57.36
0.05990	59.36
0.07657	59.32
0.09323	58.03
0.10990	57.98
0.12657	58.01
0.14323	58.01
0.15990	58.01
0.17657	58.00
0.19323	58.00
0.20990	58.00
0.22657	58.00
0.24323	58.00
0.25990	58.00
0.27657	58.00
0.29323	58.00
0.30990	58.00
0.32657	58.00
0.34323	58.00
0.35990	58.00
0.37657	58.00
0.39323	58.00
0.40990	58.00
0.42657	58.00
0.44323	58.00
0.45990	58.00
0.47657	58.00
0.49323	58.00
0.50990	58.00
0.52657	58.00
0.54323	58.00
0.55990	58.00
0.57657	58.00
0.59323	58.00
0.60990	58.00
0.62657	58.00
0.64323	58.00
0.65990	58.00
0.67657	58.00
0.69323	58.00
0.70990	58.00
0.72657	58.00
0.74323	58.00
0.75990	58.00
0.77657	58.00
0.79323	58.00
0.80990	58.00
0.82657	58.00
0.84323	58.00
0.85990	58.00
0.87657	58.00
0.89323	58.00
0.90990	58.00
0.92657	58.00
0.94323	58.00
0.95990	58.00
0.97657	58.00
0.99323	58.00
1.00990	58.00
1.02657	58.00
1.04323	58.00
1.05990	58.00
1.07657	58.00
1.09323	58.00
1.10990	58.00
1.12657	58.00
1.14323	58.00
1.15990	58.00
1.17657	58.00
1.19323	58.00
1.20990	58.00
1.22657	58.00
1.24323	58.00
1.25990	58.00
1.27657	58.00
1.29323	58.00
1.30990	58.00
1.32657	58.00
1.34323	58.00
1.35990	58.00
1.37657	58.00
1.39323	58.00
1.40990	58.00
1.42657	58.00
1.44323	58.00
1.45990	58.00
1.47657	58.00
1.49323	58.00
1.50990	58.00
1.52657	58.00
1.54323	58.00
1.55990	58.00
1.57657	58.00
1.59323	58.00
1.60990	58.00
1.62657	58.00
1.64323	58.01
1.65990	58.00
1.67657	58.01
1.69323	58.00
1.70990	58.00
1.72657	58.00
1.74323	58.00
1.75990	58.00
1.77657	58.00
1.79323	58.00
1.80990	58.00
1.82657	58.00
1.84323	58.00
1.85990	58.00
1.87657	58.00
1.89323	58.00
1.90990	58.00
1.92657	58.00
1.94323	58.00
1.95990	58.00
1.97657	58.00
1.99323	58.00
2.00990	58.00
2.02657	58.00
2.04323	58.00
2.05990	58.00
2.07657	58.00
2.09323	58.00
2.10990	58.00
2.12657	58.00
2.14323	58.00
2.15990	58.00
2.17657	58.00
2.19323	58.00
2.20990	58.00
2.22657	58.00
2.24323	58.00
2.25990	58.00
2.27657	58.00
2.29323	58.00
2.30990	58.00
2.32657	58.00
2.34323	58.00
2.35990	58.00
2.37657	58.00
2.39323	57.99
2.40990	57.99
2.42657	58.00
2.44323	58.00
2.45990	58.00
2.47657	58.00
2.49323	58.00
2.50990	57.99
2.52657	57.98
2.54323	58.00
2.55990	58.00
2.57657	58.00
2.59323	58.00
2.60990	58.00
2.62657	58.00
2.64323	58.00
2.65990	58.00
2.67657	58.00
2.69323	58.00
2.70990	58.00
2.72657	58.00
2.74323	58.00
2.75990	58.00
2.77657	58.00
2.79323	58.00
2.80990	58.00
2.82657	58.00
2.84323	58.00
2.85990	58.00
2.87657	58.00
2.89323	58.00
2.90990	58.00
2.92657	58.00
2.94323	58.00
2.95990	58.00
2.97657	58.00
2.99323	58.00
3.00990	58.00
3.02657	58.00
3.04323	58.00
3.05990	58.00
3.07657	58.00
3.09323	58.00
3.10990	58.00
3.12657	58.00
3.14323	58.00
3.15990	58.00
3.17657	58.00
3.19323	58.00
3.20990	58.00
3.22657	58.00
3.24323	58.00
3.25990	58.00
3.27657	58.00
3.29323	58.00
3.30990	58.00
3.32657	58.00
3.34323	58.00
3.35990	58.00
3.37657	58.00
3.39323	58.00
3.40990	58.00
3.42657	58.00
3.44323	58.00
3.45990	58.00
3.47657	58.00
3.49323	58.00
3.50990	58.00
3.52657	58.00
3.54323	58.00
3.55990	58.00
3.57657	58.00
3.59323	58.00
3.60990	58.00
3.62657	58.00
3.64323	58.00
3.65990	58.00
3.67657	58.00
3.69323	58.00
3.70990	58.00
3.72657	58.00
3.74323	58.00
3.75990	58.00
3.77657	58.00
3.79323	58.00
3.80990	58.00
3.82657	58.00
3.84323	58.00
3.85990	58.00
3.87657	58.00
3.89323	58.00
3.90990	58.00
3.92657	58.00
3.94323	58.00
3.95990	58.00
3.97657	58.00
3.99323	58.00

[Status Trace (Carrier Gas Flow)]
Interval(msec)	1000
# of Points	240
Start Time(min)	0.010
End Time(min)	3.993
Intensity Units	
Intensity Multiplier	1
R.Time (min)	Intensity
0.00990	34.52
0.02657	34.54
0.04323	34.55
0.05990	34.55
0.07657	34.50
0.09323	34.52
0.10990	34.52
0.12657	34.52
0.14323	34.52
0.15990	34.52
0.17657	34.52
0.19323	34.52
0.20990	34.52
0.22657	34.52
0.24323	34.52
0.25990	34.52
0.27657	34.52
0.29323	34.52
0.30990	34.52
0.32657	34.51
0.34323	34.52
0.35990	34.52
0.37657	34.52
0.39323	34.52
0.40990	34.52
0.42657	34.52
0.44323	34.52
0.45990	34.52
0.47657	34.52
0.49323	34.52
0.50990	34.52
0.52657	34.52
0.54323	34.52
0.55990	34.52
0.57657	34.52
0.59323	34.52
0.60990	34.52
0.62657	34.52
0.64323	34.52
0.65990	34.52
0.67657	34.52
0.69323	34.52
0.70990	34.52
0.72657	34.52
0.74323	34.52
0.75990	34.52
0.77657	34.52
0.79323	34.52
0.80990	34.52
0.82657	34.52
0.84323	34.52
0.85990	34.52
0.87657	34.52
0.89323	34.52
0.90990	34.52
0.92657	34.52
0.94323	34.52
0.95990	34.52
0.97657	34.52
0.99323	34.52
1.00990	34.52
1.02657	34.52
1.04323	34.52
1.05990	34.52
1.07657	34.52
1.09323	34.52
1.10990	34.52
1.12657	34.52
1.14323	34.52
1.15990	34.52
1.17657	34.52
1.19323	34.52
1.20990	34.52
1.22657	34.52
1.24323	34.52
1.25990	34.52
1.27657	34.52
1.29323	34.52
1.30990	34.52
1.32657	34.52
1.34323	34.52
1.35990	34.52
1.37657	34.52
1.39323	34.52
1.40990	34.52
1.42657	34.52
1.44323	34.52
1.45990	34.52
1.47657	34.52
1.49323	34.52
1.50990	34.52
1.52657	34.52
1.54323	34.52
1.55990	34.52
1.57657	34.52
1.59323	34.52
1.60990	34.52
1.62657	34.52
1.64323	34.52
1.65990	34.52
1.67657	34.52
1.69323	34.52
1.70990	34.52
1.72657	34.52
1.74323	34.52
1.75990	34.52
1.77657	34.52
1.79323	34.52
1.80990	34.52
1.82657	34.52
1.84323	34.52
1.85990	34.52
1.87657	34.52
1.89323	34.52
1.90990	34.52
1.92657	34.52
1.94323	34.52
1.95990	34.52
1.97657	34.52
1.99323	34.52
2.00990	34.52
2.02657	34.52
2.04323	34.52
2.05990	34.52
2.07657	34.52
2.09323	34.52
2.10990	34.52
2.12657	34.52
2.14323	34.52
2.15990	34.52
2.17657	34.52
2.19323	34.52
2.20990	34.52
2.22657	34.52
2.24323	34.52
2.25990	34.52
2.27657	34.52
2.29323	34.52
2.30990	34.52
2.32657	34.52
2.34323	34.52
2.35990	34.52
2.37657	34.52
2.39323	34.52
2.40990	34.52
2.42657	34.52
2.44323	34.52
2.45990	34.52
2.47657	34.52
2.49323	34.52
2.50990	34.49
2.52657	34.52
2.54323	34.52
2.55990	34.52
2.57657	34.52
2.59323	34.52
2.60990	34.52
2.62657	34.52
2.64323	34.52
2.65990	34.52
2.67657	34.52
2.69323	34.52
2.70990	34.52
2.72657	34.52
2.74323	34.52
2.75990	34.52
2.77657	34.52
2.79323	34.52
2.80990	34.52
2.82657	34.52
2.84323	34.52
2.85990	34.52
2.87657	34.52
2.89323	34.52
2.90990	34.52
2.92657	34.52
2.94323	34.52
2.95990	34.52
2.97657	34.52
2.99323	34.52
3.00990	34.52
3.02657	34.52
3.04323	34.52
3.05990	34.52
3.07657	34.52
3.09323	34.52
3.10990	34.52
3.12657	34.52
3.14323	34.52
3.15990	34.52
3.17657	34.52
3.19323	34.52
3.20990	34.52
3.22657	34.52
3.24323	34.52
3.25990	34.52
3.27657	34.52
3.29323	34.52
3.30990	34.52
3.32657	34.52
3.34323	34.52
3.35990	34.52
3.37657	34.52
3.39323	34.52
3.40990	34.52
3.42657	34.52
3.44323	34.52
3.45990	34.52
3.47657	34.52
3.49323	34.52
3.50990	34.52
3.52657	34.52
3.54323	34.52
3.55990	34.52
3.57657	34.52
3.59323	34.52
3.60990	34.52
3.62657	34.52
3.64323	34.52
3.65990	34.52
3.67657	34.52
3.69323	34.52
3.70990	34.52
3.72657	34.52
3.74323	34.52
3.75990	34.52
3.77657	34.52
3.79323	34.52
3.80990	34.52
3.82657	34.52
3.84323	34.52
3.85990	34.52
3.87657	34.51
3.89323	34.52
3.90990	34.52
3.92657	34.52
3.94323	34.52
3.95990	34.52
3.97657	34.52
3.99323	34.52

[Status Trace (Column Flow)]
Interval(msec)	1000
# of Points	240
Start Time(min)	0.010
End Time(min)	3.993
Intensity Units	
Intensity Multiplier	1
R.Time (min)	Intensity
0.00990	5.51
0.02657	5.18
0.04323	5.43
0.05990	5.67
0.07657	5.66
0.09323	5.51
0.10990	5.51
0.12657	5.51
0.14323	5.51
0.15990	5.51
0.17657	5.51
0.19323	5.51
0.20990	5.51
0.22657	5.51
0.24323	5.51
0.25990	5.51
0.27657	5.51
0.29323	5.51
0.30990	5.51
0.32657	5.51
0.34323	5.51
0.35990	5.51
0.37657	5.51
0.39323	5.51
0.40990	5.51
0.42657	5.51
0.44323	5.51
0.45990	5.51
0.47657	5.51
0.49323	5.51
0.50990	5.51
0.52657	5.51
0.54323	5.51
0.55990	5.51
0.57657	5.51
0.59323	5.51
0.60990	5.51
0.62657	5.51
0.64323	5.51
0.65990	5.51
0.67657	5.51
0.69323	5.51
0.70990	5.51
0.72657	5.51
0.74323	5.51
0.75990	5.51
0.77657	5.51
0.79323	5.51
0.80990	5.51
0.82657	5.51
0.84323	5.51
0.85990	5.51
0.87657	5.51
0.89323	5.51
0.90990	5.51
0.92657	5.51
0.94323	5.51
0.95990	5.51
0.97657	5.51
0.99323	5.51
1.00990	5.51
1.02657	5.51
1.04323	5.51
1.05990	5.51
1.07657	5.51
1.09323	5.51
1.10990	5.51
1.12657	5.51
1.14323	5.51
1.15990	5.51
1.17657	5.51
1.19323	5.51
1.20990	5.51
1.22657	5.51
1.24323	5.51
1.25990	5.51
1.27657	5.51
1.29323	5.51
1.30990	5.51
1.32657	5.51
1.34323	5.51
1.35990	5.51
1.37657	5.51
1.39323	5.51
1.40990	5.51
1.42657	5.51
1.44323	5.51
1.45990	5.51
1.47657	5.51
1.49323	5.51
1.50990	5.51
1.52657	5.51
1.54323	5.51
1.55990	5.51
1.57657	5.51
1.59323	5.51
1.60990	5.51
1.62657	5.50
1.64323	5.50
1.65990	5.49
1.67657	5.48
1.69323	5.47
1.70990	5.45
1.72657	5.44
1.74323	5.43
1.75990	5.42
1.77657	5.41
1.79323	5.40
1.80990	5.39
1.82657	5.38
1.84323	5.37
1.85990	5.36
1.87657	5.35
1.89323	5.34
1.90990	5.33
1.92657	5.32
1.94323	5.31
1.95990	5.30
1.97657	5.29
1.99323	5.29
2.00990	5.28
2.02657	5.27
2.04323	5.26
2.05990	5.25
2.07657	5.24
2.09323	5.23
2.10990	5.22
2.12657	5.21
2.14323	5.20
2.15990	5.19
2.17657	5.18
2.19323	5.17
2.20990	5.16
2.22657	5.15
2.24323	5.14
2.25990	5.13
2.27657	5.13
2.29323	5.12
2.30990	5.11
2.32657	5.10
2.34323	5.09
2.35990	5.08
2.37657	5.08
2.39323	5.07
2.40990	5.07
2.42657	5.08
2.44323	5.08
2.45990	5.07
2.47657	5.07
2.49323	5.07
2.50990	5.07
2.52657	5.07
2.54323	5.07
2.55990	5.07
2.57657	5.07
2.59323	5.07
2.60990	5.07
2.62657	5.07
2.64323	5.07
2.65990	5.07
2.67657	5.07
2.69323	5.07
2.70990	5.07
2.72657	5.07
2.74323	5.07
2.75990	5.07
2.77657	5.07
2.79323	5.07
2.80990	5.07
2.82657	5.07
2.84323	5.07
2.85990	5.07
2.87657	5.07
2.89323	5.07
2.90990	5.07
2.92657	5.07
2.94323	5.07
2.95990	5.07
2.97657	5.07
2.99323	5.07
3.00990	5.07
3.02657	5.07
3.04323	5.07
3.05990	5.07
3.07657	5.07
3.09323	5.07
3.10990	5.06
3.12657	5.06
3.14323	5.06
3.15990	5.06
3.17657	5.06
3.19323	5.06
3.20990	5.06
3.22657	5.06
3.24323	5.06
3.25990	5.06
3.27657	5.06
3.29323	5.06
3.30990	5.06
3.32657	5.06
3.34323	5.06
3.35990	5.06
3.37657	5.06
3.39323	5.06
3.40990	5.06
3.42657	5.06
3.44323	5.06
3.45990	5.06
3.47657	5.06
3.49323	5.06
3.50990	5.06
3.52657	5.06
3.54323	5.06
3.55990	5.06
3.57657	5.06
3.59323	5.06
3.60990	5.06
3.62657	5.06
3.64323	5.06
3.65990	5.06
3.67657	5.06
3.69323	5.06
3.70990	5.06
3.72657	5.06
3.74323	5.06
3.75990	5.06
3.77657	5.06
3.79323	5.06
3.80990	5.06
3.82657	5.06
3.84323	5.06
3.85990	5.06
3.87657	5.06
3.89323	5.06
3.90990	5.06
3.92657	5.06
3.94323	5.06
3.95990	5.06
3.97657	5.06
3.99323	5.06

[Status Trace (Linear Velocity)]
Interval(msec)	1000
# of Points	240
Start Time(min)	0.010
End Time(min)	3.993
Intensity Units	
Intensity Multiplier	1
R.Time (min)	Intensity
0.00990	39.01
0.02657	37.14
0.04323	38.59
0.05990	39.90
0.07657	39.87
0.09323	39.04
0.10990	39.00
0.12657	39.02
0.14323	39.02
0.15990	39.02
0.17657	39.02
0.19323	39.02
0.20990	39.02
0.22657	39.02
0.24323	39.02
0.25990	39.02
0.27657	39.01
0.29323	39.01
0.30990	39.01
0.32657	39.02
0.34323	39.01
0.35990	39.01
0.37657	39.01
0.39323	39.01
0.40990	39.01
0.42657	39.02
0.44323	39.01
0.45990	39.02
0.47657	39.02
0.49323	39.01
0.50990	39.01
0.52657	39.01
0.54323	39.01
0.55990	39.01
0.57657	39.01
0.59323	39.01
0.60990	39.01
0.62657	39.02
0.64323	39.01
0.65990	39.01
0.67657	39.01
0.69323	39.01
0.70990	39.01
0.72657	39.01
0.74323	39.01
0.75990	39.01
0.77657	39.01
0.79323	39.01
0.80990	39.02
0.82657	39.02
0.84323	39.02
0.85990	39.02
0.87657	39.01
0.89323	39.01
0.90990	39.01
0.92657	39.01
0.94323	39.01
0.95990	39.01
0.97657	39.01
0.99323	39.01
1.00990	39.01
1.02657	39.01
1.04323	39.01
1.05990	39.01
1.07657	39.01
1.09323	39.01
1.10990	39.01
1.12657	39.01
1.14323	39.01
1.15990	39.01
1.17657	39.01
1.19323	39.01
1.20990	39.01
1.22657	39.01
1.24323	39.01
1.25990	39.01
1.27657	39.01
1.29323	39.01
1.30990	39.01
1.32657	39.01
1.34323	39.01
1.35990	39.01
1.37657	39.01
1.39323	39.01
1.40990	39.01
1.42657	39.01
1.44323	39.01
1.45990	39.01
1.47657	39.01
1.49323	39.01
1.50990	39.01
1.52657	39.01
1.54323	39.01
1.55990	39.01
1.57657	39.01
1.59323	39.01
1.60990	39.01
1.62657	39.00
1.64323	38.98
1.65990	38.95
1.67657	38.92
1.69323	38.89
1.70990	38.85
1.72657	38.82
1.74323	38.79
1.75990	38.75
1.77657	38.72
1.79323	38.69
1.80990	38.66
1.82657	38.63
1.84323	38.60
1.85990	38.57
1.87657	38.54
1.89323	38.50
1.90990	38.47
1.92657	38.45
1.94323	38.42
1.95990	38.39
1.97657	38.36
1.99323	38.33
2.00990	38.30
2.02657	38.26
2.04323	38.23
2.05990	38.20
2.07657	38.17
2.09323	38.15
2.10990	38.12
2.12657	38.09
2.14323	38.06
2.15990	38.03
2.17657	38.00
2.19323	37.97
2.20990	37.94
2.22657	37.91
2.24323	37.88
2.25990	37.85
2.27657	37.82
2.29323	37.79
2.30990	37.76
2.32657	37.73
2.34323	37.70
2.35990	37.68
2.37657	37.66
2.39323	37.66
2.40990	37.66
2.42657	37.66
2.44323	37.66
2.45990	37.66
2.47657	37.66
2.49323	37.66
2.50990	37.65
2.52657	37.64
2.54323	37.65
2.55990	37.65
2.57657	37.65
2.59323	37.65
2.60990	37.65
2.62657	37.65
2.64323	37.64
2.65990	37.64
2.67657	37.64
2.69323	37.64
2.70990	37.64
2.72657	37.64
2.74323	37.64
2.75990	37.64
2.77657	37.64
2.79323	37.64
2.80990	37.64
2.82657	37.64
2.84323	37.64
2.85990	37.64
2.87657	37.64
2.89323	37.64
2.90990	37.64
2.92657	37.64
2.94323	37.63
2.95990	37.63
2.97657	37.63
2.99323	37.63
3.00990	37.63
3.02657	37.63
3.04323	37.63
3.05990	37.63
3.07657	37.63
3.09323	37.63
3.10990	37.63
3.12657	37.63
3.14323	37.63
3.15990	37.63
3.17657	37.62
3.19323	37.62
3.20990	37.62
3.22657	37.62
3.24323	37.62
3.25990	37.62
3.27657	37.62
3.29323	37.62
3.30990	37.62
3.32657	37.62
3.34323	37.62
3.35990	37.62
3.37657	37.62
3.39323	37.62
3.40990	37.62
3.42657	37.62
3.44323	37.62
3.45990	37.62
3.47657	37.62
3.49323	37.63
3.50990	37.63
3.52657	37.63
3.54323	37.63
3.55990	37.63
3.57657	37.63
3.59323	37.63
3.60990	37.63
3.62657	37.63
3.64323	37.63
3.65990	37.63
3.67657	37.63
3.69323	37.63
3.70990	37.63
3.72657	37.62
3.74323	37.62
3.75990	37.62
3.77657	37.62
3.79323	37.62
3.80990	37.62
3.82657	37.62
3.84323	37.62
3.85990	37.62
3.87657	37.62
3.89323	37.62
3.90990	37.63
3.92657	37.62
3.94323	37.63
3.95990	37.62
3.97657	37.62
3.99323	37.62

