[Header]
Application Name	LabSolutions
Version	5.110
Data File Name	C:\Users\User\Desktop\GC Analyses\Jack\UIC Prairie Sampling\9.30.22\220930_082.gcd
Output Date	1/4/2023
Output Time	2:27:55 PM

[File Information]
Type	Data File
Generated	12/2/2022 1:27:17 PM
Generated by	System Administrator
Modified	12/2/2022 1:31:46 PM
Modified by	System Administrator

[Sample Information]
Operator Name	System Administrator
Acquired	12/2/2022 1:27:45 PM
Sample Type	1:Standard
Level	1
Sample Name	220930_UICPrairie
Sample ID	220930_UICPrairie
ISTD Amount1	1
ISTD Amount2	1
ISTD Amount3	1
ISTD Amount4	1
ISTD Amount5	1
ISTD Amount6	1
ISTD Amount7	1
ISTD Amount8	1
ISTD Amount9	1
ISTD Amount10	1
ISTD Amount11	1
ISTD Amount12	1
ISTD Amount13	1
ISTD Amount14	1
ISTD Amount15	1
ISTD Amount16	1
ISTD Amount17	1
ISTD Amount18	1
ISTD Amount19	1
ISTD Amount20	1
ISTD Amount21	1
ISTD Amount22	1
ISTD Amount23	1
ISTD Amount24	1
ISTD Amount25	1
ISTD Amount26	1
ISTD Amount27	1
ISTD Amount28	1
ISTD Amount29	1
ISTD Amount30	1
ISTD Amount31	1
ISTD Amount32	1
Sample Amount	1
Dilution Factor	1
Vial#	1
Injection Volume	1
Injection Count	1
Bar Code	

[Original Files]
Data File	C:\Users\User\Desktop\GC Analyses\Jack\UIC Prairie Sampling\9.30.22\220930_082.gcd
Method File	C:\LabSolutions\Data\GHG_4min_2022\ghg3_togas_w_acet_4 min_new_int.gcm
Batch File	
Report Format File	c:\LabSolutions\System\DEFAULT.lsr

[File Description]


[Configuration]
Instrument Name	C0B7VH3-Instrument1
Instrument #	1
Line #	1
# of Detectors	3
Detector ID	DET#1	DET#2	DET#3
Detector Name	FID	PTCD	ECD
# of Channels	1	1	1

[Peak Table(Ch1)]
# of Peaks	3
Peak#	R.Time	I.Time	F.Time	Area	Height	A/H	Conc.	Mark	ID#	Name	k'	Plate #	Plate Ht.	Tailing	Resolution	Sep.Factor	Area Ratio	Height Ratio	Conc. %	Norm Conc.
1	1.479	1.439	1.538	11167	5264	2.122	100.000	   	1	CO	0.000	9153	16.388	1.237	0.000	0.000	0	0	16.667	16.667
2	1.571	1.538	1.622	4881	2527	1.931	100.000	 V 	2	CH4	0.062	11441	13.111	1.145	1.520	0.000	0	0	16.667	16.667
3	2.000	1.952	2.418	1248347	609958	2.047	400.000	   	3	CO2	0.352	18313	8.191	1.312	7.279	5.680	0	0	66.667	66.667

[Peak Table(Ch2)]
# of Peaks	0

[Peak Table(Ch3)]
# of Peaks	6
Peak#	R.Time	I.Time	F.Time	Area	Height	A/H	Conc.	Mark	ID#	Name	k'	Plate #	Plate Ht.	Tailing	Resolution	Sep.Factor	Area Ratio	Height Ratio	Conc. %	Norm Conc.
1	0.750	0.251	1.054	385	16	24.022	0.000	   			0.000	1240	120.950	0.805	0.000	0.000	0	0	0.000	0.000
2	2.458	2.345	2.502	1389	362	3.832	0.000	   			2.279	6756	22.202	0.000	16.688	0.000	0	0	0.000	0.000
3	2.517	2.502	2.554	712	262	2.713	0.000	 V 			2.357	2023	74.129	0.000	0.342	1.034	0	0	0.000	0.000
4	2.612	2.554	2.656	1232	291	4.233	0.000	 V 			2.485	913	164.225	0.000	0.335	1.054	0	0	0.000	0.000
5	2.891	2.796	3.085	27511	5603	4.910	1.000	   	1	N2O	2.856	11377	13.185	0.000	1.227	1.150	0	0	100.000	100.000
6	3.140	3.085	3.951	15006	636	23.592	0.000	 V 			3.189	15	9872.624	0.000	0.150	1.116	0	0	0.000	0.000

[Compound Results(Ch1)]
# of IDs	6
ID#	Name	R.Time	Area	Height	Conc.	Curve	3rd	2nd	1st	Constant	Area Ratio	Height Ratio	Conc. %	Norm Conc.
1	CO	1.479	11167	5264	100.000	Linear	0.000000e+00	0.000000e+00	1.116707e+002	0.000000e+00	0	0	16.667	16.667
2	CH4	1.571	4881	2527	100.000	Linear	0.000000e+00	0.000000e+00	4.880779e+001	0.000000e+00	0	0	16.667	16.667
3	CO2	2.000	1248347	609958	400.000	Linear	0.000000e+00	0.000000e+00	3.120869e+003	0.000000e+00	0	0	66.667	66.667
4	Ethylene	0.000	0	0	0.000	Linear	0.000000e+00	0.000000e+00	0.000000e+00	0.000000e+00	0	0	0.000	0.000
5	Acetylene	0.000	0	0	0.000	Linear	0.000000e+00	0.000000e+00	0.000000e+00	0.000000e+00	0	0	0.000	0.000
6	Ethane	0.000	0	0	0.000	Linear	0.000000e+00	0.000000e+00	0.000000e+00	0.000000e+00	0	0	0.000	0.000

[Compound Results(Ch2)]
# of IDs	5
ID#	Name	R.Time	Area	Height	Conc.	Curve	3rd	2nd	1st	Constant	Area Ratio	Height Ratio	Conc. %	Norm Conc.
1	Hydrogen	0.000	0	0	0.000	Linear	0.000000e+00	0.000000e+00	0.000000e+00	0.000000e+00	0	0	0.000	0.000
2	Oxygen	0.000	0	0	0.000	Linear	0.000000e+00	0.000000e+00	0.000000e+00	0.000000e+00	0	0	0.000	0.000
3	Nitrogen	0.000	0	0	0.000	Linear	0.000000e+00	0.000000e+00	0.000000e+00	0.000000e+00	0	0	0.000	0.000
4	Methane	0.000	0	0	0.000	Linear	0.000000e+00	0.000000e+00	0.000000e+00	0.000000e+00	0	0	0.000	0.000
5	Carbon Monoxide	0.000	0	0	0.000	Linear	0.000000e+00	0.000000e+00	0.000000e+00	0.000000e+00	0	0	0.000	0.000

[Compound Results(Ch3)]
# of IDs	2
ID#	Name	R.Time	Area	Height	Conc.	Curve	3rd	2nd	1st	Constant	Area Ratio	Height Ratio	Conc. %	Norm Conc.
1	N2O	2.891	27511	5603	1.000	Linear	0.000000e+00	0.000000e+00	2.751079e+004	0.000000e+00	0	0	100.000	100.000
2	SF6	0.000	0	0	0.000	Linear	0.000000e+00	0.000000e+00	0.000000e+00	0.000000e+00	0	0	0.000	0.000

[Group Results(Ch1)]
# of Groups	0

[Group Results(Ch2)]
# of Groups	0

[Group Results(Ch3)]
# of Groups	0

[Chromatogram (Ch1)]
Interval(msec)	220
# of Points	1091
Start Time(min)	0.002
End Time(min)	3.998
R.Time (min)	Intensity
0.00167	-1
0.00533	-1
0.00900	-4
0.01267	-7
0.01633	-7
0.02000	-6
0.02367	-1
0.02733	0
0.03100	-3
0.03467	-11
0.03833	-21
0.04200	-31
0.04567	-37
0.04933	-40
0.05300	-42
0.05667	-41
0.06033	-39
0.06400	-32
0.06767	-25
0.07133	-20
0.07500	-16
0.07867	-15
0.08233	-14
0.08600	-11
0.08967	-11
0.09333	-13
0.09700	-15
0.10067	-17
0.10433	-19
0.10800	-25
0.11167	-32
0.11533	-35
0.11900	-32
0.12267	-31
0.12633	-30
0.13000	-30
0.13367	-33
0.13733	-34
0.14100	-31
0.14467	-28
0.14833	-30
0.15200	-33
0.15567	-34
0.15933	-34
0.16300	-33
0.16667	-31
0.17033	-26
0.17400	-23
0.17767	-24
0.18133	-25
0.18500	-25
0.18867	-25
0.19233	-24
0.19600	-23
0.19967	-24
0.20333	-26
0.20700	-28
0.21067	-30
0.21433	-32
0.21800	-34
0.22167	-33
0.22533	-33
0.22900	-30
0.23267	-30
0.23633	-36
0.24000	-46
0.24367	-55
0.24733	-62
0.25100	-64
0.25467	-62
0.25833	-59
0.26200	-59
0.26567	-59
0.26933	-57
0.27300	-55
0.27667	-54
0.28033	-52
0.28400	-47
0.28767	-38
0.29133	-30
0.29500	-23
0.29867	-20
0.30233	-23
0.30600	-30
0.30967	-41
0.31333	-49
0.31700	-53
0.32067	-51
0.32433	-47
0.32800	-47
0.33167	-51
0.33533	-57
0.33900	-63
0.34267	-69
0.34633	-72
0.35000	-71
0.35367	-67
0.35733	-61
0.36100	-57
0.36467	-55
0.36833	-54
0.37200	-56
0.37567	-57
0.37933	-55
0.38300	-52
0.38667	-52
0.39033	-51
0.39400	-51
0.39767	-55
0.40133	-60
0.40500	-62
0.40867	-60
0.41233	-58
0.41600	-56
0.41967	-55
0.42333	-60
0.42700	-68
0.43067	-74
0.43433	-78
0.43800	-80
0.44167	-81
0.44533	-80
0.44900	-77
0.45267	-74
0.45633	-71
0.46000	-70
0.46367	-67
0.46733	-63
0.47100	-59
0.47467	-55
0.47833	-54
0.48200	-58
0.48567	-64
0.48933	-68
0.49300	-71
0.49667	-70
0.50033	-68
0.50400	-69
0.50767	-71
0.51133	-74
0.51500	-75
0.51867	-75
0.52233	-75
0.52600	-74
0.52967	-72
0.53333	-69
0.53700	-68
0.54067	-69
0.54433	-73
0.54800	-81
0.55167	-89
0.55533	-92
0.55900	-92
0.56267	-90
0.56633	-90
0.57000	-95
0.57367	-102
0.57733	-107
0.58100	-108
0.58467	-105
0.58833	-99
0.59200	-93
0.59567	-88
0.59933	-85
0.60300	-85
0.60667	-86
0.61033	-87
0.61400	-92
0.61767	-97
0.62133	-98
0.62500	-95
0.62867	-90
0.63233	-85
0.63600	-82
0.63967	-82
0.64333	-83
0.64700	-82
0.65067	-82
0.65433	-84
0.65800	-85
0.66167	-85
0.66533	-85
0.66900	-88
0.67267	-94
0.67633	-99
0.68000	-100
0.68367	-99
0.68733	-96
0.69100	-93
0.69467	-90
0.69833	-88
0.70200	-88
0.70567	-89
0.70933	-93
0.71300	-95
0.71667	-92
0.72033	-87
0.72400	-83
0.72767	-83
0.73133	-88
0.73500	-92
0.73867	-95
0.74233	-103
0.74600	-111
0.74967	-116
0.75333	-121
0.75700	-125
0.76067	-126
0.76433	-121
0.76800	-114
0.77167	-106
0.77533	-102
0.77900	-101
0.78267	-95
0.78633	-89
0.79000	-87
0.79367	-88
0.79733	-89
0.80100	-86
0.80467	-82
0.80833	-81
0.81200	-86
0.81567	-92
0.81933	-96
0.82300	-102
0.82667	-107
0.83033	-109
0.83400	-110
0.83767	-110
0.84133	-110
0.84500	-112
0.84867	-115
0.85233	-117
0.85600	-115
0.85967	-115
0.86333	-116
0.86700	-119
0.87067	-118
0.87433	-117
0.87800	-117
0.88167	-117
0.88533	-117
0.88900	-114
0.89267	-112
0.89633	-108
0.90000	-100
0.90367	-93
0.90733	-92
0.91100	-97
0.91467	-103
0.91833	-107
0.92200	-109
0.92567	-108
0.92933	-103
0.93300	-101
0.93667	-103
0.94033	-107
0.94400	-109
0.94767	-112
0.95133	-117
0.95500	-122
0.95867	-126
0.96233	-127
0.96600	-128
0.96967	-126
0.97333	-126
0.97700	-127
0.98067	-125
0.98433	-122
0.98800	-114
0.99167	-107
0.99533	-107
0.99900	-112
1.00267	-118
1.00633	-121
1.01000	-120
1.01367	-116
1.01733	-112
1.02100	-112
1.02467	-115
1.02833	-121
1.03200	-127
1.03567	-132
1.03933	-135
1.04300	-136
1.04667	-136
1.05033	-136
1.05400	-136
1.05767	-139
1.06133	-139
1.06500	-136
1.06867	-132
1.07233	-132
1.07600	-133
1.07967	-132
1.08333	-131
1.08700	-127
1.09067	-120
1.09433	-116
1.09800	-115
1.10167	-116
1.10533	-118
1.10900	-119
1.11267	-118
1.11633	-120
1.12000	-127
1.12367	-135
1.12733	-139
1.13100	-139
1.13467	-133
1.13833	-128
1.14200	-122
1.14567	-121
1.14933	-125
1.15300	-132
1.15667	-137
1.16033	-137
1.16400	-137
1.16767	-138
1.17133	-140
1.17500	-145
1.17867	-149
1.18233	-153
1.18600	-155
1.18967	-152
1.19333	-145
1.19700	-135
1.20067	-127
1.20433	-122
1.20800	-121
1.21167	-123
1.21533	-122
1.21900	-117
1.22267	-109
1.22633	-103
1.23000	-98
1.23367	-100
1.23733	-108
1.24100	-120
1.24467	-132
1.24833	-140
1.25200	-146
1.25567	-150
1.25933	-152
1.26300	-148
1.26667	-142
1.27033	-140
1.27400	-144
1.27767	-151
1.28133	-156
1.28500	-157
1.28867	-154
1.29233	-149
1.29600	-146
1.29967	-143
1.30333	-141
1.30700	-139
1.31067	-137
1.31433	-135
1.31800	-130
1.32167	-127
1.32533	-129
1.32900	-134
1.33267	-140
1.33633	-142
1.34000	-142
1.34367	-141
1.34733	-139
1.35100	-142
1.35467	-147
1.35833	-151
1.36200	-155
1.36567	-158
1.36933	-161
1.37300	-160
1.37667	-156
1.38033	-153
1.38400	-152
1.38767	-157
1.39133	-164
1.39500	-167
1.39867	-165
1.40233	-162
1.40600	-158
1.40967	-161
1.41333	-164
1.41700	-160
1.42067	-152
1.42433	-143
1.42800	-137
1.43167	-137
1.43533	-139
1.43900	-137
1.44267	-107
1.44633	11
1.45000	233
1.45367	526
1.45733	937
1.46100	1548
1.46467	2365
1.46833	3283
1.47200	4146
1.47567	4802
1.47933	5128
1.48300	5048
1.48667	4592
1.49033	3884
1.49400	3091
1.49767	2346
1.50133	1718
1.50500	1227
1.50867	860
1.51233	593
1.51600	401
1.51967	264
1.52333	165
1.52700	93
1.53067	39
1.53433	-3
1.53800	-32
1.54167	-32
1.54533	38
1.54900	243
1.55267	607
1.55633	1076
1.56000	1555
1.56367	1967
1.56733	2263
1.57100	2395
1.57467	2329
1.57833	2073
1.58200	1690
1.58567	1273
1.58933	892
1.59300	580
1.59667	346
1.60033	180
1.60400	65
1.60767	-15
1.61133	-68
1.61500	-102
1.61867	-121
1.62233	-130
1.62600	-133
1.62967	-134
1.63333	-135
1.63700	-138
1.64067	-141
1.64433	-146
1.64800	-152
1.65167	-160
1.65533	-170
1.65900	-178
1.66267	-181
1.66633	-180
1.67000	-177
1.67367	-171
1.67733	-163
1.68100	-158
1.68467	-159
1.68833	-163
1.69200	-165
1.69567	-165
1.69933	-159
1.70300	-150
1.70667	-144
1.71033	-145
1.71400	-151
1.71767	-156
1.72133	-156
1.72500	-154
1.72867	-153
1.73233	-153
1.73600	-157
1.73967	-165
1.74333	-176
1.74700	-189
1.75067	-197
1.75433	-199
1.75800	-197
1.76167	-194
1.76533	-189
1.76900	-184
1.77267	-180
1.77633	-181
1.78000	-183
1.78367	-189
1.78733	-195
1.79100	-197
1.79467	-195
1.79833	-191
1.80200	-185
1.80567	-179
1.80933	-176
1.81300	-173
1.81667	-173
1.82033	-173
1.82400	-173
1.82767	-169
1.83133	-163
1.83500	-158
1.83867	-158
1.84233	-162
1.84600	-166
1.84967	-171
1.85333	-176
1.85700	-178
1.86067	-178
1.86433	-177
1.86800	-176
1.87167	-176
1.87533	-177
1.87900	-178
1.88267	-179
1.88633	-180
1.89000	-181
1.89367	-178
1.89733	-173
1.90100	-171
1.90467	-169
1.90833	-166
1.91200	-164
1.91567	-163
1.91933	-160
1.92300	-157
1.92667	-158
1.93033	-164
1.93400	-171
1.93767	-175
1.94133	-179
1.94500	-182
1.94867	-183
1.95233	-178
1.95600	-157
1.95967	-60
1.96333	454
1.96700	2781
1.97067	10906
1.97433	32774
1.97800	78906
1.98167	156352
1.98533	261590
1.98900	379496
1.99267	489098
1.99633	570663
2.00000	609822
2.00367	600809
2.00733	548613
2.01100	467122
2.01467	373941
2.01833	284447
2.02200	208079
2.02567	148160
2.02933	103859
2.03300	72412
2.03667	50678
2.04033	35894
2.04400	25909
2.04767	19165
2.05133	14581
2.05500	11427
2.05867	9216
2.06233	7628
2.06600	6462
2.06967	5582
2.07333	4904
2.07700	4369
2.08067	3936
2.08433	3580
2.08800	3283
2.09167	3034
2.09533	2821
2.09900	2634
2.10267	2464
2.10633	2311
2.11000	2173
2.11367	2050
2.11733	1940
2.12100	1839
2.12467	1746
2.12833	1659
2.13200	1579
2.13567	1507
2.13933	1441
2.14300	1382
2.14667	1329
2.15033	1281
2.15400	1232
2.15767	1183
2.16133	1136
2.16500	1095
2.16867	1058
2.17233	1021
2.17600	983
2.17967	946
2.18333	911
2.18700	878
2.19067	847
2.19433	816
2.19800	788
2.20167	765
2.20533	745
2.20900	725
2.21267	706
2.21633	690
2.22000	671
2.22367	649
2.22733	626
2.23100	606
2.23467	593
2.23833	583
2.24200	574
2.24567	564
2.24933	551
2.25300	535
2.25667	518
2.26033	503
2.26400	492
2.26767	483
2.27133	474
2.27500	463
2.27867	452
2.28233	443
2.28600	439
2.28967	437
2.29333	429
2.29700	418
2.30067	406
2.30433	392
2.30800	378
2.31167	367
2.31533	360
2.31900	352
2.32267	342
2.32633	335
2.33000	331
2.33367	325
2.33733	318
2.34100	311
2.34467	302
2.34833	294
2.35200	289
2.35567	287
2.35933	282
2.36300	271
2.36667	260
2.37033	251
2.37400	246
2.37767	243
2.38133	241
2.38500	236
2.38867	233
2.39233	234
2.39600	236
2.39967	238
2.40333	237
2.40700	233
2.41067	225
2.41433	221
2.41800	223
2.42167	227
2.42533	225
2.42900	218
2.43267	210
2.43633	200
2.44000	191
2.44367	184
2.44733	181
2.45100	178
2.45467	174
2.45833	171
2.46200	171
2.46567	171
2.46933	169
2.47300	164
2.47667	156
2.48033	149
2.48400	146
2.48767	149
2.49133	150
2.49500	150
2.49867	147
2.50233	145
2.50600	146
2.50967	147
2.51333	144
2.51700	137
2.52067	128
2.52433	123
2.52800	123
2.53167	126
2.53533	129
2.53900	131
2.54267	130
2.54633	127
2.55000	122
2.55367	117
2.55733	111
2.56100	102
2.56467	94
2.56833	91
2.57200	92
2.57567	93
2.57933	93
2.58300	90
2.58667	86
2.59033	85
2.59400	86
2.59767	86
2.60133	86
2.60500	83
2.60867	80
2.61233	81
2.61600	85
2.61967	90
2.62333	95
2.62700	94
2.63067	86
2.63433	80
2.63800	78
2.64167	76
2.64533	73
2.64900	71
2.65267	68
2.65633	64
2.66000	62
2.66367	62
2.66733	61
2.67100	58
2.67467	54
2.67833	51
2.68200	47
2.68567	46
2.68933	42
2.69300	36
2.69667	32
2.70033	29
2.70400	30
2.70767	33
2.71133	38
2.71500	43
2.71867	47
2.72233	49
2.72600	45
2.72967	37
2.73333	31
2.73700	26
2.74067	25
2.74433	28
2.74800	31
2.75167	30
2.75533	29
2.75900	26
2.76267	24
2.76633	23
2.77000	22
2.77367	22
2.77733	21
2.78100	20
2.78467	21
2.78833	25
2.79200	30
2.79567	33
2.79933	33
2.80300	31
2.80667	30
2.81033	26
2.81400	18
2.81767	12
2.82133	10
2.82500	12
2.82867	12
2.83233	10
2.83600	9
2.83967	14
2.84333	20
2.84700	21
2.85067	19
2.85433	17
2.85800	15
2.86167	13
2.86533	8
2.86900	2
2.87267	-2
2.87633	-2
2.88000	-1
2.88367	-2
2.88733	-6
2.89100	-12
2.89467	-16
2.89833	-17
2.90200	-15
2.90567	-11
2.90933	-6
2.91300	-0
2.91667	10
2.92033	16
2.92400	15
2.92767	8
2.93133	-5
2.93500	-18
2.93867	-27
2.94233	-32
2.94600	-34
2.94967	-32
2.95333	-28
2.95700	-23
2.96067	-16
2.96433	-12
2.96800	-10
2.97167	-8
2.97533	-2
2.97900	4
2.98267	7
2.98633	5
2.99000	0
2.99367	-2
2.99733	-2
3.00100	-1
3.00467	-0
3.00833	-0
3.01200	-1
3.01567	-4
3.01933	-7
3.02300	-9
3.02667	-9
3.03033	-8
3.03400	-9
3.03767	-9
3.04133	-9
3.04500	-10
3.04867	-13
3.05233	-17
3.05600	-23
3.05967	-30
3.06333	-41
3.06700	-48
3.07067	-50
3.07433	-49
3.07800	-44
3.08167	-39
3.08533	-35
3.08900	-32
3.09267	-28
3.09633	-25
3.10000	-27
3.10367	-33
3.10733	-37
3.11100	-36
3.11467	-33
3.11833	-30
3.12200	-28
3.12567	-27
3.12933	-28
3.13300	-30
3.13667	-32
3.14033	-34
3.14400	-38
3.14767	-39
3.15133	-37
3.15500	-35
3.15867	-38
3.16233	-45
3.16600	-54
3.16967	-58
3.17333	-56
3.17700	-51
3.18067	-50
3.18433	-50
3.18800	-51
3.19167	-49
3.19533	-42
3.19900	-37
3.20267	-33
3.20633	-29
3.21000	-24
3.21367	-21
3.21733	-25
3.22100	-31
3.22467	-34
3.22833	-35
3.23200	-36
3.23567	-38
3.23933	-41
3.24300	-44
3.24667	-47
3.25033	-47
3.25400	-46
3.25767	-46
3.26133	-44
3.26500	-41
3.26867	-40
3.27233	-41
3.27600	-43
3.27967	-44
3.28333	-44
3.28700	-44
3.29067	-47
3.29433	-47
3.29800	-44
3.30167	-42
3.30533	-43
3.30900	-50
3.31267	-61
3.31633	-70
3.32000	-73
3.32367	-71
3.32733	-65
3.33100	-59
3.33467	-57
3.33833	-56
3.34200	-51
3.34567	-44
3.34933	-40
3.35300	-40
3.35667	-45
3.36033	-51
3.36400	-57
3.36767	-63
3.37133	-67
3.37500	-67
3.37867	-64
3.38233	-59
3.38600	-58
3.38967	-60
3.39333	-62
3.39700	-63
3.40067	-64
3.40433	-63
3.40800	-60
3.41167	-55
3.41533	-48
3.41900	-41
3.42267	-37
3.42633	-34
3.43000	-34
3.43367	-34
3.43733	-33
3.44100	-35
3.44467	-38
3.44833	-43
3.45200	-46
3.45567	-47
3.45933	-47
3.46300	-47
3.46667	-45
3.47033	-45
3.47400	-46
3.47767	-48
3.48133	-52
3.48500	-55
3.48867	-57
3.49233	-60
3.49600	-64
3.49967	-67
3.50333	-69
3.50700	-68
3.51067	-63
3.51433	-59
3.51800	-59
3.52167	-65
3.52533	-73
3.52900	-77
3.53267	-76
3.53633	-71
3.54000	-66
3.54367	-61
3.54733	-58
3.55100	-57
3.55467	-59
3.55833	-61
3.56200	-64
3.56567	-71
3.56933	-78
3.57300	-80
3.57667	-76
3.58033	-67
3.58400	-60
3.58767	-56
3.59133	-57
3.59500	-60
3.59867	-65
3.60233	-70
3.60600	-74
3.60967	-78
3.61333	-81
3.61700	-81
3.62067	-80
3.62433	-77
3.62800	-69
3.63167	-59
3.63533	-48
3.63900	-41
3.64267	-43
3.64633	-49
3.65000	-54
3.65367	-55
3.65733	-56
3.66100	-59
3.66467	-64
3.66833	-70
3.67200	-75
3.67567	-77
3.67933	-76
3.68300	-74
3.68667	-73
3.69033	-71
3.69400	-71
3.69767	-72
3.70133	-73
3.70500	-76
3.70867	-77
3.71233	-78
3.71600	-80
3.71967	-84
3.72333	-88
3.72700	-88
3.73067	-86
3.73433	-83
3.73800	-78
3.74167	-72
3.74533	-67
3.74900	-65
3.75267	-61
3.75633	-59
3.76000	-61
3.76367	-68
3.76733	-75
3.77100	-77
3.77467	-75
3.77833	-72
3.78200	-68
3.78567	-67
3.78933	-69
3.79300	-74
3.79667	-79
3.80033	-82
3.80400	-79
3.80767	-70
3.81133	-61
3.81500	-55
3.81867	-53
3.82233	-57
3.82600	-63
3.82967	-71
3.83333	-78
3.83700	-81
3.84067	-77
3.84433	-71
3.84800	-69
3.85167	-66
3.85533	-64
3.85900	-67
3.86267	-72
3.86633	-77
3.87000	-78
3.87367	-74
3.87733	-68
3.88100	-61
3.88467	-54
3.88833	-48
3.89200	-43
3.89567	-40
3.89933	-37
3.90300	-34
3.90667	-34
3.91033	-37
3.91400	-41
3.91767	-45
3.92133	-47
3.92500	-50
3.92867	-53
3.93233	-59
3.93600	-63
3.93967	-63
3.94333	-57
3.94700	-49
3.95067	-41
3.95433	-34
3.95800	-30
3.96167	-31
3.96533	-34
3.96900	-35
3.97267	-31
3.97633	-27
3.98000	-26
3.98367	-29
3.98733	-35
3.99100	-39
3.99467	-38
3.99833	-38

[Chromatogram (Ch2)]
Interval(msec)	220
# of Points	1091
Start Time(min)	0.002
End Time(min)	3.998
R.Time (min)	Intensity
0.00167	-0
0.00533	-0
0.00900	-0
0.01267	-0
0.01633	0
0.02000	0
0.02367	0
0.02733	0
0.03100	0
0.03467	0
0.03833	0
0.04200	0
0.04567	1
0.04933	1
0.05300	1
0.05667	1
0.06033	1
0.06400	1
0.06767	1
0.07133	1
0.07500	1
0.07867	1
0.08233	1
0.08600	1
0.08967	1
0.09333	2
0.09700	2
0.10067	2
0.10433	2
0.10800	2
0.11167	2
0.11533	2
0.11900	2
0.12267	2
0.12633	2
0.13000	3
0.13367	3
0.13733	2
0.14100	2
0.14467	2
0.14833	2
0.15200	2
0.15567	2
0.15933	1
0.16300	1
0.16667	1
0.17033	0
0.17400	0
0.17767	0
0.18133	0
0.18500	0
0.18867	0
0.19233	0
0.19600	0
0.19967	-0
0.20333	-0
0.20700	-0
0.21067	-1
0.21433	-1
0.21800	-1
0.22167	-1
0.22533	-1
0.22900	-1
0.23267	-1
0.23633	-1
0.24000	-1
0.24367	-0
0.24733	-0
0.25100	-0
0.25467	0
0.25833	0
0.26200	-0
0.26567	-0
0.26933	-0
0.27300	-0
0.27667	-0
0.28033	-0
0.28400	-0
0.28767	-1
0.29133	-1
0.29500	-1
0.29867	-2
0.30233	-2
0.30600	-2
0.30967	-2
0.31333	-2
0.31700	-2
0.32067	-2
0.32433	-2
0.32800	-2
0.33167	-2
0.33533	-2
0.33900	-1
0.34267	-1
0.34633	-1
0.35000	-1
0.35367	-1
0.35733	-1
0.36100	-1
0.36467	-1
0.36833	-1
0.37200	-1
0.37567	-1
0.37933	-0
0.38300	-0
0.38667	0
0.39033	1
0.39400	1
0.39767	1
0.40133	2
0.40500	2
0.40867	2
0.41233	2
0.41600	2
0.41967	2
0.42333	2
0.42700	2
0.43067	2
0.43433	2
0.43800	2
0.44167	1
0.44533	1
0.44900	1
0.45267	1
0.45633	1
0.46000	0
0.46367	0
0.46733	0
0.47100	1
0.47467	1
0.47833	1
0.48200	1
0.48567	1
0.48933	1
0.49300	1
0.49667	1
0.50033	1
0.50400	2
0.50767	2
0.51133	2
0.51500	2
0.51867	2
0.52233	2
0.52600	2
0.52967	2
0.53333	2
0.53700	2
0.54067	2
0.54433	2
0.54800	1
0.55167	1
0.55533	1
0.55900	1
0.56267	1
0.56633	1
0.57000	1
0.57367	1
0.57733	1
0.58100	1
0.58467	1
0.58833	1
0.59200	1
0.59567	1
0.59933	1
0.60300	1
0.60667	1
0.61033	1
0.61400	1
0.61767	1
0.62133	1
0.62500	1
0.62867	1
0.63233	1
0.63600	1
0.63967	1
0.64333	1
0.64700	1
0.65067	1
0.65433	1
0.65800	0
0.66167	0
0.66533	-0
0.66900	-0
0.67267	-0
0.67633	-1
0.68000	-1
0.68367	-1
0.68733	-0
0.69100	-0
0.69467	-0
0.69833	-0
0.70200	0
0.70567	0
0.70933	0
0.71300	0
0.71667	1
0.72033	1
0.72400	0
0.72767	0
0.73133	0
0.73500	0
0.73867	0
0.74233	0
0.74600	0
0.74967	0
0.75333	0
0.75700	0
0.76067	0
0.76433	0
0.76800	0
0.77167	0
0.77533	0
0.77900	1
0.78267	1
0.78633	1
0.79000	1
0.79367	1
0.79733	1
0.80100	1
0.80467	1
0.80833	1
0.81200	1
0.81567	0
0.81933	0
0.82300	0
0.82667	0
0.83033	-0
0.83400	-0
0.83767	-0
0.84133	-0
0.84500	-0
0.84867	-0
0.85233	-0
0.85600	-0
0.85967	-0
0.86333	-1
0.86700	-1
0.87067	-1
0.87433	-1
0.87800	-1
0.88167	-0
0.88533	0
0.88900	1
0.89267	1
0.89633	1
0.90000	1
0.90367	1
0.90733	1
0.91100	1
0.91467	1
0.91833	1
0.92200	0
0.92567	0
0.92933	0
0.93300	0
0.93667	0
0.94033	-0
0.94400	-0
0.94767	-0
0.95133	-0
0.95500	-0
0.95867	0
0.96233	0
0.96600	0
0.96967	1
0.97333	1
0.97700	1
0.98067	1
0.98433	1
0.98800	1
0.99167	1
0.99533	0
0.99900	0
1.00267	0
1.00633	-0
1.01000	-0
1.01367	-0
1.01733	-0
1.02100	-0
1.02467	0
1.02833	0
1.03200	-0
1.03567	-0
1.03933	-0
1.04300	-0
1.04667	-0
1.05033	-0
1.05400	-0
1.05767	-0
1.06133	-0
1.06500	-0
1.06867	-0
1.07233	-0
1.07600	-0
1.07967	-0
1.08333	-1
1.08700	-1
1.09067	-1
1.09433	-1
1.09800	-1
1.10167	-1
1.10533	-0
1.10900	-0
1.11267	-0
1.11633	-0
1.12000	-0
1.12367	-0
1.12733	-1
1.13100	-1
1.13467	-1
1.13833	-1
1.14200	-1
1.14567	-1
1.14933	-1
1.15300	-1
1.15667	-1
1.16033	-1
1.16400	-1
1.16767	-2
1.17133	-2
1.17500	-2
1.17867	-2
1.18233	-2
1.18600	-2
1.18967	-3
1.19333	-3
1.19700	-3
1.20067	-3
1.20433	-3
1.20800	-3
1.21167	-3
1.21533	-3
1.21900	-3
1.22267	-3
1.22633	-3
1.23000	-2
1.23367	-2
1.23733	-2
1.24100	-2
1.24467	-2
1.24833	-2
1.25200	-1
1.25567	-1
1.25933	-1
1.26300	-1
1.26667	-1
1.27033	-1
1.27400	-1
1.27767	-1
1.28133	-0
1.28500	-1
1.28867	-1
1.29233	-1
1.29600	-1
1.29967	-0
1.30333	-0
1.30700	-0
1.31067	-0
1.31433	-0
1.31800	-0
1.32167	-0
1.32533	-0
1.32900	-0
1.33267	-0
1.33633	-0
1.34000	-0
1.34367	-0
1.34733	0
1.35100	0
1.35467	0
1.35833	0
1.36200	0
1.36567	0
1.36933	0
1.37300	0
1.37667	0
1.38033	0
1.38400	-0
1.38767	-0
1.39133	-1
1.39500	-1
1.39867	-1
1.40233	-2
1.40600	-2
1.40967	-2
1.41333	-2
1.41700	-2
1.42067	-2
1.42433	-2
1.42800	-1
1.43167	-1
1.43533	-1
1.43900	-1
1.44267	-1
1.44633	-1
1.45000	-1
1.45367	-1
1.45733	-1
1.46100	-1
1.46467	-1
1.46833	-1
1.47200	-1
1.47567	-1
1.47933	-1
1.48300	-1
1.48667	-1
1.49033	-1
1.49400	-1
1.49767	-1
1.50133	-1
1.50500	-1
1.50867	-1
1.51233	-1
1.51600	-1
1.51967	-1
1.52333	-1
1.52700	-1
1.53067	-1
1.53433	-1
1.53800	-1
1.54167	-1
1.54533	-0
1.54900	-0
1.55267	-0
1.55633	-0
1.56000	-0
1.56367	-0
1.56733	-0
1.57100	-0
1.57467	-0
1.57833	-0
1.58200	-1
1.58567	-1
1.58933	-1
1.59300	-1
1.59667	-2
1.60033	-3
1.60400	-4
1.60767	-5
1.61133	-7
1.61500	-9
1.61867	-11
1.62233	-14
1.62600	-17
1.62967	-20
1.63333	-23
1.63700	-26
1.64067	-30
1.64433	-33
1.64800	-37
1.65167	-40
1.65533	-44
1.65900	-48
1.66267	-52
1.66633	-56
1.67000	-60
1.67367	-65
1.67733	-70
1.68100	-74
1.68467	-79
1.68833	-84
1.69200	-88
1.69567	-91
1.69933	-94
1.70300	-96
1.70667	-98
1.71033	-100
1.71400	-102
1.71767	-104
1.72133	-105
1.72500	-107
1.72867	-108
1.73233	-109
1.73600	-110
1.73967	-110
1.74333	-111
1.74700	-112
1.75067	-113
1.75433	-113
1.75800	-114
1.76167	-115
1.76533	-115
1.76900	-115
1.77267	-115
1.77633	-115
1.78000	-115
1.78367	-116
1.78733	-117
1.79100	-117
1.79467	-118
1.79833	-118
1.80200	-119
1.80567	-119
1.80933	-119
1.81300	-120
1.81667	-120
1.82033	-120
1.82400	-120
1.82767	-120
1.83133	-120
1.83500	-119
1.83867	-119
1.84233	-118
1.84600	-118
1.84967	-117
1.85333	-117
1.85700	-116
1.86067	-116
1.86433	-115
1.86800	-115
1.87167	-115
1.87533	-115
1.87900	-115
1.88267	-115
1.88633	-115
1.89000	-115
1.89367	-116
1.89733	-116
1.90100	-117
1.90467	-117
1.90833	-117
1.91200	-117
1.91567	-117
1.91933	-117
1.92300	-117
1.92667	-117
1.93033	-117
1.93400	-117
1.93767	-117
1.94133	-117
1.94500	-117
1.94867	-116
1.95233	-116
1.95600	-116
1.95967	-115
1.96333	-115
1.96700	-114
1.97067	-114
1.97433	-113
1.97800	-113
1.98167	-112
1.98533	-111
1.98900	-111
1.99267	-111
1.99633	-111
2.00000	-111
2.00367	-111
2.00733	-111
2.01100	-111
2.01467	-110
2.01833	-110
2.02200	-109
2.02567	-109
2.02933	-108
2.03300	-108
2.03667	-108
2.04033	-107
2.04400	-107
2.04767	-107
2.05133	-106
2.05500	-106
2.05867	-106
2.06233	-106
2.06600	-105
2.06967	-104
2.07333	-104
2.07700	-103
2.08067	-103
2.08433	-102
2.08800	-102
2.09167	-102
2.09533	-102
2.09900	-103
2.10267	-103
2.10633	-102
2.11000	-102
2.11367	-102
2.11733	-101
2.12100	-101
2.12467	-100
2.12833	-100
2.13200	-99
2.13567	-99
2.13933	-99
2.14300	-99
2.14667	-99
2.15033	-99
2.15400	-99
2.15767	-99
2.16133	-98
2.16500	-98
2.16867	-98
2.17233	-97
2.17600	-97
2.17967	-97
2.18333	-97
2.18700	-97
2.19067	-97
2.19433	-97
2.19800	-96
2.20167	-96
2.20533	-96
2.20900	-95
2.21267	-95
2.21633	-95
2.22000	-94
2.22367	-94
2.22733	-94
2.23100	-93
2.23467	-93
2.23833	-93
2.24200	-93
2.24567	-92
2.24933	-92
2.25300	-92
2.25667	-91
2.26033	-91
2.26400	-90
2.26767	-90
2.27133	-89
2.27500	-88
2.27867	-88
2.28233	-87
2.28600	-87
2.28967	-87
2.29333	-86
2.29700	-86
2.30067	-86
2.30433	-87
2.30800	-87
2.31167	-86
2.31533	-86
2.31900	-86
2.32267	-85
2.32633	-85
2.33000	-84
2.33367	-84
2.33733	-83
2.34100	-82
2.34467	-81
2.34833	-80
2.35200	-80
2.35567	-79
2.35933	-79
2.36300	-78
2.36667	-78
2.37033	-77
2.37400	-76
2.37767	-74
2.38133	-72
2.38500	-69
2.38867	-66
2.39233	-62
2.39600	-58
2.39967	-54
2.40333	-50
2.40700	-46
2.41067	-42
2.41433	-38
2.41800	-34
2.42167	-31
2.42533	-28
2.42900	-25
2.43267	-23
2.43633	-20
2.44000	-18
2.44367	-15
2.44733	-13
2.45100	-10
2.45467	-8
2.45833	-7
2.46200	-5
2.46567	-4
2.46933	-3
2.47300	-2
2.47667	-0
2.48033	1
2.48400	3
2.48767	4
2.49133	6
2.49500	7
2.49867	8
2.50233	9
2.50600	9
2.50967	10
2.51333	10
2.51700	11
2.52067	11
2.52433	12
2.52800	13
2.53167	13
2.53533	14
2.53900	15
2.54267	15
2.54633	15
2.55000	15
2.55367	15
2.55733	15
2.56100	16
2.56467	16
2.56833	17
2.57200	18
2.57567	18
2.57933	18
2.58300	19
2.58667	19
2.59033	19
2.59400	19
2.59767	19
2.60133	19
2.60500	19
2.60867	19
2.61233	18
2.61600	18
2.61967	18
2.62333	18
2.62700	18
2.63067	19
2.63433	20
2.63800	20
2.64167	21
2.64533	22
2.64900	22
2.65267	22
2.65633	22
2.66000	22
2.66367	22
2.66733	22
2.67100	22
2.67467	22
2.67833	22
2.68200	22
2.68567	22
2.68933	22
2.69300	22
2.69667	22
2.70033	23
2.70400	23
2.70767	24
2.71133	24
2.71500	24
2.71867	24
2.72233	24
2.72600	24
2.72967	24
2.73333	24
2.73700	24
2.74067	25
2.74433	25
2.74800	25
2.75167	25
2.75533	26
2.75900	26
2.76267	26
2.76633	27
2.77000	27
2.77367	26
2.77733	26
2.78100	26
2.78467	25
2.78833	25
2.79200	25
2.79567	24
2.79933	24
2.80300	24
2.80667	24
2.81033	24
2.81400	24
2.81767	24
2.82133	24
2.82500	24
2.82867	25
2.83233	25
2.83600	25
2.83967	26
2.84333	26
2.84700	27
2.85067	27
2.85433	27
2.85800	27
2.86167	26
2.86533	24
2.86900	21
2.87267	15
2.87633	6
2.88000	-6
2.88367	-21
2.88733	-40
2.89100	-64
2.89467	-91
2.89833	-122
2.90200	-156
2.90567	-194
2.90933	-234
2.91300	-278
2.91667	-323
2.92033	-371
2.92400	-419
2.92767	-469
2.93133	-518
2.93500	-568
2.93867	-618
2.94233	-668
2.94600	-717
2.94967	-766
2.95333	-818
2.95700	-875
2.96067	-935
2.96433	-990
2.96800	-1029
2.97167	-1045
2.97533	-1035
2.97900	-1001
2.98267	-949
2.98633	-884
2.99000	-811
2.99367	-735
2.99733	-658
3.00100	-584
3.00467	-515
3.00833	-450
3.01200	-392
3.01567	-339
3.01933	-292
3.02300	-250
3.02667	-214
3.03033	-182
3.03400	-154
3.03767	-130
3.04133	-109
3.04500	-91
3.04867	-76
3.05233	-62
3.05600	-51
3.05967	-42
3.06333	-33
3.06700	-26
3.07067	-20
3.07433	-15
3.07800	-11
3.08167	-7
3.08533	-4
3.08900	-1
3.09267	1
3.09633	3
3.10000	5
3.10367	6
3.10733	7
3.11100	8
3.11467	9
3.11833	10
3.12200	11
3.12567	12
3.12933	13
3.13300	13
3.13667	14
3.14033	15
3.14400	15
3.14767	16
3.15133	16
3.15500	16
3.15867	17
3.16233	17
3.16600	18
3.16967	18
3.17333	18
3.17700	18
3.18067	18
3.18433	18
3.18800	18
3.19167	18
3.19533	19
3.19900	19
3.20267	19
3.20633	19
3.21000	19
3.21367	20
3.21733	20
3.22100	21
3.22467	21
3.22833	21
3.23200	21
3.23567	21
3.23933	22
3.24300	22
3.24667	22
3.25033	23
3.25400	23
3.25767	23
3.26133	23
3.26500	23
3.26867	23
3.27233	23
3.27600	23
3.27967	23
3.28333	23
3.28700	24
3.29067	24
3.29433	24
3.29800	24
3.30167	24
3.30533	24
3.30900	25
3.31267	25
3.31633	25
3.32000	25
3.32367	25
3.32733	25
3.33100	26
3.33467	26
3.33833	26
3.34200	26
3.34567	26
3.34933	26
3.35300	26
3.35667	26
3.36033	27
3.36400	27
3.36767	27
3.37133	27
3.37500	27
3.37867	28
3.38233	28
3.38600	28
3.38967	28
3.39333	28
3.39700	28
3.40067	28
3.40433	28
3.40800	28
3.41167	28
3.41533	28
3.41900	28
3.42267	28
3.42633	28
3.43000	28
3.43367	27
3.43733	27
3.44100	27
3.44467	27
3.44833	27
3.45200	27
3.45567	27
3.45933	27
3.46300	27
3.46667	27
3.47033	27
3.47400	27
3.47767	26
3.48133	26
3.48500	26
3.48867	26
3.49233	26
3.49600	26
3.49967	26
3.50333	26
3.50700	26
3.51067	27
3.51433	27
3.51800	27
3.52167	27
3.52533	27
3.52900	27
3.53267	27
3.53633	27
3.54000	27
3.54367	27
3.54733	26
3.55100	26
3.55467	26
3.55833	26
3.56200	26
3.56567	26
3.56933	26
3.57300	27
3.57667	27
3.58033	27
3.58400	27
3.58767	27
3.59133	27
3.59500	27
3.59867	28
3.60233	28
3.60600	28
3.60967	28
3.61333	28
3.61700	28
3.62067	28
3.62433	28
3.62800	28
3.63167	29
3.63533	29
3.63900	29
3.64267	28
3.64633	28
3.65000	28
3.65367	28
3.65733	28
3.66100	28
3.66467	28
3.66833	27
3.67200	27
3.67567	27
3.67933	27
3.68300	27
3.68667	28
3.69033	28
3.69400	28
3.69767	28
3.70133	28
3.70500	29
3.70867	29
3.71233	29
3.71600	29
3.71967	28
3.72333	28
3.72700	28
3.73067	28
3.73433	28
3.73800	28
3.74167	28
3.74533	28
3.74900	28
3.75267	27
3.75633	27
3.76000	27
3.76367	27
3.76733	27
3.77100	27
3.77467	27
3.77833	27
3.78200	27
3.78567	27
3.78933	26
3.79300	26
3.79667	26
3.80033	25
3.80400	25
3.80767	25
3.81133	25
3.81500	25
3.81867	25
3.82233	26
3.82600	26
3.82967	26
3.83333	26
3.83700	27
3.84067	27
3.84433	27
3.84800	28
3.85167	28
3.85533	28
3.85900	28
3.86267	28
3.86633	28
3.87000	27
3.87367	27
3.87733	27
3.88100	27
3.88467	26
3.88833	26
3.89200	26
3.89567	26
3.89933	26
3.90300	27
3.90667	27
3.91033	27
3.91400	27
3.91767	27
3.92133	28
3.92500	28
3.92867	28
3.93233	28
3.93600	28
3.93967	28
3.94333	28
3.94700	28
3.95067	28
3.95433	28
3.95800	27
3.96167	27
3.96533	27
3.96900	26
3.97267	26
3.97633	26
3.98000	26
3.98367	26
3.98733	26
3.99100	26
3.99467	26
3.99833	26

[Chromatogram (Ch3)]
Interval(msec)	220
# of Points	1091
Start Time(min)	0.002
End Time(min)	3.998
R.Time (min)	Intensity
0.00167	-1
0.00533	-1
0.00900	-2
0.01267	-2
0.01633	-3
0.02000	-1
0.02367	-2
0.02733	-3
0.03100	-4
0.03467	-3
0.03833	-0
0.04200	2
0.04567	2
0.04933	1
0.05300	-1
0.05667	-1
0.06033	-0
0.06400	2
0.06767	3
0.07133	2
0.07500	2
0.07867	2
0.08233	2
0.08600	1
0.08967	1
0.09333	3
0.09700	4
0.10067	5
0.10433	6
0.10800	6
0.11167	6
0.11533	7
0.11900	7
0.12267	8
0.12633	10
0.13000	12
0.13367	13
0.13733	14
0.14100	15
0.14467	15
0.14833	14
0.15200	15
0.15567	16
0.15933	16
0.16300	15
0.16667	13
0.17033	13
0.17400	11
0.17767	8
0.18133	9
0.18500	8
0.18867	8
0.19233	8
0.19600	8
0.19967	7
0.20333	4
0.20700	1
0.21067	4
0.21433	9
0.21800	12
0.22167	13
0.22533	13
0.22900	11
0.23267	11
0.23633	10
0.24000	9
0.24367	9
0.24733	8
0.25100	10
0.25467	13
0.25833	14
0.26200	16
0.26567	18
0.26933	18
0.27300	17
0.27667	17
0.28033	17
0.28400	16
0.28767	15
0.29133	15
0.29500	15
0.29867	15
0.30233	16
0.30600	19
0.30967	21
0.31333	21
0.31700	20
0.32067	18
0.32433	18
0.32800	19
0.33167	19
0.33533	19
0.33900	17
0.34267	15
0.34633	15
0.35000	17
0.35367	17
0.35733	17
0.36100	17
0.36467	16
0.36833	16
0.37200	16
0.37567	17
0.37933	20
0.38300	22
0.38667	24
0.39033	26
0.39400	26
0.39767	27
0.40133	26
0.40500	24
0.40867	24
0.41233	25
0.41600	26
0.41967	27
0.42333	26
0.42700	27
0.43067	26
0.43433	23
0.43800	20
0.44167	18
0.44533	19
0.44900	22
0.45267	24
0.45633	25
0.46000	26
0.46367	26
0.46733	24
0.47100	22
0.47467	22
0.47833	20
0.48200	21
0.48567	21
0.48933	20
0.49300	21
0.49667	23
0.50033	23
0.50400	24
0.50767	24
0.51133	26
0.51500	27
0.51867	27
0.52233	23
0.52600	20
0.52967	20
0.53333	22
0.53700	22
0.54067	22
0.54433	21
0.54800	20
0.55167	20
0.55533	22
0.55900	21
0.56267	21
0.56633	22
0.57000	21
0.57367	20
0.57733	20
0.58100	18
0.58467	17
0.58833	19
0.59200	21
0.59567	25
0.59933	26
0.60300	26
0.60667	23
0.61033	22
0.61400	22
0.61767	23
0.62133	24
0.62500	24
0.62867	25
0.63233	26
0.63600	27
0.63967	28
0.64333	26
0.64700	25
0.65067	23
0.65433	21
0.65800	22
0.66167	24
0.66533	24
0.66900	25
0.67267	26
0.67633	27
0.68000	26
0.68367	26
0.68733	26
0.69100	25
0.69467	26
0.69833	27
0.70200	26
0.70567	25
0.70933	23
0.71300	23
0.71667	24
0.72033	24
0.72400	25
0.72767	24
0.73133	22
0.73500	24
0.73867	27
0.74233	30
0.74600	33
0.74967	33
0.75333	33
0.75700	32
0.76067	30
0.76433	27
0.76800	25
0.77167	26
0.77533	27
0.77900	28
0.78267	28
0.78633	27
0.79000	27
0.79367	25
0.79733	23
0.80100	21
0.80467	21
0.80833	22
0.81200	23
0.81567	22
0.81933	23
0.82300	25
0.82667	26
0.83033	25
0.83400	25
0.83767	25
0.84133	24
0.84500	24
0.84867	26
0.85233	29
0.85600	31
0.85967	30
0.86333	29
0.86700	29
0.87067	30
0.87433	31
0.87800	31
0.88167	29
0.88533	28
0.88900	26
0.89267	25
0.89633	23
0.90000	23
0.90367	23
0.90733	24
0.91100	25
0.91467	28
0.91833	27
0.92200	24
0.92567	25
0.92933	25
0.93300	25
0.93667	24
0.94033	25
0.94400	23
0.94767	23
0.95133	26
0.95500	27
0.95867	28
0.96233	29
0.96600	28
0.96967	27
0.97333	27
0.97700	28
0.98067	28
0.98433	28
0.98800	26
0.99167	26
0.99533	26
0.99900	26
1.00267	26
1.00633	24
1.01000	22
1.01367	22
1.01733	22
1.02100	23
1.02467	22
1.02833	23
1.03200	24
1.03567	24
1.03933	23
1.04300	25
1.04667	24
1.05033	23
1.05400	21
1.05767	20
1.06133	22
1.06500	25
1.06867	28
1.07233	30
1.07600	30
1.07967	30
1.08333	31
1.08700	31
1.09067	31
1.09433	31
1.09800	30
1.10167	29
1.10533	26
1.10900	24
1.11267	23
1.11633	22
1.12000	24
1.12367	26
1.12733	26
1.13100	27
1.13467	30
1.13833	30
1.14200	29
1.14567	27
1.14933	25
1.15300	22
1.15667	20
1.16033	21
1.16400	22
1.16767	21
1.17133	22
1.17500	22
1.17867	21
1.18233	24
1.18600	25
1.18967	24
1.19333	22
1.19700	22
1.20067	23
1.20433	25
1.20800	27
1.21167	26
1.21533	23
1.21900	21
1.22267	21
1.22633	20
1.23000	19
1.23367	19
1.23733	20
1.24100	21
1.24467	24
1.24833	26
1.25200	27
1.25567	29
1.25933	29
1.26300	28
1.26667	29
1.27033	29
1.27400	25
1.27767	23
1.28133	22
1.28500	20
1.28867	20
1.29233	20
1.29600	21
1.29967	22
1.30333	23
1.30700	24
1.31067	24
1.31433	24
1.31800	24
1.32167	23
1.32533	23
1.32900	25
1.33267	26
1.33633	25
1.34000	23
1.34367	22
1.34733	21
1.35100	20
1.35467	20
1.35833	20
1.36200	21
1.36567	22
1.36933	22
1.37300	21
1.37667	19
1.38033	19
1.38400	18
1.38767	17
1.39133	17
1.39500	20
1.39867	22
1.40233	22
1.40600	22
1.40967	20
1.41333	18
1.41700	19
1.42067	19
1.42433	20
1.42800	20
1.43167	20
1.43533	20
1.43900	20
1.44267	21
1.44633	21
1.45000	21
1.45367	22
1.45733	22
1.46100	21
1.46467	18
1.46833	17
1.47200	16
1.47567	16
1.47933	16
1.48300	18
1.48667	21
1.49033	22
1.49400	22
1.49767	22
1.50133	23
1.50500	21
1.50867	18
1.51233	17
1.51600	19
1.51967	20
1.52333	22
1.52700	26
1.53067	27
1.53433	27
1.53800	25
1.54167	22
1.54533	18
1.54900	16
1.55267	16
1.55633	16
1.56000	15
1.56367	14
1.56733	16
1.57100	16
1.57467	18
1.57833	19
1.58200	18
1.58567	17
1.58933	18
1.59300	19
1.59667	20
1.60033	20
1.60400	20
1.60767	22
1.61133	23
1.61500	22
1.61867	22
1.62233	24
1.62600	24
1.62967	25
1.63333	25
1.63700	23
1.64067	23
1.64433	23
1.64800	23
1.65167	24
1.65533	27
1.65900	29
1.66267	27
1.66633	25
1.67000	24
1.67367	25
1.67733	27
1.68100	31
1.68467	33
1.68833	33
1.69200	32
1.69567	33
1.69933	35
1.70300	33
1.70667	32
1.71033	32
1.71400	36
1.71767	41
1.72133	42
1.72500	42
1.72867	41
1.73233	39
1.73600	39
1.73967	38
1.74333	36
1.74700	34
1.75067	35
1.75433	35
1.75800	35
1.76167	34
1.76533	35
1.76900	35
1.77267	34
1.77633	32
1.78000	32
1.78367	34
1.78733	37
1.79100	39
1.79467	41
1.79833	42
1.80200	40
1.80567	39
1.80933	40
1.81300	41
1.81667	43
1.82033	44
1.82400	44
1.82767	43
1.83133	41
1.83500	41
1.83867	41
1.84233	43
1.84600	43
1.84967	44
1.85333	47
1.85700	48
1.86067	48
1.86433	49
1.86800	50
1.87167	50
1.87533	52
1.87900	52
1.88267	54
1.88633	52
1.89000	51
1.89367	50
1.89733	50
1.90100	50
1.90467	54
1.90833	57
1.91200	58
1.91567	56
1.91933	54
1.92300	53
1.92667	52
1.93033	54
1.93400	55
1.93767	58
1.94133	60
1.94500	59
1.94867	57
1.95233	59
1.95600	60
1.95967	59
1.96333	58
1.96700	57
1.97067	58
1.97433	60
1.97800	62
1.98167	64
1.98533	65
1.98900	64
1.99267	64
1.99633	66
2.00000	68
2.00367	68
2.00733	67
2.01100	67
2.01467	67
2.01833	69
2.02200	71
2.02567	75
2.02933	76
2.03300	77
2.03667	77
2.04033	78
2.04400	79
2.04767	78
2.05133	79
2.05500	80
2.05867	82
2.06233	84
2.06600	86
2.06967	87
2.07333	88
2.07700	89
2.08067	88
2.08433	88
2.08800	88
2.09167	86
2.09533	84
2.09900	83
2.10267	85
2.10633	88
2.11000	91
2.11367	93
2.11733	93
2.12100	95
2.12467	95
2.12833	92
2.13200	91
2.13567	94
2.13933	96
2.14300	97
2.14667	97
2.15033	98
2.15400	99
2.15767	98
2.16133	99
2.16500	101
2.16867	102
2.17233	103
2.17600	104
2.17967	104
2.18333	104
2.18700	104
2.19067	104
2.19433	104
2.19800	106
2.20167	107
2.20533	111
2.20900	113
2.21267	111
2.21633	111
2.22000	112
2.22367	113
2.22733	114
2.23100	116
2.23467	117
2.23833	118
2.24200	119
2.24567	119
2.24933	119
2.25300	121
2.25667	122
2.26033	122
2.26400	123
2.26767	124
2.27133	122
2.27500	119
2.27867	118
2.28233	121
2.28600	124
2.28967	124
2.29333	126
2.29700	127
2.30067	128
2.30433	130
2.30800	132
2.31167	136
2.31533	138
2.31900	139
2.32267	138
2.32633	137
2.33000	135
2.33367	136
2.33733	138
2.34100	143
2.34467	146
2.34833	147
2.35200	145
2.35567	143
2.35933	146
2.36300	148
2.36667	148
2.37033	148
2.37400	149
2.37767	151
2.38133	154
2.38500	155
2.38867	154
2.39233	156
2.39600	157
2.39967	157
2.40333	158
2.40700	160
2.41067	162
2.41433	163
2.41800	163
2.42167	163
2.42533	163
2.42900	163
2.43267	165
2.43633	166
2.44000	168
2.44367	194
2.44733	258
2.45100	328
2.45467	378
2.45833	393
2.46200	386
2.46567	375
2.46933	365
2.47300	352
2.47667	334
2.48033	311
2.48400	286
2.48767	263
2.49133	244
2.49500	231
2.49867	224
2.50233	223
2.50600	225
2.50967	232
2.51333	235
2.51700	234
2.52067	229
2.52433	219
2.52800	205
2.53167	189
2.53533	173
2.53900	157
2.54267	145
2.54633	137
2.55000	133
2.55367	129
2.55733	127
2.56100	127
2.56467	126
2.56833	124
2.57200	123
2.57567	124
2.57933	125
2.58300	127
2.58667	132
2.59033	138
2.59400	147
2.59767	155
2.60133	161
2.60500	167
2.60867	169
2.61233	167
2.61600	160
2.61967	145
2.62333	122
2.62700	91
2.63067	54
2.63433	14
2.63800	-27
2.64167	-65
2.64533	-100
2.64900	-129
2.65267	-152
2.65633	-169
2.66000	-178
2.66367	-181
2.66733	-180
2.67100	-175
2.67467	-170
2.67833	-162
2.68200	-154
2.68567	-148
2.68933	-140
2.69300	-133
2.69667	-127
2.70033	-117
2.70400	-106
2.70767	-96
2.71133	-88
2.71500	-79
2.71867	-73
2.72233	-69
2.72600	-65
2.72967	-58
2.73333	-52
2.73700	-45
2.74067	-40
2.74433	-33
2.74800	-24
2.75167	-18
2.75533	-12
2.75900	-7
2.76267	-3
2.76633	1
2.77000	6
2.77367	10
2.77733	13
2.78100	17
2.78467	21
2.78833	8
2.79200	-10
2.79567	-11
2.79933	11
2.80300	46
2.80667	72
2.81033	81
2.81400	80
2.81767	80
2.82133	97
2.82500	132
2.82867	184
2.83233	247
2.83600	317
2.83967	394
2.84333	489
2.84700	623
2.85067	820
2.85433	1104
2.85800	1493
2.86167	1987
2.86533	2572
2.86900	3213
2.87267	3861
2.87633	4462
2.88000	4964
2.88367	5332
2.88733	5550
2.89100	5615
2.89467	5538
2.89833	5346
2.90200	5070
2.90567	4741
2.90933	4387
2.91300	4022
2.91667	3664
2.92033	3323
2.92400	3006
2.92767	2716
2.93133	2453
2.93500	2217
2.93867	2012
2.94233	1833
2.94600	1674
2.94967	1537
2.95333	1417
2.95700	1312
2.96067	1221
2.96433	1144
2.96800	1077
2.97167	1014
2.97533	961
2.97900	917
2.98267	880
2.98633	846
2.99000	817
2.99367	792
2.99733	770
3.00100	753
3.00467	741
3.00833	731
3.01200	719
3.01567	708
3.01933	702
3.02300	695
3.02667	691
3.03033	687
3.03400	684
3.03767	682
3.04133	681
3.04500	683
3.04867	684
3.05233	686
3.05600	685
3.05967	685
3.06333	685
3.06700	684
3.07067	683
3.07433	684
3.07800	684
3.08167	685
3.08533	687
3.08900	687
3.09267	687
3.09633	688
3.10000	691
3.10367	694
3.10733	698
3.11100	698
3.11467	697
3.11833	696
3.12200	698
3.12567	699
3.12933	699
3.13300	702
3.13667	705
3.14033	706
3.14400	707
3.14767	704
3.15133	701
3.15500	700
3.15867	699
3.16233	699
3.16600	696
3.16967	692
3.17333	692
3.17700	691
3.18067	689
3.18433	685
3.18800	682
3.19167	681
3.19533	681
3.19900	679
3.20267	677
3.20633	672
3.21000	667
3.21367	666
3.21733	666
3.22100	665
3.22467	659
3.22833	651
3.23200	645
3.23567	641
3.23933	640
3.24300	637
3.24667	635
3.25033	633
3.25400	633
3.25767	633
3.26133	631
3.26500	628
3.26867	621
3.27233	616
3.27600	612
3.27967	608
3.28333	604
3.28700	603
3.29067	600
3.29433	596
3.29800	594
3.30167	590
3.30533	585
3.30900	582
3.31267	576
3.31633	571
3.32000	566
3.32367	561
3.32733	557
3.33100	556
3.33467	552
3.33833	546
3.34200	543
3.34567	540
3.34933	538
3.35300	535
3.35667	531
3.36033	527
3.36400	525
3.36767	523
3.37133	520
3.37500	516
3.37867	511
3.38233	507
3.38600	502
3.38967	497
3.39333	492
3.39700	488
3.40067	485
3.40433	482
3.40800	480
3.41167	479
3.41533	477
3.41900	474
3.42267	471
3.42633	469
3.43000	464
3.43367	460
3.43733	457
3.44100	452
3.44467	449
3.44833	445
3.45200	442
3.45567	441
3.45933	441
3.46300	438
3.46667	435
3.47033	432
3.47400	430
3.47767	429
3.48133	430
3.48500	427
3.48867	425
3.49233	422
3.49600	418
3.49967	413
3.50333	410
3.50700	409
3.51067	407
3.51433	404
3.51800	401
3.52167	399
3.52533	398
3.52900	396
3.53267	395
3.53633	393
3.54000	389
3.54367	386
3.54733	384
3.55100	383
3.55467	384
3.55833	384
3.56200	381
3.56567	377
3.56933	374
3.57300	372
3.57667	371
3.58033	368
3.58400	368
3.58767	367
3.59133	367
3.59500	368
3.59867	368
3.60233	364
3.60600	357
3.60967	352
3.61333	348
3.61700	343
3.62067	341
3.62433	341
3.62800	342
3.63167	342
3.63533	341
3.63900	339
3.64267	336
3.64633	334
3.65000	335
3.65367	335
3.65733	334
3.66100	333
3.66467	332
3.66833	332
3.67200	332
3.67567	329
3.67933	327
3.68300	328
3.68667	328
3.69033	326
3.69400	322
3.69767	320
3.70133	320
3.70500	320
3.70867	320
3.71233	321
3.71600	320
3.71967	320
3.72333	319
3.72700	319
3.73067	316
3.73433	314
3.73800	313
3.74167	313
3.74533	312
3.74900	312
3.75267	314
3.75633	315
3.76000	315
3.76367	313
3.76733	312
3.77100	310
3.77467	306
3.77833	304
3.78200	304
3.78567	306
3.78933	308
3.79300	306
3.79667	305
3.80033	304
3.80400	302
3.80767	300
3.81133	301
3.81500	301
3.81867	301
3.82233	298
3.82600	295
3.82967	293
3.83333	290
3.83700	288
3.84067	287
3.84433	288
3.84800	289
3.85167	291
3.85533	292
3.85900	293
3.86267	291
3.86633	289
3.87000	288
3.87367	287
3.87733	286
3.88100	289
3.88467	292
3.88833	291
3.89200	289
3.89567	285
3.89933	282
3.90300	280
3.90667	277
3.91033	276
3.91400	276
3.91767	275
3.92133	274
3.92500	273
3.92867	272
3.93233	271
3.93600	268
3.93967	267
3.94333	266
3.94700	264
3.95067	262
3.95433	262
3.95800	264
3.96167	267
3.96533	266
3.96900	262
3.97267	260
3.97633	262
3.98000	260
3.98367	257
3.98733	256
3.99100	256
3.99467	254
3.99833	253

[Status Trace (Column Oven Temperature)]
Interval(msec)	1000
# of Points	240
Start Time(min)	0.001
End Time(min)	3.984
Intensity Units	
Intensity Multiplier	1
R.Time (min)	Intensity
0.00088	35.03
0.01755	35.03
0.03422	35.02
0.05088	35.02
0.06755	35.03
0.08422	35.02
0.10088	35.02
0.11755	35.02
0.13422	35.01
0.15088	35.01
0.16755	35.01
0.18422	35.02
0.20088	35.02
0.21755	35.03
0.23422	35.02
0.25088	35.02
0.26755	35.02
0.28422	35.02
0.30088	35.03
0.31755	35.03
0.33422	35.03
0.35088	35.04
0.36755	35.04
0.38422	35.04
0.40088	35.03
0.41755	35.02
0.43422	35.01
0.45088	35.02
0.46755	35.01
0.48422	35.01
0.50088	35.00
0.51755	35.00
0.53422	34.99
0.55088	34.99
0.56755	34.99
0.58422	34.99
0.60088	34.99
0.61755	34.99
0.63422	34.98
0.65088	34.99
0.66755	34.99
0.68422	35.00
0.70088	35.00
0.71755	34.99
0.73422	34.99
0.75088	34.99
0.76755	34.99
0.78422	34.99
0.80088	34.99
0.81755	34.99
0.83422	35.00
0.85088	35.00
0.86755	35.00
0.88422	34.99
0.90088	34.99
0.91755	34.99
0.93422	34.99
0.95088	35.00
0.96755	34.99
0.98422	35.00
1.00088	35.00
1.01755	34.99
1.03422	34.99
1.05088	34.98
1.06755	34.98
1.08422	34.98
1.10088	34.98
1.11755	34.98
1.13422	34.98
1.15088	34.99
1.16755	34.99
1.18422	35.00
1.20088	35.01
1.21755	35.02
1.23422	35.02
1.25088	35.02
1.26755	35.01
1.28422	35.00
1.30088	35.00
1.31755	35.00
1.33422	35.00
1.35088	35.00
1.36755	34.99
1.38422	34.99
1.40088	34.99
1.41755	35.00
1.43422	35.00
1.45088	35.00
1.46755	35.00
1.48422	34.99
1.50088	34.99
1.51755	34.99
1.53422	34.99
1.55088	35.00
1.56755	34.99
1.58422	34.99
1.60088	35.03
1.61755	35.12
1.63422	35.28
1.65088	35.51
1.66755	35.80
1.68422	36.16
1.70088	36.51
1.71755	36.86
1.73422	37.20
1.75088	37.54
1.76755	37.87
1.78422	38.21
1.80088	38.54
1.81755	38.87
1.83422	39.21
1.85088	39.51
1.86755	39.84
1.88422	40.16
1.90088	40.49
1.91755	40.82
1.93422	41.17
1.95088	41.49
1.96755	41.82
1.98422	42.13
2.00088	42.47
2.01755	42.78
2.03422	43.10
2.05088	43.43
2.06755	43.75
2.08422	44.06
2.10088	44.40
2.11755	44.71
2.13422	45.04
2.15088	45.37
2.16755	45.69
2.18422	46.04
2.20088	46.35
2.21755	46.69
2.23422	47.03
2.25088	47.36
2.26755	47.69
2.28422	48.01
2.30088	48.36
2.31755	48.71
2.33422	49.02
2.35088	49.31
2.36755	49.60
2.38422	49.73
2.40088	49.75
2.41755	49.74
2.43422	49.77
2.45088	49.76
2.46755	49.77
2.48422	49.78
2.50088	49.77
2.51755	49.80
2.53422	49.80
2.55088	49.81
2.56755	49.81
2.58422	49.82
2.60088	49.81
2.61755	49.83
2.63422	49.83
2.65088	49.83
2.66755	49.84
2.68422	49.85
2.70088	49.85
2.71755	49.85
2.73422	49.86
2.75088	49.85
2.76755	49.85
2.78422	49.89
2.80088	49.91
2.81755	49.92
2.83422	49.92
2.85088	49.91
2.86755	49.90
2.88422	49.91
2.90088	49.91
2.91755	49.92
2.93422	49.93
2.95088	49.94
2.96755	49.95
2.98422	49.96
3.00088	49.98
3.01755	49.99
3.03422	50.00
3.05088	50.00
3.06755	50.00
3.08422	50.00
3.10088	50.01
3.11755	50.03
3.13422	50.04
3.15088	50.05
3.16755	50.06
3.18422	50.07
3.20088	50.08
3.21755	50.08
3.23422	50.08
3.25088	50.09
3.26755	50.10
3.28422	50.10
3.30088	50.10
3.31755	50.10
3.33422	50.09
3.35088	50.09
3.36755	50.09
3.38422	50.08
3.40088	50.08
3.41755	50.08
3.43422	50.08
3.45088	50.07
3.46755	50.08
3.48422	50.08
3.50088	50.09
3.51755	50.08
3.53422	50.08
3.55088	50.09
3.56755	50.10
3.58422	50.09
3.60088	50.09
3.61755	50.08
3.63422	50.07
3.65088	50.07
3.66755	50.07
3.68422	50.07
3.70088	50.07
3.71755	50.06
3.73422	50.06
3.75088	50.06
3.76755	50.06
3.78422	50.07
3.80088	50.08
3.81755	50.08
3.83422	50.07
3.85088	50.07
3.86755	50.08
3.88422	50.07
3.90088	50.07
3.91755	50.07
3.93422	50.07
3.95088	50.07
3.96755	50.08
3.98422	50.08

[Status Trace (Injection Unit Temperature)]
Interval(msec)	1000
# of Points	240
Start Time(min)	0.001
End Time(min)	3.984
Intensity Units	
Intensity Multiplier	1
R.Time (min)	Intensity
0.00088	99.98
0.01755	99.98
0.03422	99.98
0.05088	99.98
0.06755	99.98
0.08422	99.98
0.10088	99.98
0.11755	99.99
0.13422	99.98
0.15088	99.98
0.16755	99.98
0.18422	99.98
0.20088	99.98
0.21755	99.98
0.23422	99.98
0.25088	99.98
0.26755	99.98
0.28422	99.98
0.30088	99.99
0.31755	99.98
0.33422	99.98
0.35088	99.98
0.36755	99.98
0.38422	99.98
0.40088	99.98
0.41755	99.98
0.43422	99.98
0.45088	99.98
0.46755	99.98
0.48422	99.98
0.50088	99.98
0.51755	99.98
0.53422	99.98
0.55088	99.98
0.56755	99.98
0.58422	99.98
0.60088	99.99
0.61755	99.98
0.63422	99.98
0.65088	99.98
0.66755	99.98
0.68422	99.98
0.70088	99.98
0.71755	99.98
0.73422	99.97
0.75088	99.98
0.76755	99.98
0.78422	99.98
0.80088	99.98
0.81755	99.98
0.83422	99.98
0.85088	99.98
0.86755	99.98
0.88422	99.98
0.90088	99.98
0.91755	99.98
0.93422	99.98
0.95088	99.98
0.96755	99.98
0.98422	99.98
1.00088	99.98
1.01755	99.98
1.03422	99.98
1.05088	99.98
1.06755	99.98
1.08422	99.98
1.10088	99.98
1.11755	99.98
1.13422	99.98
1.15088	99.98
1.16755	99.98
1.18422	99.98
1.20088	99.98
1.21755	99.98
1.23422	99.99
1.25088	99.99
1.26755	99.98
1.28422	99.98
1.30088	99.98
1.31755	99.98
1.33422	99.98
1.35088	99.99
1.36755	99.99
1.38422	99.99
1.40088	99.99
1.41755	99.99
1.43422	99.99
1.45088	99.99
1.46755	99.99
1.48422	99.99
1.50088	99.99
1.51755	99.99
1.53422	99.99
1.55088	99.99
1.56755	99.99
1.58422	99.99
1.60088	99.99
1.61755	99.99
1.63422	99.99
1.65088	99.99
1.66755	99.99
1.68422	99.99
1.70088	99.99
1.71755	99.99
1.73422	99.99
1.75088	99.99
1.76755	99.99
1.78422	99.99
1.80088	99.99
1.81755	99.99
1.83422	99.99
1.85088	99.99
1.86755	99.99
1.88422	99.99
1.90088	99.99
1.91755	99.99
1.93422	99.98
1.95088	99.99
1.96755	99.98
1.98422	99.98
2.00088	99.98
2.01755	99.98
2.03422	99.98
2.05088	99.98
2.06755	99.98
2.08422	99.98
2.10088	99.98
2.11755	99.98
2.13422	99.98
2.15088	99.97
2.16755	99.97
2.18422	99.97
2.20088	99.97
2.21755	99.97
2.23422	99.97
2.25088	99.97
2.26755	99.97
2.28422	99.97
2.30088	99.97
2.31755	99.97
2.33422	99.97
2.35088	99.97
2.36755	99.97
2.38422	99.97
2.40088	99.97
2.41755	99.97
2.43422	99.96
2.45088	99.97
2.46755	99.97
2.48422	99.97
2.50088	99.97
2.51755	99.97
2.53422	99.97
2.55088	99.97
2.56755	99.97
2.58422	99.97
2.60088	99.97
2.61755	99.98
2.63422	99.98
2.65088	99.98
2.66755	99.98
2.68422	99.98
2.70088	99.98
2.71755	99.98
2.73422	99.99
2.75088	99.99
2.76755	99.99
2.78422	99.99
2.80088	99.99
2.81755	99.99
2.83422	99.99
2.85088	100.00
2.86755	100.00
2.88422	100.00
2.90088	100.01
2.91755	100.00
2.93422	100.01
2.95088	100.01
2.96755	100.01
2.98422	100.01
3.00088	100.02
3.01755	100.02
3.03422	100.02
3.05088	100.02
3.06755	100.02
3.08422	100.02
3.10088	100.02
3.11755	100.03
3.13422	100.02
3.15088	100.03
3.16755	100.03
3.18422	100.03
3.20088	100.03
3.21755	100.03
3.23422	100.04
3.25088	100.03
3.26755	100.04
3.28422	100.04
3.30088	100.04
3.31755	100.04
3.33422	100.04
3.35088	100.04
3.36755	100.04
3.38422	100.04
3.40088	100.04
3.41755	100.05
3.43422	100.05
3.45088	100.05
3.46755	100.05
3.48422	100.05
3.50088	100.05
3.51755	100.05
3.53422	100.05
3.55088	100.05
3.56755	100.05
3.58422	100.05
3.60088	100.05
3.61755	100.06
3.63422	100.06
3.65088	100.06
3.66755	100.05
3.68422	100.06
3.70088	100.05
3.71755	100.05
3.73422	100.05
3.75088	100.05
3.76755	100.05
3.78422	100.05
3.80088	100.05
3.81755	100.05
3.83422	100.05
3.85088	100.05
3.86755	100.05
3.88422	100.05
3.90088	100.05
3.91755	100.05
3.93422	100.05
3.95088	100.05
3.96755	100.05
3.98422	100.05

[Status Trace (Carrier Gas Pressure)]
Interval(msec)	1000
# of Points	240
Start Time(min)	0.001
End Time(min)	3.984
Intensity Units	
Intensity Multiplier	1
R.Time (min)	Intensity
0.00088	58.00
0.01755	56.64
0.03422	56.08
0.05088	58.27
0.06755	59.91
0.08422	58.43
0.10088	57.97
0.11755	58.00
0.13422	58.01
0.15088	58.01
0.16755	58.00
0.18422	58.00
0.20088	58.00
0.21755	58.00
0.23422	58.00
0.25088	58.00
0.26755	58.00
0.28422	58.00
0.30088	58.00
0.31755	58.00
0.33422	58.00
0.35088	58.00
0.36755	58.00
0.38422	58.00
0.40088	58.00
0.41755	58.00
0.43422	58.00
0.45088	58.00
0.46755	58.00
0.48422	58.00
0.50088	58.00
0.51755	58.00
0.53422	58.00
0.55088	58.00
0.56755	58.00
0.58422	58.00
0.60088	58.00
0.61755	58.00
0.63422	58.00
0.65088	58.00
0.66755	58.00
0.68422	58.00
0.70088	58.00
0.71755	58.00
0.73422	58.00
0.75088	58.00
0.76755	58.00
0.78422	58.00
0.80088	58.00
0.81755	58.00
0.83422	58.00
0.85088	58.00
0.86755	58.00
0.88422	58.00
0.90088	58.00
0.91755	58.00
0.93422	58.00
0.95088	58.00
0.96755	58.00
0.98422	58.00
1.00088	58.00
1.01755	58.00
1.03422	58.00
1.05088	58.00
1.06755	58.00
1.08422	58.00
1.10088	58.00
1.11755	58.00
1.13422	58.00
1.15088	58.00
1.16755	58.00
1.18422	58.00
1.20088	58.00
1.21755	58.00
1.23422	58.00
1.25088	58.00
1.26755	58.00
1.28422	58.00
1.30088	58.00
1.31755	58.00
1.33422	58.00
1.35088	58.00
1.36755	58.00
1.38422	58.00
1.40088	58.00
1.41755	58.00
1.43422	58.00
1.45088	58.00
1.46755	58.00
1.48422	58.00
1.50088	58.00
1.51755	58.00
1.53422	58.00
1.55088	58.00
1.56755	58.00
1.58422	58.00
1.60088	58.00
1.61755	58.00
1.63422	58.01
1.65088	58.00
1.66755	58.01
1.68422	58.01
1.70088	58.00
1.71755	58.00
1.73422	58.00
1.75088	58.00
1.76755	58.00
1.78422	58.00
1.80088	58.00
1.81755	58.00
1.83422	58.00
1.85088	58.00
1.86755	58.00
1.88422	58.00
1.90088	58.00
1.91755	58.00
1.93422	58.00
1.95088	58.00
1.96755	58.00
1.98422	58.00
2.00088	58.00
2.01755	58.00
2.03422	58.00
2.05088	58.00
2.06755	58.00
2.08422	58.00
2.10088	58.00
2.11755	58.00
2.13422	58.00
2.15088	58.00
2.16755	58.00
2.18422	58.00
2.20088	58.00
2.21755	58.00
2.23422	58.00
2.25088	58.00
2.26755	58.00
2.28422	58.00
2.30088	58.00
2.31755	58.00
2.33422	58.00
2.35088	58.00
2.36755	58.00
2.38422	57.99
2.40088	57.99
2.41755	58.00
2.43422	58.00
2.45088	58.00
2.46755	58.00
2.48422	58.00
2.50088	58.00
2.51755	57.99
2.53422	57.99
2.55088	58.00
2.56755	58.00
2.58422	58.00
2.60088	58.00
2.61755	58.00
2.63422	58.00
2.65088	58.00
2.66755	58.00
2.68422	58.00
2.70088	58.00
2.71755	58.00
2.73422	58.00
2.75088	58.00
2.76755	58.00
2.78422	58.00
2.80088	58.00
2.81755	58.00
2.83422	58.00
2.85088	58.00
2.86755	58.00
2.88422	58.00
2.90088	58.00
2.91755	58.00
2.93422	58.00
2.95088	58.00
2.96755	58.00
2.98422	58.00
3.00088	58.00
3.01755	58.00
3.03422	58.00
3.05088	58.00
3.06755	58.00
3.08422	58.00
3.10088	58.00
3.11755	58.00
3.13422	58.00
3.15088	58.00
3.16755	58.00
3.18422	58.00
3.20088	58.00
3.21755	58.00
3.23422	58.00
3.25088	58.00
3.26755	58.00
3.28422	58.00
3.30088	58.00
3.31755	58.00
3.33422	58.00
3.35088	58.00
3.36755	58.00
3.38422	58.00
3.40088	58.00
3.41755	58.00
3.43422	58.00
3.45088	58.00
3.46755	58.00
3.48422	58.00
3.50088	58.00
3.51755	58.00
3.53422	58.00
3.55088	58.00
3.56755	58.00
3.58422	58.00
3.60088	58.00
3.61755	58.00
3.63422	58.00
3.65088	58.00
3.66755	58.00
3.68422	58.00
3.70088	58.00
3.71755	58.00
3.73422	58.00
3.75088	58.00
3.76755	58.00
3.78422	58.00
3.80088	58.00
3.81755	58.00
3.83422	58.00
3.85088	58.00
3.86755	58.00
3.88422	58.00
3.90088	58.00
3.91755	58.00
3.93422	58.00
3.95088	58.00
3.96755	58.00
3.98422	58.00

[Status Trace (Carrier Gas Flow)]
Interval(msec)	1000
# of Points	240
Start Time(min)	0.001
End Time(min)	3.984
Intensity Units	
Intensity Multiplier	1
R.Time (min)	Intensity
0.00088	34.52
0.01755	33.88
0.03422	34.54
0.05088	34.55
0.06755	34.50
0.08422	34.50
0.10088	34.52
0.11755	34.52
0.13422	34.52
0.15088	34.52
0.16755	34.52
0.18422	34.52
0.20088	34.52
0.21755	34.52
0.23422	34.52
0.25088	34.52
0.26755	34.52
0.28422	34.52
0.30088	34.52
0.31755	34.52
0.33422	34.52
0.35088	34.52
0.36755	34.52
0.38422	34.52
0.40088	34.52
0.41755	34.52
0.43422	34.52
0.45088	34.52
0.46755	34.52
0.48422	34.52
0.50088	34.52
0.51755	34.52
0.53422	34.52
0.55088	34.52
0.56755	34.52
0.58422	34.52
0.60088	34.52
0.61755	34.52
0.63422	34.52
0.65088	34.52
0.66755	34.52
0.68422	34.52
0.70088	34.52
0.71755	34.52
0.73422	34.52
0.75088	34.52
0.76755	34.52
0.78422	34.52
0.80088	34.52
0.81755	34.52
0.83422	34.52
0.85088	34.52
0.86755	34.52
0.88422	34.52
0.90088	34.52
0.91755	34.52
0.93422	34.52
0.95088	34.52
0.96755	34.52
0.98422	34.52
1.00088	34.52
1.01755	34.52
1.03422	34.52
1.05088	34.52
1.06755	34.52
1.08422	34.52
1.10088	34.52
1.11755	34.52
1.13422	34.52
1.15088	34.52
1.16755	34.52
1.18422	34.52
1.20088	34.52
1.21755	34.52
1.23422	34.52
1.25088	34.52
1.26755	34.52
1.28422	34.52
1.30088	34.52
1.31755	34.52
1.33422	34.52
1.35088	34.52
1.36755	34.52
1.38422	34.52
1.40088	34.52
1.41755	34.52
1.43422	34.52
1.45088	34.52
1.46755	34.52
1.48422	34.52
1.50088	34.52
1.51755	34.52
1.53422	34.52
1.55088	34.52
1.56755	34.52
1.58422	34.52
1.60088	34.52
1.61755	34.52
1.63422	34.52
1.65088	34.52
1.66755	34.52
1.68422	34.52
1.70088	34.51
1.71755	34.52
1.73422	34.52
1.75088	34.52
1.76755	34.52
1.78422	34.52
1.80088	34.52
1.81755	34.52
1.83422	34.51
1.85088	34.52
1.86755	34.52
1.88422	34.52
1.90088	34.52
1.91755	34.52
1.93422	34.52
1.95088	34.52
1.96755	34.52
1.98422	34.52
2.00088	34.52
2.01755	34.52
2.03422	34.52
2.05088	34.52
2.06755	34.52
2.08422	34.52
2.10088	34.52
2.11755	34.52
2.13422	34.52
2.15088	34.52
2.16755	34.52
2.18422	34.52
2.20088	34.52
2.21755	34.52
2.23422	34.52
2.25088	34.52
2.26755	34.52
2.28422	34.52
2.30088	34.52
2.31755	34.52
2.33422	34.52
2.35088	34.52
2.36755	34.52
2.38422	34.52
2.40088	34.53
2.41755	34.52
2.43422	34.52
2.45088	34.52
2.46755	34.52
2.48422	34.52
2.50088	34.53
2.51755	34.52
2.53422	34.52
2.55088	34.52
2.56755	34.52
2.58422	34.52
2.60088	34.52
2.61755	34.52
2.63422	34.52
2.65088	34.52
2.66755	34.52
2.68422	34.52
2.70088	34.52
2.71755	34.52
2.73422	34.52
2.75088	34.52
2.76755	34.52
2.78422	34.52
2.80088	34.52
2.81755	34.52
2.83422	34.52
2.85088	34.52
2.86755	34.52
2.88422	34.52
2.90088	34.52
2.91755	34.52
2.93422	34.52
2.95088	34.52
2.96755	34.52
2.98422	34.52
3.00088	34.52
3.01755	34.52
3.03422	34.52
3.05088	34.52
3.06755	34.52
3.08422	34.52
3.10088	34.52
3.11755	34.52
3.13422	34.52
3.15088	34.52
3.16755	34.52
3.18422	34.52
3.20088	34.52
3.21755	34.52
3.23422	34.52
3.25088	34.52
3.26755	34.52
3.28422	34.52
3.30088	34.51
3.31755	34.53
3.33422	34.52
3.35088	34.52
3.36755	34.52
3.38422	34.52
3.40088	34.52
3.41755	34.51
3.43422	34.52
3.45088	34.52
3.46755	34.52
3.48422	34.52
3.50088	34.51
3.51755	34.51
3.53422	34.53
3.55088	34.52
3.56755	34.52
3.58422	34.52
3.60088	34.52
3.61755	34.52
3.63422	34.52
3.65088	34.52
3.66755	34.52
3.68422	34.52
3.70088	34.52
3.71755	34.52
3.73422	34.52
3.75088	34.52
3.76755	34.52
3.78422	34.52
3.80088	34.52
3.81755	34.52
3.83422	34.52
3.85088	34.52
3.86755	34.52
3.88422	34.52
3.90088	34.52
3.91755	34.52
3.93422	34.52
3.95088	34.52
3.96755	34.52
3.98422	34.52

[Status Trace (Column Flow)]
Interval(msec)	1000
# of Points	240
Start Time(min)	0.001
End Time(min)	3.984
Intensity Units	
Intensity Multiplier	1
R.Time (min)	Intensity
0.00088	5.48
0.01755	5.32
0.03422	5.25
0.05088	5.51
0.06755	5.70
0.08422	5.53
0.10088	5.47
0.11755	5.48
0.13422	5.48
0.15088	5.48
0.16755	5.48
0.18422	5.48
0.20088	5.48
0.21755	5.48
0.23422	5.48
0.25088	5.48
0.26755	5.48
0.28422	5.48
0.30088	5.48
0.31755	5.48
0.33422	5.48
0.35088	5.48
0.36755	5.48
0.38422	5.48
0.40088	5.48
0.41755	5.48
0.43422	5.48
0.45088	5.48
0.46755	5.48
0.48422	5.48
0.50088	5.48
0.51755	5.48
0.53422	5.48
0.55088	5.48
0.56755	5.48
0.58422	5.48
0.60088	5.48
0.61755	5.48
0.63422	5.48
0.65088	5.48
0.66755	5.48
0.68422	5.48
0.70088	5.48
0.71755	5.48
0.73422	5.48
0.75088	5.48
0.76755	5.48
0.78422	5.48
0.80088	5.48
0.81755	5.48
0.83422	5.48
0.85088	5.48
0.86755	5.48
0.88422	5.48
0.90088	5.48
0.91755	5.48
0.93422	5.48
0.95088	5.48
0.96755	5.48
0.98422	5.48
1.00088	5.48
1.01755	5.48
1.03422	5.48
1.05088	5.48
1.06755	5.48
1.08422	5.48
1.10088	5.48
1.11755	5.48
1.13422	5.48
1.15088	5.48
1.16755	5.48
1.18422	5.48
1.20088	5.48
1.21755	5.48
1.23422	5.48
1.25088	5.48
1.26755	5.48
1.28422	5.48
1.30088	5.48
1.31755	5.48
1.33422	5.48
1.35088	5.48
1.36755	5.48
1.38422	5.48
1.40088	5.48
1.41755	5.48
1.43422	5.48
1.45088	5.48
1.46755	5.48
1.48422	5.48
1.50088	5.48
1.51755	5.48
1.53422	5.48
1.55088	5.48
1.56755	5.48
1.58422	5.48
1.60088	5.48
1.61755	5.47
1.63422	5.47
1.65088	5.46
1.66755	5.45
1.68422	5.44
1.70088	5.43
1.71755	5.42
1.73422	5.41
1.75088	5.40
1.76755	5.39
1.78422	5.38
1.80088	5.37
1.81755	5.36
1.83422	5.35
1.85088	5.34
1.86755	5.33
1.88422	5.32
1.90088	5.31
1.91755	5.30
1.93422	5.29
1.95088	5.28
1.96755	5.27
1.98422	5.26
2.00088	5.25
2.01755	5.24
2.03422	5.23
2.05088	5.22
2.06755	5.21
2.08422	5.20
2.10088	5.20
2.11755	5.19
2.13422	5.18
2.15088	5.17
2.16755	5.16
2.18422	5.15
2.20088	5.14
2.21755	5.13
2.23422	5.12
2.25088	5.11
2.26755	5.10
2.28422	5.09
2.30088	5.08
2.31755	5.07
2.33422	5.06
2.35088	5.06
2.36755	5.05
2.38422	5.04
2.40088	5.04
2.41755	5.04
2.43422	5.04
2.45088	5.04
2.46755	5.04
2.48422	5.04
2.50088	5.04
2.51755	5.04
2.53422	5.04
2.55088	5.04
2.56755	5.04
2.58422	5.04
2.60088	5.04
2.61755	5.04
2.63422	5.04
2.65088	5.04
2.66755	5.04
2.68422	5.04
2.70088	5.04
2.71755	5.04
2.73422	5.04
2.75088	5.04
2.76755	5.04
2.78422	5.04
2.80088	5.04
2.81755	5.04
2.83422	5.04
2.85088	5.04
2.86755	5.04
2.88422	5.04
2.90088	5.04
2.91755	5.04
2.93422	5.04
2.95088	5.04
2.96755	5.04
2.98422	5.04
3.00088	5.04
3.01755	5.04
3.03422	5.04
3.05088	5.04
3.06755	5.04
3.08422	5.04
3.10088	5.04
3.11755	5.04
3.13422	5.04
3.15088	5.04
3.16755	5.04
3.18422	5.04
3.20088	5.04
3.21755	5.03
3.23422	5.03
3.25088	5.03
3.26755	5.03
3.28422	5.03
3.30088	5.03
3.31755	5.03
3.33422	5.03
3.35088	5.03
3.36755	5.03
3.38422	5.04
3.40088	5.04
3.41755	5.04
3.43422	5.04
3.45088	5.04
3.46755	5.04
3.48422	5.04
3.50088	5.03
3.51755	5.03
3.53422	5.03
3.55088	5.03
3.56755	5.03
3.58422	5.03
3.60088	5.03
3.61755	5.03
3.63422	5.04
3.65088	5.04
3.66755	5.04
3.68422	5.04
3.70088	5.04
3.71755	5.04
3.73422	5.04
3.75088	5.04
3.76755	5.04
3.78422	5.04
3.80088	5.03
3.81755	5.03
3.83422	5.03
3.85088	5.04
3.86755	5.04
3.88422	5.03
3.90088	5.04
3.91755	5.04
3.93422	5.04
3.95088	5.04
3.96755	5.03
3.98422	5.03

[Status Trace (Linear Velocity)]
Interval(msec)	1000
# of Points	240
Start Time(min)	0.001
End Time(min)	3.984
Intensity Units	
Intensity Multiplier	1
R.Time (min)	Intensity
0.00088	39.00
0.01755	38.11
0.03422	37.74
0.05088	39.18
0.06755	40.25
0.08422	39.28
0.10088	38.98
0.11755	39.00
0.13422	39.01
0.15088	39.01
0.16755	39.01
0.18422	39.01
0.20088	39.01
0.21755	39.00
0.23422	39.01
0.25088	39.01
0.26755	39.01
0.28422	39.00
0.30088	39.00
0.31755	39.00
0.33422	39.00
0.35088	39.00
0.36755	39.00
0.38422	39.00
0.40088	39.00
0.41755	39.00
0.43422	39.01
0.45088	39.00
0.46755	39.01
0.48422	39.01
0.50088	39.01
0.51755	39.01
0.53422	39.01
0.55088	39.01
0.56755	39.01
0.58422	39.01
0.60088	39.01
0.61755	39.01
0.63422	39.01
0.65088	39.01
0.66755	39.01
0.68422	39.01
0.70088	39.01
0.71755	39.01
0.73422	39.01
0.75088	39.01
0.76755	39.01
0.78422	39.01
0.80088	39.01
0.81755	39.01
0.83422	39.01
0.85088	39.01
0.86755	39.01
0.88422	39.01
0.90088	39.01
0.91755	39.01
0.93422	39.01
0.95088	39.01
0.96755	39.01
0.98422	39.01
1.00088	39.01
1.01755	39.01
1.03422	39.01
1.05088	39.01
1.06755	39.01
1.08422	39.01
1.10088	39.01
1.11755	39.01
1.13422	39.01
1.15088	39.01
1.16755	39.01
1.18422	39.01
1.20088	39.00
1.21755	39.00
1.23422	39.00
1.25088	39.00
1.26755	39.01
1.28422	39.01
1.30088	39.01
1.31755	39.01
1.33422	39.01
1.35088	39.01
1.36755	39.01
1.38422	39.01
1.40088	39.01
1.41755	39.01
1.43422	39.01
1.45088	39.01
1.46755	39.01
1.48422	39.01
1.50088	39.01
1.51755	39.01
1.53422	39.01
1.55088	39.01
1.56755	39.01
1.58422	39.01
1.60088	39.01
1.61755	39.00
1.63422	38.98
1.65088	38.96
1.66755	38.93
1.68422	38.90
1.70088	38.87
1.71755	38.83
1.73422	38.80
1.75088	38.77
1.76755	38.73
1.78422	38.70
1.80088	38.67
1.81755	38.64
1.83422	38.61
1.85088	38.58
1.86755	38.55
1.88422	38.52
1.90088	38.49
1.91755	38.45
1.93422	38.42
1.95088	38.39
1.96755	38.36
1.98422	38.33
2.00088	38.31
2.01755	38.27
2.03422	38.24
2.05088	38.22
2.06755	38.18
2.08422	38.16
2.10088	38.13
2.11755	38.10
2.13422	38.07
2.15088	38.04
2.16755	38.01
2.18422	37.98
2.20088	37.95
2.21755	37.92
2.23422	37.89
2.25088	37.86
2.26755	37.83
2.28422	37.80
2.30088	37.77
2.31755	37.74
2.33422	37.71
2.35088	37.68
2.36755	37.66
2.38422	37.64
2.40088	37.64
2.41755	37.64
2.43422	37.64
2.45088	37.64
2.46755	37.64
2.48422	37.64
2.50088	37.64
2.51755	37.63
2.53422	37.63
2.55088	37.64
2.56755	37.64
2.58422	37.64
2.60088	37.64
2.61755	37.64
2.63422	37.64
2.65088	37.64
2.66755	37.64
2.68422	37.64
2.70088	37.63
2.71755	37.64
2.73422	37.63
2.75088	37.64
2.76755	37.64
2.78422	37.63
2.80088	37.63
2.81755	37.63
2.83422	37.63
2.85088	37.63
2.86755	37.63
2.88422	37.63
2.90088	37.63
2.91755	37.63
2.93422	37.63
2.95088	37.63
2.96755	37.63
2.98422	37.63
3.00088	37.62
3.01755	37.62
3.03422	37.62
3.05088	37.62
3.06755	37.62
3.08422	37.62
3.10088	37.62
3.11755	37.62
3.13422	37.62
3.15088	37.62
3.16755	37.62
3.18422	37.62
3.20088	37.62
3.21755	37.61
3.23422	37.62
3.25088	37.61
3.26755	37.61
3.28422	37.61
3.30088	37.61
3.31755	37.61
3.33422	37.61
3.35088	37.61
3.36755	37.61
3.38422	37.62
3.40088	37.62
3.41755	37.62
3.43422	37.62
3.45088	37.62
3.46755	37.62
3.48422	37.62
3.50088	37.61
3.51755	37.61
3.53422	37.62
3.55088	37.61
3.56755	37.61
3.58422	37.61
3.60088	37.61
3.61755	37.61
3.63422	37.62
3.65088	37.62
3.66755	37.62
3.68422	37.62
3.70088	37.62
3.71755	37.62
3.73422	37.62
3.75088	37.62
3.76755	37.62
3.78422	37.62
3.80088	37.62
3.81755	37.61
3.83422	37.62
3.85088	37.62
3.86755	37.62
3.88422	37.62
3.90088	37.62
3.91755	37.62
3.93422	37.62
3.95088	37.62
3.96755	37.62
3.98422	37.62

