[Header]
Application Name	LabSolutions
Version	5.110
Data File Name	C:\Users\User\Desktop\Junior\UIC Prairie Sampling\6.15.23\06152023_040.gcd
Output Date	6/26/2023
Output Time	12:05:09 PM

[File Information]
Type	Data File
Generated	6/23/2023 3:38:19 PM
Generated by	System Administrator
Modified	6/23/2023 3:45:35 PM
Modified by	System Administrator

[Sample Information]
Operator Name	System Administrator
Acquired	6/23/2023 3:41:34 PM
Sample Type	0:Unknown
Level	0
Sample Name	040
Sample ID	040
ISTD Amount1	1
ISTD Amount2	1
ISTD Amount3	1
ISTD Amount4	1
ISTD Amount5	1
ISTD Amount6	1
ISTD Amount7	1
ISTD Amount8	1
ISTD Amount9	1
ISTD Amount10	1
ISTD Amount11	1
ISTD Amount12	1
ISTD Amount13	1
ISTD Amount14	1
ISTD Amount15	1
ISTD Amount16	1
ISTD Amount17	1
ISTD Amount18	1
ISTD Amount19	1
ISTD Amount20	1
ISTD Amount21	1
ISTD Amount22	1
ISTD Amount23	1
ISTD Amount24	1
ISTD Amount25	1
ISTD Amount26	1
ISTD Amount27	1
ISTD Amount28	1
ISTD Amount29	1
ISTD Amount30	1
ISTD Amount31	1
ISTD Amount32	1
Sample Amount	1
Dilution Factor	1
Vial#	39
Injection Volume	1
Injection Count	1
Bar Code	

[Original Files]
Data File	C:\Users\User\Desktop\Junior\UIC Prairie Sampling\6.15.23\06152023_040.gcd
Method File	C:\LabSolutions\Data\GHG_4min_2022\ghg3_togas_w_acet_4 min_new_int.gcm
Batch File	C:\LabSolutions\Data\AutoSamplerTesting\06152023.gcb
Report Format File	c:\LabSolutions\System\DEFAULT.lsr

[File Description]


[Configuration]
Instrument Name	C0B7VH3-Instrument1
Instrument #	1
Line #	1
# of Detectors	3
Detector ID	DET#1	DET#2	DET#3
Detector Name	FID	PTCD	ECD
# of Channels	1	1	1

[Peak Table(Ch1)]
# of Peaks	3
Peak#	R.Time	I.Time	F.Time	Area	Height	A/H	Conc.	Mark	ID#	Name	k'	Plate #	Plate Ht.	Tailing	Resolution	Sep.Factor	Area Ratio	Height Ratio	Conc. %	Norm Conc.
1	1.472	1.428	1.527	4133	2024	2.042	0.000	   	1	CO	0.000	9322	16.091	1.335	0.000	0.000	0	0	0.000	0.000
2	1.564	1.527	1.626	4179	2142	1.951	20.375	 V 	2	CH4	0.062	11791	12.721	1.126	1.546	0.000	0	0	5.511	5.511
3	1.989	1.945	2.616	1812693	866067	2.093	349.339	   	3	CO2	0.351	17447	8.598	1.296	7.219	5.640	0	0	94.489	94.489

[Peak Table(Ch2)]
# of Peaks	0

[Peak Table(Ch3)]
# of Peaks	5
Peak#	R.Time	I.Time	F.Time	Area	Height	A/H	Conc.	Mark	ID#	Name	k'	Plate #	Plate Ht.	Tailing	Resolution	Sep.Factor	Area Ratio	Height Ratio	Conc. %	Norm Conc.
1	2.458	2.440	2.510	981	373	2.629	0.000	   			0.000	14144	10.605	0.000	0.000	0.000	0	0	0.000	0.000
2	2.524	2.510	2.554	331	150	2.202	0.000	 V 			0.027	4442	33.768	0.000	0.564	0.000	0	0	0.000	0.000
3	2.612	2.554	2.675	4021	785	5.124	0.000	 V 			0.063	2467	60.805	0.000	0.486	2.333	0	0	0.000	0.000
4	2.744	2.675	2.825	5455	661	8.254	0.081	 V 	1	N2O	0.116	250	600.085	0.000	0.292	1.857	0	0	13.073	13.073
5	2.887	2.825	3.874	36268	5164	7.023	0.537	 V 	1	N2O	0.175	11676	12.847	0.000	0.357	1.500	0	0	86.927	86.927

[Compound Results(Ch1)]
# of IDs	6
ID#	Name	R.Time	Area	Height	Conc.	Curve	3rd	2nd	1st	Constant	Area Ratio	Height Ratio	Conc. %	Norm Conc.
1	CO	1.472	4133	2024	0.000	Linear	0.000000e+00	0.000000e+00	0.000000e+00	0.000000e+00	0	0	0.000	0.000
2	CH4	1.564	4179	2142	20.375	Linear	0.000000e+00	0.000000e+00	2.051179e+002	0.000000e+00	0	0	5.511	5.511
3	CO2	1.989	1812693	866067	349.339	Linear	0.000000e+00	0.000000e+00	5.188919e+003	0.000000e+00	0	0	94.489	94.489
4	Ethylene	0.000	0	0	0.000	Linear	0.000000e+00	0.000000e+00	0.000000e+00	0.000000e+00	0	0	0.000	0.000
5	Acetylene	0.000	0	0	0.000	Linear	0.000000e+00	0.000000e+00	0.000000e+00	0.000000e+00	0	0	0.000	0.000
6	Ethane	0.000	0	0	0.000	Linear	0.000000e+00	0.000000e+00	0.000000e+00	0.000000e+00	0	0	0.000	0.000

[Compound Results(Ch2)]
# of IDs	5
ID#	Name	R.Time	Area	Height	Conc.	Curve	3rd	2nd	1st	Constant	Area Ratio	Height Ratio	Conc. %	Norm Conc.
1	Hydrogen	0.000	0	0	0.000	Linear	0.000000e+00	0.000000e+00	0.000000e+00	0.000000e+00	0	0	0.000	0.000
2	Oxygen	0.000	0	0	0.000	Linear	0.000000e+00	0.000000e+00	0.000000e+00	0.000000e+00	0	0	0.000	0.000
3	Nitrogen	0.000	0	0	0.000	Linear	0.000000e+00	0.000000e+00	0.000000e+00	0.000000e+00	0	0	0.000	0.000
4	Methane	0.000	0	0	0.000	Linear	0.000000e+00	0.000000e+00	0.000000e+00	0.000000e+00	0	0	0.000	0.000
5	Carbon Monoxide	0.000	0	0	0.000	Linear	0.000000e+00	0.000000e+00	0.000000e+00	0.000000e+00	0	0	0.000	0.000

[Compound Results(Ch3)]
# of IDs	2
ID#	Name	R.Time	Area	Height	Conc.	Curve	3rd	2nd	1st	Constant	Area Ratio	Height Ratio	Conc. %	Norm Conc.
1	N2O	2.887	41723	5825	0.617	Linear	0.000000e+00	0.000000e+00	6.759880e+004	0.000000e+00	0	0	100.000	100.000
2	SF6	0.000	0	0	0.000	Linear	0.000000e+00	0.000000e+00	0.000000e+00	0.000000e+00	0	0	0.000	0.000

[Group Results(Ch1)]
# of Groups	0

[Group Results(Ch2)]
# of Groups	0

[Group Results(Ch3)]
# of Groups	0

[Chromatogram (Ch1)]
Interval(msec)	220
# of Points	1091
Start Time(min)	0.002
End Time(min)	3.998
R.Time (min)	Intensity
0.00167	-14
0.00533	-11
0.00900	-9
0.01267	-5
0.01633	-4
0.02000	-5
0.02367	-11
0.02733	-15
0.03100	-16
0.03467	-15
0.03833	-12
0.04200	-11
0.04567	-12
0.04933	-14
0.05300	-17
0.05667	-18
0.06033	-12
0.06400	-5
0.06767	3
0.07133	8
0.07500	10
0.07867	8
0.08233	2
0.08600	-4
0.08967	-6
0.09333	-3
0.09700	0
0.10067	1
0.10433	-0
0.10800	-6
0.11167	-15
0.11533	-22
0.11900	-26
0.12267	-30
0.12633	-30
0.13000	-27
0.13367	-24
0.13733	-23
0.14100	-22
0.14467	-18
0.14833	-14
0.15200	-11
0.15567	-11
0.15933	-10
0.16300	-7
0.16667	-4
0.17033	-4
0.17400	-3
0.17767	-1
0.18133	3
0.18500	5
0.18867	4
0.19233	-0
0.19600	-6
0.19967	-8
0.20333	-9
0.20700	-9
0.21067	-10
0.21433	-11
0.21800	-11
0.22167	-12
0.22533	-12
0.22900	-12
0.23267	-14
0.23633	-16
0.24000	-17
0.24367	-16
0.24733	-11
0.25100	-7
0.25467	-8
0.25833	-10
0.26200	-12
0.26567	-13
0.26933	-14
0.27300	-15
0.27667	-14
0.28033	-12
0.28400	-14
0.28767	-18
0.29133	-23
0.29500	-29
0.29867	-32
0.30233	-29
0.30600	-24
0.30967	-22
0.31333	-22
0.31700	-24
0.32067	-23
0.32433	-22
0.32800	-18
0.33167	-15
0.33533	-11
0.33900	-9
0.34267	-10
0.34633	-10
0.35000	-8
0.35367	-5
0.35733	-4
0.36100	-6
0.36467	-8
0.36833	-12
0.37200	-16
0.37567	-20
0.37933	-23
0.38300	-25
0.38667	-25
0.39033	-25
0.39400	-23
0.39767	-20
0.40133	-15
0.40500	-15
0.40867	-19
0.41233	-22
0.41600	-22
0.41967	-20
0.42333	-20
0.42700	-22
0.43067	-19
0.43433	-13
0.43800	-9
0.44167	-12
0.44533	-18
0.44900	-24
0.45267	-33
0.45633	-40
0.46000	-42
0.46367	-44
0.46733	-48
0.47100	-48
0.47467	-46
0.47833	-39
0.48200	-32
0.48567	-29
0.48933	-29
0.49300	-28
0.49667	-27
0.50033	-26
0.50400	-22
0.50767	-16
0.51133	-13
0.51500	-14
0.51867	-18
0.52233	-19
0.52600	-15
0.52967	-11
0.53333	-10
0.53700	-10
0.54067	-11
0.54433	-12
0.54800	-14
0.55167	-18
0.55533	-21
0.55900	-24
0.56267	-28
0.56633	-33
0.57000	-38
0.57367	-38
0.57733	-32
0.58100	-26
0.58467	-21
0.58833	-16
0.59200	-11
0.59567	-5
0.59933	2
0.60300	2
0.60667	-5
0.61033	-18
0.61400	-32
0.61767	-38
0.62133	-34
0.62500	-28
0.62867	-24
0.63233	-22
0.63600	-25
0.63967	-32
0.64333	-34
0.64700	-29
0.65067	-22
0.65433	-20
0.65800	-26
0.66167	-33
0.66533	-40
0.66900	-45
0.67267	-44
0.67633	-38
0.68000	-33
0.68367	-30
0.68733	-30
0.69100	-32
0.69467	-34
0.69833	-34
0.70200	-33
0.70567	-29
0.70933	-23
0.71300	-17
0.71667	-15
0.72033	-17
0.72400	-21
0.72767	-26
0.73133	-30
0.73500	-30
0.73867	-29
0.74233	-28
0.74600	-26
0.74967	-25
0.75333	-29
0.75700	-36
0.76067	-41
0.76433	-41
0.76800	-38
0.77167	-38
0.77533	-37
0.77900	-36
0.78267	-37
0.78633	-38
0.79000	-36
0.79367	-36
0.79733	-35
0.80100	-32
0.80467	-32
0.80833	-33
0.81200	-35
0.81567	-38
0.81933	-39
0.82300	-39
0.82667	-38
0.83033	-35
0.83400	-32
0.83767	-30
0.84133	-31
0.84500	-35
0.84867	-38
0.85233	-38
0.85600	-38
0.85967	-39
0.86333	-39
0.86700	-37
0.87067	-30
0.87433	-25
0.87800	-25
0.88167	-28
0.88533	-31
0.88900	-31
0.89267	-29
0.89633	-30
0.90000	-33
0.90367	-33
0.90733	-28
0.91100	-23
0.91467	-19
0.91833	-22
0.92200	-30
0.92567	-38
0.92933	-45
0.93300	-51
0.93667	-54
0.94033	-55
0.94400	-54
0.94767	-50
0.95133	-45
0.95500	-39
0.95867	-30
0.96233	-22
0.96600	-17
0.96967	-15
0.97333	-14
0.97700	-16
0.98067	-22
0.98433	-31
0.98800	-40
0.99167	-46
0.99533	-49
0.99900	-50
1.00267	-45
1.00633	-39
1.01000	-39
1.01367	-41
1.01733	-46
1.02100	-49
1.02467	-47
1.02833	-43
1.03200	-38
1.03567	-34
1.03933	-33
1.04300	-35
1.04667	-37
1.05033	-40
1.05400	-41
1.05767	-42
1.06133	-42
1.06500	-42
1.06867	-41
1.07233	-39
1.07600	-41
1.07967	-46
1.08333	-51
1.08700	-54
1.09067	-56
1.09433	-58
1.09800	-57
1.10167	-53
1.10533	-48
1.10900	-44
1.11267	-38
1.11633	-30
1.12000	-27
1.12367	-30
1.12733	-35
1.13100	-36
1.13467	-36
1.13833	-39
1.14200	-40
1.14567	-41
1.14933	-43
1.15300	-45
1.15667	-44
1.16033	-39
1.16400	-30
1.16767	-26
1.17133	-31
1.17500	-39
1.17867	-43
1.18233	-43
1.18600	-40
1.18967	-39
1.19333	-38
1.19700	-35
1.20067	-35
1.20433	-41
1.20800	-49
1.21167	-55
1.21533	-56
1.21900	-56
1.22267	-53
1.22633	-49
1.23000	-50
1.23367	-51
1.23733	-53
1.24100	-57
1.24467	-62
1.24833	-63
1.25200	-61
1.25567	-58
1.25933	-56
1.26300	-54
1.26667	-51
1.27033	-48
1.27400	-45
1.27767	-43
1.28133	-43
1.28500	-45
1.28867	-46
1.29233	-46
1.29600	-47
1.29967	-49
1.30333	-51
1.30700	-56
1.31067	-61
1.31433	-58
1.31800	-53
1.32167	-51
1.32533	-52
1.32900	-55
1.33267	-59
1.33633	-62
1.34000	-62
1.34367	-61
1.34733	-61
1.35100	-63
1.35467	-65
1.35833	-66
1.36200	-66
1.36567	-64
1.36933	-61
1.37300	-60
1.37667	-63
1.38033	-65
1.38400	-66
1.38767	-64
1.39133	-60
1.39500	-55
1.39867	-52
1.40233	-51
1.40600	-53
1.40967	-57
1.41333	-61
1.41700	-65
1.42067	-67
1.42433	-68
1.42800	-65
1.43167	-57
1.43533	-41
1.43900	-20
1.44267	-7
1.44633	42
1.45000	226
1.45367	560
1.45733	959
1.46100	1339
1.46467	1652
1.46833	1870
1.47200	1962
1.47567	1903
1.47933	1702
1.48300	1414
1.48667	1109
1.49033	830
1.49400	598
1.49767	418
1.50133	284
1.50500	189
1.50867	120
1.51233	71
1.51600	38
1.51967	16
1.52333	-3
1.52700	-17
1.53067	-17
1.53433	21
1.53800	146
1.54167	404
1.54533	785
1.54900	1210
1.55267	1595
1.55633	1890
1.56000	2064
1.56367	2088
1.56733	1945
1.57100	1661
1.57467	1306
1.57833	956
1.58200	662
1.58567	440
1.58933	282
1.59300	172
1.59667	95
1.60033	41
1.60400	5
1.60767	-16
1.61133	-28
1.61500	-34
1.61867	-38
1.62233	-43
1.62600	-49
1.62967	-54
1.63333	-57
1.63700	-59
1.64067	-60
1.64433	-58
1.64800	-54
1.65167	-51
1.65533	-48
1.65900	-45
1.66267	-42
1.66633	-42
1.67000	-43
1.67367	-46
1.67733	-50
1.68100	-57
1.68467	-66
1.68833	-76
1.69200	-80
1.69567	-80
1.69933	-77
1.70300	-76
1.70667	-77
1.71033	-78
1.71400	-74
1.71767	-71
1.72133	-71
1.72500	-73
1.72867	-74
1.73233	-74
1.73600	-73
1.73967	-72
1.74333	-74
1.74700	-75
1.75067	-74
1.75433	-73
1.75800	-73
1.76167	-75
1.76533	-73
1.76900	-71
1.77267	-71
1.77633	-73
1.78000	-81
1.78367	-93
1.78733	-105
1.79100	-112
1.79467	-113
1.79833	-108
1.80200	-104
1.80567	-97
1.80933	-89
1.81300	-84
1.81667	-81
1.82033	-81
1.82400	-82
1.82767	-81
1.83133	-75
1.83500	-70
1.83867	-68
1.84233	-66
1.84600	-63
1.84967	-62
1.85333	-65
1.85700	-68
1.86067	-69
1.86433	-69
1.86800	-69
1.87167	-69
1.87533	-69
1.87900	-67
1.88267	-65
1.88633	-65
1.89000	-65
1.89367	-66
1.89733	-69
1.90100	-69
1.90467	-68
1.90833	-67
1.91200	-67
1.91567	-68
1.91933	-65
1.92300	-57
1.92667	-53
1.93033	-55
1.93400	-56
1.93767	-57
1.94133	-61
1.94500	-53
1.94867	67
1.95233	851
1.95600	4600
1.95967	17933
1.96333	54054
1.96700	129461
1.97067	252104
1.97433	410678
1.97800	578095
1.98167	724348
1.98533	825231
1.98900	866037
1.99267	843132
1.99633	764767
2.00000	649400
2.00367	520016
2.00733	396528
2.01100	291188
2.01467	208349
2.01833	146885
2.02200	103093
2.02567	72722
2.02933	51995
2.03300	37953
2.03667	28441
2.04033	21948
2.04400	17456
2.04767	14298
2.05133	12028
2.05500	10352
2.05867	9081
2.06233	8094
2.06600	7308
2.06967	6669
2.07333	6137
2.07700	5689
2.08067	5304
2.08433	4971
2.08800	4676
2.09167	4409
2.09533	4170
2.09900	3955
2.10267	3759
2.10633	3579
2.11000	3416
2.11367	3266
2.11733	3129
2.12100	3004
2.12467	2888
2.12833	2784
2.13200	2689
2.13567	2600
2.13933	2507
2.14300	2412
2.14667	2319
2.15033	2231
2.15400	2148
2.15767	2074
2.16133	2007
2.16500	1943
2.16867	1887
2.17233	1837
2.17600	1793
2.17967	1754
2.18333	1715
2.18700	1673
2.19067	1627
2.19433	1580
2.19800	1533
2.20167	1489
2.20533	1448
2.20900	1412
2.21267	1381
2.21633	1352
2.22000	1322
2.22367	1289
2.22733	1255
2.23100	1222
2.23467	1193
2.23833	1167
2.24200	1143
2.24567	1119
2.24933	1094
2.25300	1072
2.25667	1053
2.26033	1034
2.26400	1012
2.26767	988
2.27133	970
2.27500	958
2.27867	946
2.28233	927
2.28600	905
2.28967	890
2.29333	880
2.29700	869
2.30067	855
2.30433	837
2.30800	819
2.31167	805
2.31533	792
2.31900	778
2.32267	768
2.32633	768
2.33000	773
2.33367	771
2.33733	756
2.34100	732
2.34467	704
2.34833	681
2.35200	664
2.35567	651
2.35933	642
2.36300	636
2.36667	629
2.37033	621
2.37400	612
2.37767	601
2.38133	589
2.38500	577
2.38867	566
2.39233	557
2.39600	549
2.39967	545
2.40333	540
2.40700	534
2.41067	531
2.41433	531
2.41800	527
2.42167	519
2.42533	512
2.42900	508
2.43267	507
2.43633	504
2.44000	498
2.44367	491
2.44733	483
2.45100	474
2.45467	466
2.45833	461
2.46200	455
2.46567	452
2.46933	448
2.47300	443
2.47667	437
2.48033	432
2.48400	426
2.48767	418
2.49133	412
2.49500	413
2.49867	416
2.50233	417
2.50600	413
2.50967	407
2.51333	399
2.51700	388
2.52067	376
2.52433	366
2.52800	356
2.53167	346
2.53533	339
2.53900	338
2.54267	339
2.54633	341
2.55000	345
2.55367	351
2.55733	357
2.56100	353
2.56467	340
2.56833	328
2.57200	316
2.57567	306
2.57933	303
2.58300	301
2.58667	299
2.59033	297
2.59400	295
2.59767	295
2.60133	296
2.60500	297
2.60867	296
2.61233	295
2.61600	296
2.61967	297
2.62333	295
2.62700	292
2.63067	287
2.63433	282
2.63800	274
2.64167	269
2.64533	270
2.64900	272
2.65267	275
2.65633	276
2.66000	275
2.66367	273
2.66733	270
2.67100	266
2.67467	264
2.67833	262
2.68200	260
2.68567	258
2.68933	255
2.69300	251
2.69667	247
2.70033	244
2.70400	243
2.70767	242
2.71133	242
2.71500	241
2.71867	239
2.72233	239
2.72600	239
2.72967	235
2.73333	230
2.73700	226
2.74067	225
2.74433	226
2.74800	224
2.75167	221
2.75533	222
2.75900	223
2.76267	224
2.76633	224
2.77000	220
2.77367	217
2.77733	216
2.78100	218
2.78467	219
2.78833	216
2.79200	210
2.79567	205
2.79933	203
2.80300	201
2.80667	198
2.81033	198
2.81400	200
2.81767	202
2.82133	203
2.82500	202
2.82867	203
2.83233	206
2.83600	210
2.83967	210
2.84333	207
2.84700	204
2.85067	201
2.85433	201
2.85800	201
2.86167	201
2.86533	197
2.86900	191
2.87267	189
2.87633	192
2.88000	194
2.88367	195
2.88733	198
2.89100	200
2.89467	200
2.89833	199
2.90200	193
2.90567	187
2.90933	182
2.91300	178
2.91667	176
2.92033	175
2.92400	173
2.92767	170
2.93133	166
2.93500	165
2.93867	166
2.94233	172
2.94600	181
2.94967	187
2.95333	186
2.95700	185
2.96067	181
2.96433	175
2.96800	169
2.97167	167
2.97533	168
2.97900	168
2.98267	169
2.98633	169
2.99000	171
2.99367	174
2.99733	176
3.00100	174
3.00467	171
3.00833	169
3.01200	168
3.01567	168
3.01933	168
3.02300	169
3.02667	170
3.03033	169
3.03400	167
3.03767	167
3.04133	168
3.04500	169
3.04867	168
3.05233	164
3.05600	161
3.05967	158
3.06333	158
3.06700	159
3.07067	159
3.07433	160
3.07800	161
3.08167	162
3.08533	165
3.08900	166
3.09267	163
3.09633	157
3.10000	149
3.10367	140
3.10733	136
3.11100	138
3.11467	141
3.11833	144
3.12200	147
3.12567	148
3.12933	143
3.13300	139
3.13667	140
3.14033	141
3.14400	142
3.14767	146
3.15133	150
3.15500	154
3.15867	157
3.16233	160
3.16600	160
3.16967	157
3.17333	153
3.17700	151
3.18067	150
3.18433	148
3.18800	146
3.19167	143
3.19533	143
3.19900	142
3.20267	140
3.20633	138
3.21000	138
3.21367	138
3.21733	138
3.22100	140
3.22467	143
3.22833	146
3.23200	149
3.23567	152
3.23933	156
3.24300	159
3.24667	159
3.25033	152
3.25400	139
3.25767	125
3.26133	116
3.26500	109
3.26867	106
3.27233	110
3.27600	120
3.27967	135
3.28333	144
3.28700	143
3.29067	136
3.29433	126
3.29800	117
3.30167	111
3.30533	110
3.30900	113
3.31267	119
3.31633	128
3.32000	141
3.32367	149
3.32733	150
3.33100	148
3.33467	146
3.33833	141
3.34200	135
3.34567	132
3.34933	129
3.35300	126
3.35667	125
3.36033	125
3.36400	127
3.36767	129
3.37133	133
3.37500	135
3.37867	136
3.38233	136
3.38600	138
3.38967	141
3.39333	142
3.39700	138
3.40067	134
3.40433	130
3.40800	126
3.41167	122
3.41533	118
3.41900	115
3.42267	114
3.42633	115
3.43000	117
3.43367	118
3.43733	119
3.44100	123
3.44467	128
3.44833	131
3.45200	133
3.45567	134
3.45933	131
3.46300	124
3.46667	116
3.47033	111
3.47400	108
3.47767	108
3.48133	108
3.48500	109
3.48867	110
3.49233	112
3.49600	117
3.49967	123
3.50333	124
3.50700	124
3.51067	125
3.51433	124
3.51800	122
3.52167	119
3.52533	115
3.52900	113
3.53267	113
3.53633	116
3.54000	120
3.54367	122
3.54733	124
3.55100	123
3.55467	119
3.55833	117
3.56200	118
3.56567	120
3.56933	121
3.57300	121
3.57667	116
3.58033	111
3.58400	106
3.58767	101
3.59133	96
3.59500	92
3.59867	97
3.60233	103
3.60600	109
3.60967	116
3.61333	121
3.61700	124
3.62067	123
3.62433	122
3.62800	115
3.63167	104
3.63533	98
3.63900	97
3.64267	102
3.64633	109
3.65000	113
3.65367	114
3.65733	113
3.66100	108
3.66467	102
3.66833	100
3.67200	100
3.67567	102
3.67933	105
3.68300	104
3.68667	103
3.69033	102
3.69400	101
3.69767	101
3.70133	99
3.70500	99
3.70867	98
3.71233	94
3.71600	91
3.71967	93
3.72333	98
3.72700	101
3.73067	105
3.73433	108
3.73800	110
3.74167	109
3.74533	107
3.74900	102
3.75267	99
3.75633	98
3.76000	99
3.76367	101
3.76733	103
3.77100	106
3.77467	111
3.77833	116
3.78200	117
3.78567	115
3.78933	111
3.79300	107
3.79667	103
3.80033	100
3.80400	100
3.80767	103
3.81133	106
3.81500	108
3.81867	108
3.82233	108
3.82600	111
3.82967	115
3.83333	119
3.83700	118
3.84067	111
3.84433	104
3.84800	97
3.85167	89
3.85533	86
3.85900	86
3.86267	91
3.86633	97
3.87000	101
3.87367	103
3.87733	105
3.88100	105
3.88467	106
3.88833	107
3.89200	109
3.89567	111
3.89933	109
3.90300	105
3.90667	102
3.91033	102
3.91400	105
3.91767	106
3.92133	110
3.92500	117
3.92867	120
3.93233	117
3.93600	111
3.93967	105
3.94333	101
3.94700	99
3.95067	100
3.95433	104
3.95800	109
3.96167	111
3.96533	108
3.96900	104
3.97267	98
3.97633	92
3.98000	89
3.98367	91
3.98733	98
3.99100	102
3.99467	107
3.99833	108

[Chromatogram (Ch2)]
Interval(msec)	220
# of Points	1091
Start Time(min)	0.002
End Time(min)	3.998
R.Time (min)	Intensity
0.00167	1
0.00533	1
0.00900	1
0.01267	1
0.01633	1
0.02000	1
0.02367	1
0.02733	1
0.03100	0
0.03467	0
0.03833	-0
0.04200	-1
0.04567	-1
0.04933	-1
0.05300	-1
0.05667	-1
0.06033	-1
0.06400	-1
0.06767	-1
0.07133	-0
0.07500	0
0.07867	0
0.08233	1
0.08600	1
0.08967	1
0.09333	1
0.09700	1
0.10067	1
0.10433	1
0.10800	2
0.11167	2
0.11533	2
0.11900	3
0.12267	3
0.12633	2
0.13000	2
0.13367	1
0.13733	1
0.14100	1
0.14467	1
0.14833	0
0.15200	0
0.15567	-0
0.15933	-0
0.16300	-0
0.16667	-0
0.17033	-0
0.17400	-1
0.17767	-1
0.18133	-1
0.18500	-1
0.18867	-2
0.19233	-2
0.19600	-2
0.19967	-2
0.20333	-2
0.20700	-2
0.21067	-2
0.21433	-2
0.21800	-2
0.22167	-2
0.22533	-2
0.22900	-1
0.23267	-2
0.23633	-2
0.24000	-2
0.24367	-2
0.24733	-2
0.25100	-2
0.25467	-2
0.25833	-2
0.26200	-2
0.26567	-2
0.26933	-1
0.27300	-1
0.27667	-1
0.28033	-1
0.28400	-1
0.28767	-1
0.29133	-1
0.29500	-2
0.29867	-2
0.30233	-2
0.30600	-2
0.30967	-2
0.31333	-2
0.31700	-1
0.32067	-1
0.32433	-1
0.32800	-2
0.33167	-2
0.33533	-2
0.33900	-2
0.34267	-2
0.34633	-2
0.35000	-2
0.35367	-1
0.35733	-1
0.36100	-1
0.36467	-1
0.36833	-1
0.37200	-1
0.37567	-1
0.37933	-2
0.38300	-2
0.38667	-2
0.39033	-2
0.39400	-2
0.39767	-2
0.40133	-2
0.40500	-2
0.40867	-2
0.41233	-2
0.41600	-2
0.41967	-2
0.42333	-1
0.42700	-1
0.43067	-1
0.43433	-0
0.43800	0
0.44167	1
0.44533	1
0.44900	1
0.45267	2
0.45633	2
0.46000	2
0.46367	2
0.46733	2
0.47100	2
0.47467	2
0.47833	2
0.48200	3
0.48567	3
0.48933	3
0.49300	3
0.49667	3
0.50033	3
0.50400	3
0.50767	3
0.51133	3
0.51500	3
0.51867	3
0.52233	3
0.52600	3
0.52967	3
0.53333	3
0.53700	3
0.54067	3
0.54433	4
0.54800	4
0.55167	4
0.55533	4
0.55900	4
0.56267	4
0.56633	4
0.57000	4
0.57367	3
0.57733	3
0.58100	3
0.58467	3
0.58833	3
0.59200	3
0.59567	2
0.59933	2
0.60300	2
0.60667	2
0.61033	1
0.61400	1
0.61767	1
0.62133	0
0.62500	0
0.62867	-0
0.63233	-1
0.63600	-1
0.63967	-2
0.64333	-2
0.64700	-3
0.65067	-4
0.65433	-5
0.65800	-6
0.66167	-7
0.66533	-7
0.66900	-7
0.67267	-8
0.67633	-8
0.68000	-8
0.68367	-8
0.68733	-9
0.69100	-9
0.69467	-8
0.69833	-8
0.70200	-7
0.70567	-7
0.70933	-6
0.71300	-5
0.71667	-5
0.72033	-4
0.72400	-4
0.72767	-4
0.73133	-3
0.73500	-3
0.73867	-3
0.74233	-3
0.74600	-3
0.74967	-3
0.75333	-2
0.75700	-2
0.76067	-2
0.76433	-2
0.76800	-2
0.77167	-1
0.77533	-1
0.77900	-1
0.78267	-0
0.78633	-0
0.79000	0
0.79367	0
0.79733	1
0.80100	1
0.80467	0
0.80833	0
0.81200	0
0.81567	0
0.81933	1
0.82300	1
0.82667	1
0.83033	1
0.83400	2
0.83767	2
0.84133	2
0.84500	2
0.84867	2
0.85233	2
0.85600	2
0.85967	2
0.86333	2
0.86700	2
0.87067	2
0.87433	2
0.87800	2
0.88167	2
0.88533	2
0.88900	2
0.89267	2
0.89633	2
0.90000	1
0.90367	1
0.90733	0
0.91100	-0
0.91467	-0
0.91833	-0
0.92200	-1
0.92567	-1
0.92933	-1
0.93300	-1
0.93667	-1
0.94033	-1
0.94400	-1
0.94767	-1
0.95133	-1
0.95500	-1
0.95867	-1
0.96233	-1
0.96600	-1
0.96967	-1
0.97333	-2
0.97700	-2
0.98067	-3
0.98433	-4
0.98800	-5
0.99167	-5
0.99533	-6
0.99900	-6
1.00267	-6
1.00633	-6
1.01000	-6
1.01367	-6
1.01733	-6
1.02100	-6
1.02467	-6
1.02833	-5
1.03200	-5
1.03567	-5
1.03933	-5
1.04300	-4
1.04667	-4
1.05033	-4
1.05400	-3
1.05767	-3
1.06133	-2
1.06500	-2
1.06867	-2
1.07233	-2
1.07600	-2
1.07967	-2
1.08333	-1
1.08700	-1
1.09067	-1
1.09433	-2
1.09800	-2
1.10167	-2
1.10533	-3
1.10900	-3
1.11267	-4
1.11633	-4
1.12000	-5
1.12367	-5
1.12733	-6
1.13100	-6
1.13467	-6
1.13833	-6
1.14200	-6
1.14567	-6
1.14933	-5
1.15300	-5
1.15667	-4
1.16033	-4
1.16400	-3
1.16767	-3
1.17133	-3
1.17500	-2
1.17867	-2
1.18233	-2
1.18600	-2
1.18967	-2
1.19333	-2
1.19700	-2
1.20067	-1
1.20433	-1
1.20800	-1
1.21167	-1
1.21533	-1
1.21900	-1
1.22267	-1
1.22633	-1
1.23000	-1
1.23367	-1
1.23733	-1
1.24100	-2
1.24467	-2
1.24833	-2
1.25200	-3
1.25567	-3
1.25933	-3
1.26300	-3
1.26667	-3
1.27033	-3
1.27400	-3
1.27767	-2
1.28133	-2
1.28500	-2
1.28867	-2
1.29233	-2
1.29600	-2
1.29967	-2
1.30333	-2
1.30700	-2
1.31067	-2
1.31433	-2
1.31800	-2
1.32167	-2
1.32533	-3
1.32900	-4
1.33267	-4
1.33633	-4
1.34000	-4
1.34367	-4
1.34733	-4
1.35100	-4
1.35467	-4
1.35833	-4
1.36200	-4
1.36567	-4
1.36933	-4
1.37300	-4
1.37667	-4
1.38033	-4
1.38400	-4
1.38767	-3
1.39133	-3
1.39500	-2
1.39867	-2
1.40233	-2
1.40600	-2
1.40967	-2
1.41333	-2
1.41700	-1
1.42067	-1
1.42433	-1
1.42800	-1
1.43167	-1
1.43533	-1
1.43900	-1
1.44267	-0
1.44633	-0
1.45000	-0
1.45367	-0
1.45733	0
1.46100	0
1.46467	0
1.46833	-0
1.47200	-0
1.47567	-1
1.47933	-1
1.48300	-2
1.48667	-2
1.49033	-3
1.49400	-3
1.49767	-3
1.50133	-4
1.50500	-4
1.50867	-4
1.51233	-4
1.51600	-4
1.51967	-4
1.52333	-3
1.52700	-3
1.53067	-3
1.53433	-2
1.53800	-2
1.54167	-2
1.54533	-2
1.54900	-2
1.55267	-2
1.55633	-2
1.56000	-2
1.56367	-2
1.56733	-2
1.57100	-2
1.57467	-2
1.57833	-2
1.58200	-2
1.58567	-2
1.58933	-3
1.59300	-3
1.59667	-3
1.60033	-4
1.60400	-5
1.60767	-6
1.61133	-8
1.61500	-10
1.61867	-13
1.62233	-15
1.62600	-18
1.62967	-21
1.63333	-24
1.63700	-28
1.64067	-31
1.64433	-34
1.64800	-38
1.65167	-41
1.65533	-45
1.65900	-48
1.66267	-52
1.66633	-57
1.67000	-62
1.67367	-66
1.67733	-71
1.68100	-76
1.68467	-79
1.68833	-83
1.69200	-86
1.69567	-89
1.69933	-91
1.70300	-93
1.70667	-95
1.71033	-96
1.71400	-97
1.71767	-97
1.72133	-98
1.72500	-98
1.72867	-98
1.73233	-98
1.73600	-98
1.73967	-98
1.74333	-98
1.74700	-98
1.75067	-99
1.75433	-99
1.75800	-99
1.76167	-100
1.76533	-100
1.76900	-100
1.77267	-100
1.77633	-101
1.78000	-101
1.78367	-102
1.78733	-102
1.79100	-102
1.79467	-103
1.79833	-103
1.80200	-103
1.80567	-103
1.80933	-103
1.81300	-103
1.81667	-102
1.82033	-102
1.82400	-102
1.82767	-103
1.83133	-103
1.83500	-103
1.83867	-103
1.84233	-103
1.84600	-103
1.84967	-104
1.85333	-104
1.85700	-104
1.86067	-104
1.86433	-104
1.86800	-103
1.87167	-103
1.87533	-102
1.87900	-102
1.88267	-102
1.88633	-102
1.89000	-102
1.89367	-102
1.89733	-102
1.90100	-102
1.90467	-101
1.90833	-101
1.91200	-101
1.91567	-101
1.91933	-100
1.92300	-100
1.92667	-99
1.93033	-99
1.93400	-99
1.93767	-98
1.94133	-98
1.94500	-98
1.94867	-98
1.95233	-98
1.95600	-98
1.95967	-98
1.96333	-98
1.96700	-98
1.97067	-98
1.97433	-98
1.97800	-98
1.98167	-98
1.98533	-98
1.98900	-97
1.99267	-97
1.99633	-97
2.00000	-96
2.00367	-96
2.00733	-95
2.01100	-95
2.01467	-95
2.01833	-95
2.02200	-95
2.02567	-95
2.02933	-95
2.03300	-94
2.03667	-94
2.04033	-93
2.04400	-93
2.04767	-92
2.05133	-92
2.05500	-91
2.05867	-91
2.06233	-91
2.06600	-91
2.06967	-90
2.07333	-89
2.07700	-89
2.08067	-89
2.08433	-89
2.08800	-89
2.09167	-88
2.09533	-87
2.09900	-87
2.10267	-86
2.10633	-86
2.11000	-86
2.11367	-86
2.11733	-87
2.12100	-87
2.12467	-88
2.12833	-88
2.13200	-88
2.13567	-88
2.13933	-88
2.14300	-89
2.14667	-89
2.15033	-88
2.15400	-88
2.15767	-87
2.16133	-86
2.16500	-86
2.16867	-85
2.17233	-85
2.17600	-84
2.17967	-84
2.18333	-84
2.18700	-83
2.19067	-83
2.19433	-83
2.19800	-84
2.20167	-83
2.20533	-83
2.20900	-82
2.21267	-82
2.21633	-81
2.22000	-81
2.22367	-80
2.22733	-80
2.23100	-80
2.23467	-79
2.23833	-79
2.24200	-79
2.24567	-78
2.24933	-77
2.25300	-77
2.25667	-76
2.26033	-76
2.26400	-76
2.26767	-76
2.27133	-76
2.27500	-76
2.27867	-76
2.28233	-75
2.28600	-75
2.28967	-75
2.29333	-74
2.29700	-74
2.30067	-74
2.30433	-74
2.30800	-74
2.31167	-74
2.31533	-74
2.31900	-74
2.32267	-73
2.32633	-72
2.33000	-72
2.33367	-72
2.33733	-72
2.34100	-72
2.34467	-73
2.34833	-72
2.35200	-72
2.35567	-70
2.35933	-69
2.36300	-66
2.36667	-64
2.37033	-61
2.37400	-57
2.37767	-53
2.38133	-49
2.38500	-46
2.38867	-42
2.39233	-38
2.39600	-34
2.39967	-30
2.40333	-27
2.40700	-24
2.41067	-20
2.41433	-17
2.41800	-14
2.42167	-12
2.42533	-9
2.42900	-7
2.43267	-5
2.43633	-3
2.44000	-2
2.44367	-1
2.44733	0
2.45100	1
2.45467	3
2.45833	4
2.46200	6
2.46567	7
2.46933	9
2.47300	10
2.47667	11
2.48033	11
2.48400	12
2.48767	12
2.49133	13
2.49500	13
2.49867	14
2.50233	15
2.50600	15
2.50967	15
2.51333	15
2.51700	15
2.52067	14
2.52433	13
2.52800	12
2.53167	12
2.53533	11
2.53900	10
2.54267	10
2.54633	9
2.55000	9
2.55367	9
2.55733	9
2.56100	10
2.56467	11
2.56833	11
2.57200	12
2.57567	13
2.57933	14
2.58300	14
2.58667	15
2.59033	16
2.59400	16
2.59767	16
2.60133	16
2.60500	16
2.60867	16
2.61233	16
2.61600	16
2.61967	17
2.62333	17
2.62700	17
2.63067	18
2.63433	18
2.63800	18
2.64167	18
2.64533	18
2.64900	19
2.65267	19
2.65633	20
2.66000	21
2.66367	21
2.66733	21
2.67100	22
2.67467	22
2.67833	22
2.68200	22
2.68567	22
2.68933	22
2.69300	22
2.69667	23
2.70033	23
2.70400	23
2.70767	24
2.71133	24
2.71500	24
2.71867	24
2.72233	25
2.72600	25
2.72967	25
2.73333	25
2.73700	24
2.74067	24
2.74433	24
2.74800	24
2.75167	25
2.75533	25
2.75900	25
2.76267	26
2.76633	27
2.77000	27
2.77367	28
2.77733	28
2.78100	28
2.78467	28
2.78833	27
2.79200	27
2.79567	26
2.79933	26
2.80300	26
2.80667	26
2.81033	26
2.81400	26
2.81767	25
2.82133	25
2.82500	25
2.82867	25
2.83233	25
2.83600	25
2.83967	25
2.84333	25
2.84700	25
2.85067	25
2.85433	25
2.85800	24
2.86167	22
2.86533	17
2.86900	10
2.87267	-0
2.87633	-15
2.88000	-34
2.88367	-59
2.88733	-89
2.89100	-124
2.89467	-165
2.89833	-210
2.90200	-259
2.90567	-312
2.90933	-369
2.91300	-428
2.91667	-489
2.92033	-551
2.92400	-613
2.92767	-675
2.93133	-736
2.93500	-794
2.93867	-849
2.94233	-901
2.94600	-954
2.94967	-1009
2.95333	-1059
2.95700	-1095
2.96067	-1108
2.96433	-1096
2.96800	-1060
2.97167	-1005
2.97533	-936
2.97900	-859
2.98267	-778
2.98633	-698
2.99000	-620
2.99367	-546
2.99733	-478
3.00100	-416
3.00467	-360
3.00833	-310
3.01200	-266
3.01567	-227
3.01933	-194
3.02300	-164
3.02667	-139
3.03033	-117
3.03400	-98
3.03767	-81
3.04133	-67
3.04500	-55
3.04867	-45
3.05233	-36
3.05600	-28
3.05967	-22
3.06333	-17
3.06700	-12
3.07067	-8
3.07433	-4
3.07800	-1
3.08167	1
3.08533	3
3.08900	5
3.09267	7
3.09633	8
3.10000	10
3.10367	11
3.10733	12
3.11100	13
3.11467	14
3.11833	15
3.12200	16
3.12567	16
3.12933	17
3.13300	18
3.13667	18
3.14033	18
3.14400	18
3.14767	19
3.15133	19
3.15500	19
3.15867	20
3.16233	20
3.16600	20
3.16967	20
3.17333	20
3.17700	20
3.18067	20
3.18433	21
3.18800	21
3.19167	21
3.19533	21
3.19900	21
3.20267	21
3.20633	21
3.21000	21
3.21367	21
3.21733	21
3.22100	21
3.22467	21
3.22833	21
3.23200	22
3.23567	22
3.23933	22
3.24300	22
3.24667	22
3.25033	22
3.25400	23
3.25767	23
3.26133	23
3.26500	23
3.26867	24
3.27233	24
3.27600	25
3.27967	25
3.28333	26
3.28700	26
3.29067	27
3.29433	28
3.29800	28
3.30167	29
3.30533	29
3.30900	29
3.31267	29
3.31633	29
3.32000	29
3.32367	29
3.32733	29
3.33100	29
3.33467	29
3.33833	28
3.34200	28
3.34567	28
3.34933	28
3.35300	27
3.35667	27
3.36033	27
3.36400	27
3.36767	27
3.37133	27
3.37500	27
3.37867	28
3.38233	28
3.38600	28
3.38967	28
3.39333	28
3.39700	27
3.40067	27
3.40433	27
3.40800	27
3.41167	27
3.41533	27
3.41900	27
3.42267	27
3.42633	26
3.43000	26
3.43367	27
3.43733	27
3.44100	27
3.44467	27
3.44833	27
3.45200	27
3.45567	27
3.45933	27
3.46300	27
3.46667	27
3.47033	27
3.47400	27
3.47767	27
3.48133	27
3.48500	27
3.48867	27
3.49233	27
3.49600	27
3.49967	27
3.50333	27
3.50700	27
3.51067	27
3.51433	28
3.51800	28
3.52167	28
3.52533	28
3.52900	28
3.53267	28
3.53633	28
3.54000	28
3.54367	28
3.54733	28
3.55100	28
3.55467	27
3.55833	27
3.56200	27
3.56567	27
3.56933	27
3.57300	27
3.57667	27
3.58033	27
3.58400	27
3.58767	27
3.59133	27
3.59500	27
3.59867	27
3.60233	27
3.60600	27
3.60967	27
3.61333	27
3.61700	27
3.62067	27
3.62433	27
3.62800	27
3.63167	27
3.63533	27
3.63900	28
3.64267	28
3.64633	28
3.65000	28
3.65367	29
3.65733	29
3.66100	29
3.66467	29
3.66833	29
3.67200	29
3.67567	29
3.67933	29
3.68300	29
3.68667	29
3.69033	29
3.69400	29
3.69767	29
3.70133	29
3.70500	29
3.70867	29
3.71233	29
3.71600	29
3.71967	29
3.72333	29
3.72700	29
3.73067	29
3.73433	29
3.73800	29
3.74167	29
3.74533	29
3.74900	29
3.75267	29
3.75633	29
3.76000	29
3.76367	29
3.76733	29
3.77100	29
3.77467	29
3.77833	29
3.78200	29
3.78567	28
3.78933	28
3.79300	28
3.79667	27
3.80033	27
3.80400	27
3.80767	27
3.81133	27
3.81500	27
3.81867	27
3.82233	27
3.82600	27
3.82967	27
3.83333	27
3.83700	27
3.84067	27
3.84433	27
3.84800	28
3.85167	28
3.85533	28
3.85900	28
3.86267	28
3.86633	28
3.87000	28
3.87367	29
3.87733	29
3.88100	29
3.88467	29
3.88833	29
3.89200	29
3.89567	29
3.89933	29
3.90300	29
3.90667	29
3.91033	29
3.91400	29
3.91767	29
3.92133	29
3.92500	29
3.92867	28
3.93233	28
3.93600	28
3.93967	28
3.94333	27
3.94700	27
3.95067	27
3.95433	27
3.95800	26
3.96167	26
3.96533	26
3.96900	26
3.97267	26
3.97633	26
3.98000	25
3.98367	25
3.98733	25
3.99100	26
3.99467	26
3.99833	26

[Chromatogram (Ch3)]
Interval(msec)	220
# of Points	1091
Start Time(min)	0.002
End Time(min)	3.998
R.Time (min)	Intensity
0.00167	-0
0.00533	-1
0.00900	-2
0.01267	-3
0.01633	-6
0.02000	-7
0.02367	-4
0.02733	-1
0.03100	0
0.03467	2
0.03833	3
0.04200	1
0.04567	-1
0.04933	0
0.05300	2
0.05667	3
0.06033	2
0.06400	0
0.06767	-0
0.07133	-1
0.07500	0
0.07867	-0
0.08233	-1
0.08600	-1
0.08967	-0
0.09333	1
0.09700	1
0.10067	0
0.10433	-1
0.10800	-1
0.11167	-2
0.11533	-2
0.11900	-2
0.12267	-0
0.12633	1
0.13000	3
0.13367	4
0.13733	3
0.14100	1
0.14467	-0
0.14833	-0
0.15200	-0
0.15567	-1
0.15933	-1
0.16300	0
0.16667	-2
0.17033	-5
0.17400	-5
0.17767	-2
0.18133	-2
0.18500	-4
0.18867	-4
0.19233	-1
0.19600	0
0.19967	-0
0.20333	-0
0.20700	-0
0.21067	0
0.21433	1
0.21800	-0
0.22167	-2
0.22533	-3
0.22900	-3
0.23267	-4
0.23633	-4
0.24000	-4
0.24367	-3
0.24733	-2
0.25100	-2
0.25467	-3
0.25833	-2
0.26200	0
0.26567	3
0.26933	6
0.27300	7
0.27667	6
0.28033	3
0.28400	-1
0.28767	-1
0.29133	-1
0.29500	-0
0.29867	-0
0.30233	-0
0.30600	0
0.30967	-0
0.31333	-1
0.31700	-3
0.32067	-4
0.32433	-3
0.32800	-1
0.33167	0
0.33533	0
0.33900	1
0.34267	1
0.34633	0
0.35000	-1
0.35367	-0
0.35733	-1
0.36100	-2
0.36467	-2
0.36833	-1
0.37200	1
0.37567	1
0.37933	-1
0.38300	-2
0.38667	-2
0.39033	-0
0.39400	1
0.39767	4
0.40133	5
0.40500	5
0.40867	4
0.41233	1
0.41600	-1
0.41967	-1
0.42333	1
0.42700	3
0.43067	6
0.43433	7
0.43800	6
0.44167	6
0.44533	6
0.44900	7
0.45267	5
0.45633	3
0.46000	4
0.46367	6
0.46733	5
0.47100	4
0.47467	1
0.47833	1
0.48200	1
0.48567	1
0.48933	-0
0.49300	-0
0.49667	1
0.50033	1
0.50400	0
0.50767	1
0.51133	0
0.51500	0
0.51867	1
0.52233	1
0.52600	1
0.52967	1
0.53333	0
0.53700	2
0.54067	4
0.54433	5
0.54800	5
0.55167	3
0.55533	3
0.55900	3
0.56267	4
0.56633	6
0.57000	7
0.57367	7
0.57733	5
0.58100	5
0.58467	7
0.58833	7
0.59200	7
0.59567	10
0.59933	11
0.60300	8
0.60667	8
0.61033	7
0.61400	6
0.61767	3
0.62133	3
0.62500	3
0.62867	3
0.63233	4
0.63600	6
0.63967	6
0.64333	7
0.64700	8
0.65067	6
0.65433	6
0.65800	9
0.66167	12
0.66533	13
0.66900	13
0.67267	12
0.67633	11
0.68000	12
0.68367	11
0.68733	11
0.69100	11
0.69467	11
0.69833	11
0.70200	12
0.70567	12
0.70933	11
0.71300	7
0.71667	5
0.72033	4
0.72400	3
0.72767	4
0.73133	4
0.73500	3
0.73867	5
0.74233	6
0.74600	6
0.74967	7
0.75333	7
0.75700	7
0.76067	8
0.76433	10
0.76800	12
0.77167	12
0.77533	11
0.77900	10
0.78267	11
0.78633	11
0.79000	10
0.79367	9
0.79733	10
0.80100	11
0.80467	11
0.80833	11
0.81200	11
0.81567	10
0.81933	8
0.82300	9
0.82667	8
0.83033	6
0.83400	5
0.83767	5
0.84133	9
0.84500	12
0.84867	12
0.85233	13
0.85600	13
0.85967	13
0.86333	13
0.86700	14
0.87067	16
0.87433	15
0.87800	14
0.88167	14
0.88533	15
0.88900	16
0.89267	18
0.89633	19
0.90000	18
0.90367	16
0.90733	15
0.91100	15
0.91467	14
0.91833	13
0.92200	14
0.92567	14
0.92933	13
0.93300	12
0.93667	12
0.94033	12
0.94400	12
0.94767	13
0.95133	13
0.95500	12
0.95867	14
0.96233	15
0.96600	17
0.96967	16
0.97333	16
0.97700	17
0.98067	18
0.98433	16
0.98800	13
0.99167	12
0.99533	13
0.99900	14
1.00267	13
1.00633	14
1.01000	17
1.01367	17
1.01733	16
1.02100	16
1.02467	16
1.02833	16
1.03200	16
1.03567	14
1.03933	14
1.04300	14
1.04667	14
1.05033	14
1.05400	15
1.05767	16
1.06133	18
1.06500	18
1.06867	18
1.07233	18
1.07600	17
1.07967	16
1.08333	15
1.08700	14
1.09067	15
1.09433	16
1.09800	16
1.10167	15
1.10533	14
1.10900	14
1.11267	16
1.11633	17
1.12000	16
1.12367	15
1.12733	13
1.13100	13
1.13467	11
1.13833	10
1.14200	9
1.14567	8
1.14933	11
1.15300	13
1.15667	15
1.16033	16
1.16400	17
1.16767	18
1.17133	18
1.17500	18
1.17867	18
1.18233	17
1.18600	15
1.18967	14
1.19333	14
1.19700	14
1.20067	15
1.20433	15
1.20800	15
1.21167	17
1.21533	18
1.21900	19
1.22267	18
1.22633	17
1.23000	17
1.23367	19
1.23733	20
1.24100	20
1.24467	19
1.24833	18
1.25200	18
1.25567	17
1.25933	17
1.26300	17
1.26667	17
1.27033	16
1.27400	17
1.27767	18
1.28133	16
1.28500	14
1.28867	15
1.29233	17
1.29600	19
1.29967	20
1.30333	19
1.30700	18
1.31067	18
1.31433	16
1.31800	17
1.32167	17
1.32533	17
1.32900	16
1.33267	16
1.33633	17
1.34000	17
1.34367	17
1.34733	17
1.35100	17
1.35467	17
1.35833	17
1.36200	17
1.36567	17
1.36933	18
1.37300	19
1.37667	20
1.38033	22
1.38400	22
1.38767	21
1.39133	21
1.39500	19
1.39867	17
1.40233	15
1.40600	15
1.40967	17
1.41333	17
1.41700	18
1.42067	19
1.42433	21
1.42800	21
1.43167	21
1.43533	22
1.43900	21
1.44267	19
1.44633	19
1.45000	19
1.45367	16
1.45733	14
1.46100	14
1.46467	15
1.46833	15
1.47200	15
1.47567	16
1.47933	17
1.48300	16
1.48667	16
1.49033	18
1.49400	21
1.49767	21
1.50133	18
1.50500	16
1.50867	18
1.51233	19
1.51600	19
1.51967	20
1.52333	19
1.52700	18
1.53067	19
1.53433	20
1.53800	20
1.54167	20
1.54533	20
1.54900	20
1.55267	19
1.55633	19
1.56000	18
1.56367	17
1.56733	17
1.57100	18
1.57467	20
1.57833	23
1.58200	24
1.58567	24
1.58933	23
1.59300	22
1.59667	22
1.60033	22
1.60400	24
1.60767	25
1.61133	25
1.61500	25
1.61867	24
1.62233	23
1.62600	23
1.62967	25
1.63333	26
1.63700	28
1.64067	27
1.64433	26
1.64800	24
1.65167	26
1.65533	27
1.65900	28
1.66267	30
1.66633	30
1.67000	31
1.67367	32
1.67733	34
1.68100	34
1.68467	32
1.68833	31
1.69200	31
1.69567	29
1.69933	29
1.70300	31
1.70667	32
1.71033	34
1.71400	35
1.71767	34
1.72133	32
1.72500	32
1.72867	35
1.73233	39
1.73600	39
1.73967	39
1.74333	37
1.74700	36
1.75067	36
1.75433	37
1.75800	38
1.76167	39
1.76533	37
1.76900	36
1.77267	36
1.77633	37
1.78000	38
1.78367	39
1.78733	39
1.79100	37
1.79467	37
1.79833	37
1.80200	37
1.80567	39
1.80933	41
1.81300	41
1.81667	43
1.82033	47
1.82400	48
1.82767	47
1.83133	47
1.83500	50
1.83867	52
1.84233	51
1.84600	50
1.84967	50
1.85333	51
1.85700	52
1.86067	53
1.86433	52
1.86800	53
1.87167	53
1.87533	51
1.87900	51
1.88267	52
1.88633	52
1.89000	53
1.89367	55
1.89733	57
1.90100	59
1.90467	61
1.90833	61
1.91200	59
1.91567	59
1.91933	58
1.92300	58
1.92667	58
1.93033	60
1.93400	63
1.93767	65
1.94133	65
1.94500	65
1.94867	64
1.95233	62
1.95600	61
1.95967	62
1.96333	61
1.96700	61
1.97067	65
1.97433	67
1.97800	69
1.98167	70
1.98533	71
1.98900	71
1.99267	72
1.99633	73
2.00000	77
2.00367	80
2.00733	80
2.01100	79
2.01467	77
2.01833	76
2.02200	78
2.02567	81
2.02933	83
2.03300	83
2.03667	84
2.04033	85
2.04400	87
2.04767	88
2.05133	89
2.05500	89
2.05867	88
2.06233	88
2.06600	90
2.06967	93
2.07333	95
2.07700	96
2.08067	95
2.08433	94
2.08800	93
2.09167	93
2.09533	95
2.09900	96
2.10267	97
2.10633	96
2.11000	96
2.11367	98
2.11733	98
2.12100	98
2.12467	98
2.12833	97
2.13200	97
2.13567	97
2.13933	99
2.14300	101
2.14667	101
2.15033	101
2.15400	101
2.15767	103
2.16133	105
2.16500	106
2.16867	106
2.17233	108
2.17600	114
2.17967	115
2.18333	113
2.18700	113
2.19067	118
2.19433	120
2.19800	122
2.20167	123
2.20533	121
2.20900	119
2.21267	121
2.21633	121
2.22000	121
2.22367	123
2.22733	124
2.23100	123
2.23467	123
2.23833	124
2.24200	125
2.24567	126
2.24933	127
2.25300	127
2.25667	128
2.26033	129
2.26400	130
2.26767	130
2.27133	129
2.27500	129
2.27867	129
2.28233	129
2.28600	128
2.28967	128
2.29333	129
2.29700	130
2.30067	131
2.30433	132
2.30800	132
2.31167	132
2.31533	132
2.31900	131
2.32267	130
2.32633	132
2.33000	134
2.33367	134
2.33733	132
2.34100	132
2.34467	132
2.34833	131
2.35200	129
2.35567	128
2.35933	131
2.36300	134
2.36667	136
2.37033	136
2.37400	137
2.37767	137
2.38133	136
2.38500	134
2.38867	132
2.39233	132
2.39600	133
2.39967	134
2.40333	138
2.40700	142
2.41067	147
2.41433	151
2.41800	152
2.42167	153
2.42533	152
2.42900	151
2.43267	151
2.43633	149
2.44000	157
2.44367	216
2.44733	325
2.45100	426
2.45467	500
2.45833	535
2.46200	532
2.46567	510
2.46933	488
2.47300	473
2.47667	462
2.48033	448
2.48400	425
2.48767	397
2.49133	368
2.49500	343
2.49867	322
2.50233	309
2.50600	304
2.50967	305
2.51333	311
2.51700	317
2.52067	325
2.52433	330
2.52800	330
2.53167	327
2.53533	319
2.53900	308
2.54267	293
2.54633	277
2.55000	263
2.55367	253
2.55733	254
2.56100	278
2.56467	323
2.56833	379
2.57200	442
2.57567	507
2.57933	573
2.58300	638
2.58667	704
2.59033	770
2.59400	833
2.59767	887
2.60133	930
2.60500	960
2.60867	979
2.61233	988
2.61600	986
2.61967	977
2.62333	962
2.62700	943
2.63067	923
2.63433	902
2.63800	882
2.64167	866
2.64533	851
2.64900	838
2.65267	829
2.65633	822
2.66000	817
2.66367	812
2.66733	807
2.67100	804
2.67467	804
2.67833	806
2.68200	810
2.68567	814
2.68933	818
2.69300	823
2.69667	827
2.70033	832
2.70400	837
2.70767	841
2.71133	846
2.71500	854
2.71867	861
2.72233	866
2.72600	873
2.72967	880
2.73333	888
2.73700	895
2.74067	898
2.74433	899
2.74800	900
2.75167	900
2.75533	901
2.75900	900
2.76267	896
2.76633	887
2.77000	875
2.77367	866
2.77733	858
2.78100	849
2.78467	841
2.78833	834
2.79200	825
2.79567	817
2.79933	811
2.80300	804
2.80667	797
2.81033	787
2.81400	780
2.81767	775
2.82133	769
2.82500	767
2.82867	770
2.83233	775
2.83600	788
2.83967	822
2.84333	895
2.84700	1028
2.85067	1245
2.85433	1565
2.85800	1989
2.86167	2504
2.86533	3082
2.86900	3681
2.87267	4249
2.87633	4742
2.88000	5118
2.88367	5354
2.88733	5441
2.89100	5392
2.89467	5230
2.89833	4985
2.90200	4683
2.90567	4346
2.90933	4001
2.91300	3660
2.91667	3337
2.92033	3037
2.92400	2759
2.92767	2506
2.93133	2277
2.93500	2076
2.93867	1903
2.94233	1750
2.94600	1617
2.94967	1502
2.95333	1400
2.95700	1313
2.96067	1239
2.96433	1175
2.96800	1118
2.97167	1068
2.97533	1026
2.97900	993
2.98267	965
2.98633	943
2.99000	923
2.99367	904
2.99733	889
3.00100	875
3.00467	863
3.00833	854
3.01200	848
3.01567	842
3.01933	837
3.02300	833
3.02667	830
3.03033	829
3.03400	827
3.03767	826
3.04133	823
3.04500	822
3.04867	820
3.05233	815
3.05600	814
3.05967	813
3.06333	814
3.06700	814
3.07067	816
3.07433	816
3.07800	816
3.08167	816
3.08533	817
3.08900	818
3.09267	817
3.09633	815
3.10000	814
3.10367	815
3.10733	816
3.11100	816
3.11467	814
3.11833	812
3.12200	809
3.12567	806
3.12933	805
3.13300	805
3.13667	803
3.14033	801
3.14400	801
3.14767	800
3.15133	801
3.15500	800
3.15867	799
3.16233	796
3.16600	796
3.16967	795
3.17333	793
3.17700	793
3.18067	791
3.18433	791
3.18800	793
3.19167	795
3.19533	794
3.19900	792
3.20267	789
3.20633	787
3.21000	784
3.21367	781
3.21733	781
3.22100	781
3.22467	781
3.22833	782
3.23200	782
3.23567	781
3.23933	780
3.24300	780
3.24667	781
3.25033	778
3.25400	776
3.25767	776
3.26133	778
3.26500	777
3.26867	776
3.27233	776
3.27600	777
3.27967	778
3.28333	777
3.28700	775
3.29067	772
3.29433	769
3.29800	766
3.30167	765
3.30533	765
3.30900	763
3.31267	763
3.31633	765
3.32000	763
3.32367	760
3.32733	758
3.33100	755
3.33467	753
3.33833	751
3.34200	747
3.34567	745
3.34933	744
3.35300	744
3.35667	742
3.36033	742
3.36400	740
3.36767	738
3.37133	735
3.37500	733
3.37867	732
3.38233	731
3.38600	727
3.38967	724
3.39333	722
3.39700	720
3.40067	719
3.40433	718
3.40800	715
3.41167	711
3.41533	708
3.41900	706
3.42267	706
3.42633	705
3.43000	705
3.43367	705
3.43733	704
3.44100	701
3.44467	699
3.44833	697
3.45200	694
3.45567	692
3.45933	690
3.46300	686
3.46667	683
3.47033	683
3.47400	681
3.47767	680
3.48133	679
3.48500	677
3.48867	673
3.49233	670
3.49600	668
3.49967	666
3.50333	665
3.50700	664
3.51067	661
3.51433	659
3.51800	659
3.52167	660
3.52533	659
3.52900	656
3.53267	655
3.53633	655
3.54000	653
3.54367	651
3.54733	649
3.55100	647
3.55467	647
3.55833	647
3.56200	643
3.56567	638
3.56933	635
3.57300	632
3.57667	631
3.58033	630
3.58400	628
3.58767	629
3.59133	628
3.59500	624
3.59867	621
3.60233	620
3.60600	619
3.60967	618
3.61333	618
3.61700	616
3.62067	614
3.62433	615
3.62800	616
3.63167	615
3.63533	612
3.63900	609
3.64267	605
3.64633	601
3.65000	599
3.65367	598
3.65733	598
3.66100	597
3.66467	596
3.66833	597
3.67200	596
3.67567	595
3.67933	594
3.68300	593
3.68667	594
3.69033	594
3.69400	591
3.69767	590
3.70133	588
3.70500	587
3.70867	585
3.71233	583
3.71600	582
3.71967	581
3.72333	581
3.72700	580
3.73067	582
3.73433	583
3.73800	583
3.74167	581
3.74533	580
3.74900	578
3.75267	575
3.75633	576
3.76000	575
3.76367	574
3.76733	573
3.77100	572
3.77467	570
3.77833	568
3.78200	568
3.78567	566
3.78933	564
3.79300	564
3.79667	566
3.80033	565
3.80400	564
3.80767	563
3.81133	560
3.81500	557
3.81867	554
3.82233	552
3.82600	554
3.82967	558
3.83333	558
3.83700	558
3.84067	557
3.84433	554
3.84800	553
3.85167	552
3.85533	552
3.85900	552
3.86267	553
3.86633	550
3.87000	545
3.87367	542
3.87733	541
3.88100	541
3.88467	539
3.88833	539
3.89200	541
3.89567	540
3.89933	537
3.90300	533
3.90667	531
3.91033	528
3.91400	527
3.91767	527
3.92133	529
3.92500	528
3.92867	529
3.93233	528
3.93600	527
3.93967	525
3.94333	522
3.94700	523
3.95067	523
3.95433	522
3.95800	519
3.96167	517
3.96533	515
3.96900	516
3.97267	516
3.97633	515
3.98000	514
3.98367	510
3.98733	507
3.99100	505
3.99467	502
3.99833	497

[Status Trace (Column Oven Temperature)]
Interval(msec)	1000
# of Points	240
Start Time(min)	0.007
End Time(min)	3.990
Intensity Units	
Intensity Multiplier	1
R.Time (min)	Intensity
0.00667	35.04
0.02333	35.04
0.04000	35.05
0.05667	35.06
0.07333	35.05
0.09000	35.05
0.10667	35.05
0.12333	35.04
0.14000	35.05
0.15667	35.05
0.17333	35.06
0.19000	35.07
0.20667	35.08
0.22333	35.08
0.24000	35.07
0.25667	35.07
0.27333	35.07
0.29000	35.07
0.30667	35.07
0.32333	35.08
0.34000	35.08
0.35667	35.08
0.37333	35.08
0.39000	35.09
0.40667	35.09
0.42333	35.08
0.44000	35.07
0.45667	35.06
0.47333	35.04
0.49000	35.03
0.50667	35.01
0.52333	35.01
0.54000	34.99
0.55667	34.97
0.57333	34.96
0.59000	34.95
0.60667	34.94
0.62333	34.94
0.64000	34.96
0.65667	34.98
0.67333	35.01
0.69000	35.04
0.70667	35.05
0.72333	35.05
0.74000	35.05
0.75667	35.05
0.77333	35.04
0.79000	35.02
0.80667	35.00
0.82333	34.99
0.84000	34.99
0.85667	34.97
0.87333	34.96
0.89000	34.95
0.90667	34.94
0.92333	34.94
0.94000	34.94
0.95667	34.94
0.97333	34.96
0.99000	34.99
1.00667	35.00
1.02333	35.01
1.04000	35.01
1.05667	35.00
1.07333	34.99
1.09000	34.99
1.10667	34.99
1.12333	35.01
1.14000	35.02
1.15667	35.02
1.17333	35.01
1.19000	35.00
1.20667	34.99
1.22333	34.98
1.24000	34.98
1.25667	34.98
1.27333	34.98
1.29000	34.98
1.30667	34.98
1.32333	34.99
1.34000	35.00
1.35667	35.00
1.37333	35.01
1.39000	35.00
1.40667	34.98
1.42333	34.98
1.44000	34.97
1.45667	34.96
1.47333	34.96
1.49000	34.97
1.50667	34.97
1.52333	34.97
1.54000	34.98
1.55667	34.97
1.57333	34.97
1.59000	34.97
1.60667	35.03
1.62333	35.14
1.64000	35.34
1.65667	35.58
1.67333	35.92
1.69000	36.32
1.70667	36.65
1.72333	36.98
1.74000	37.33
1.75667	37.64
1.77333	37.97
1.79000	38.33
1.80667	38.63
1.82333	38.96
1.84000	39.32
1.85667	39.63
1.87333	39.95
1.89000	40.32
1.90667	40.61
1.92333	40.93
1.94000	41.28
1.95667	41.58
1.97333	41.91
1.99000	42.26
2.00667	42.54
2.02333	42.86
2.04000	43.21
2.05667	43.50
2.07333	43.82
2.09000	44.18
2.10667	44.47
2.12333	44.81
2.14000	45.19
2.15667	45.47
2.17333	45.80
2.19000	46.16
2.20667	46.47
2.22333	46.81
2.24000	47.16
2.25667	47.47
2.27333	47.80
2.29000	48.15
2.30667	48.45
2.32333	48.77
2.34000	49.16
2.35667	49.41
2.37333	49.57
2.39000	49.62
2.40667	49.62
2.42333	49.62
2.44000	49.65
2.45667	49.65
2.47333	49.65
2.49000	49.67
2.50667	49.68
2.52333	49.70
2.54000	49.73
2.55667	49.73
2.57333	49.75
2.59000	49.76
2.60667	49.78
2.62333	49.79
2.64000	49.81
2.65667	49.81
2.67333	49.82
2.69000	49.83
2.70667	49.84
2.72333	49.85
2.74000	49.86
2.75667	49.86
2.77333	49.84
2.79000	49.86
2.80667	49.88
2.82333	49.89
2.84000	49.91
2.85667	49.91
2.87333	49.92
2.89000	49.91
2.90667	49.91
2.92333	49.92
2.94000	49.93
2.95667	49.95
2.97333	49.95
2.99000	49.96
3.00667	49.97
3.02333	50.00
3.04000	50.02
3.05667	50.03
3.07333	50.04
3.09000	50.04
3.10667	50.04
3.12333	50.03
3.14000	50.04
3.15667	50.04
3.17333	50.05
3.19000	50.06
3.20667	50.07
3.22333	50.09
3.24000	50.10
3.25667	50.11
3.27333	50.10
3.29000	50.07
3.30667	50.06
3.32333	50.06
3.34000	50.05
3.35667	50.05
3.37333	50.06
3.39000	50.05
3.40667	50.06
3.42333	50.06
3.44000	50.06
3.45667	50.06
3.47333	50.07
3.49000	50.08
3.50667	50.07
3.52333	50.06
3.54000	50.07
3.55667	50.07
3.57333	50.08
3.59000	50.09
3.60667	50.09
3.62333	50.10
3.64000	50.08
3.65667	50.08
3.67333	50.08
3.69000	50.08
3.70667	50.07
3.72333	50.07
3.74000	50.06
3.75667	50.05
3.77333	50.06
3.79000	50.08
3.80667	50.09
3.82333	50.09
3.84000	50.08
3.85667	50.08
3.87333	50.07
3.89000	50.07
3.90667	50.07
3.92333	50.08
3.94000	50.09
3.95667	50.09
3.97333	50.11
3.99000	50.11

[Status Trace (Injection Unit Temperature)]
Interval(msec)	1000
# of Points	240
Start Time(min)	0.007
End Time(min)	3.990
Intensity Units	
Intensity Multiplier	1
R.Time (min)	Intensity
0.00667	99.98
0.02333	99.98
0.04000	99.97
0.05667	99.98
0.07333	99.98
0.09000	99.98
0.10667	99.98
0.12333	99.98
0.14000	99.98
0.15667	99.98
0.17333	99.98
0.19000	99.98
0.20667	99.98
0.22333	99.98
0.24000	99.98
0.25667	99.98
0.27333	99.98
0.29000	99.98
0.30667	99.98
0.32333	99.98
0.34000	99.98
0.35667	99.97
0.37333	99.98
0.39000	99.98
0.40667	99.98
0.42333	99.98
0.44000	99.98
0.45667	99.98
0.47333	99.98
0.49000	99.98
0.50667	99.98
0.52333	99.98
0.54000	99.98
0.55667	99.98
0.57333	99.98
0.59000	99.98
0.60667	99.98
0.62333	99.98
0.64000	99.98
0.65667	99.98
0.67333	99.98
0.69000	99.98
0.70667	99.99
0.72333	99.98
0.74000	99.98
0.75667	99.98
0.77333	99.99
0.79000	99.98
0.80667	99.98
0.82333	99.98
0.84000	99.98
0.85667	99.98
0.87333	99.98
0.89000	99.98
0.90667	99.99
0.92333	99.98
0.94000	99.98
0.95667	99.99
0.97333	99.98
0.99000	99.98
1.00667	99.98
1.02333	99.98
1.04000	99.99
1.05667	99.98
1.07333	99.98
1.09000	99.98
1.10667	99.98
1.12333	99.98
1.14000	99.98
1.15667	99.98
1.17333	99.99
1.19000	99.99
1.20667	99.98
1.22333	99.98
1.24000	99.98
1.25667	99.99
1.27333	99.99
1.29000	99.99
1.30667	99.99
1.32333	99.99
1.34000	99.99
1.35667	99.99
1.37333	99.99
1.39000	99.99
1.40667	99.98
1.42333	99.99
1.44000	99.99
1.45667	99.99
1.47333	99.99
1.49000	99.99
1.50667	99.99
1.52333	99.99
1.54000	99.99
1.55667	99.99
1.57333	99.99
1.59000	99.99
1.60667	99.99
1.62333	99.98
1.64000	99.98
1.65667	99.99
1.67333	99.99
1.69000	99.98
1.70667	99.99
1.72333	99.98
1.74000	99.98
1.75667	99.98
1.77333	99.98
1.79000	99.98
1.80667	99.98
1.82333	99.98
1.84000	99.98
1.85667	99.98
1.87333	99.97
1.89000	99.97
1.90667	99.97
1.92333	99.97
1.94000	99.97
1.95667	99.97
1.97333	99.97
1.99000	99.97
2.00667	99.96
2.02333	99.96
2.04000	99.96
2.05667	99.97
2.07333	99.96
2.09000	99.96
2.10667	99.96
2.12333	99.96
2.14000	99.96
2.15667	99.96
2.17333	99.96
2.19000	99.96
2.20667	99.95
2.22333	99.96
2.24000	99.96
2.25667	99.96
2.27333	99.96
2.29000	99.96
2.30667	99.96
2.32333	99.96
2.34000	99.96
2.35667	99.96
2.37333	99.96
2.39000	99.97
2.40667	99.96
2.42333	99.97
2.44000	99.96
2.45667	99.97
2.47333	99.97
2.49000	99.97
2.50667	99.97
2.52333	99.97
2.54000	99.97
2.55667	99.97
2.57333	99.97
2.59000	99.98
2.60667	99.97
2.62333	99.98
2.64000	99.98
2.65667	99.98
2.67333	99.98
2.69000	99.99
2.70667	99.98
2.72333	99.99
2.74000	99.99
2.75667	99.99
2.77333	99.99
2.79000	100.00
2.80667	100.00
2.82333	100.00
2.84000	100.00
2.85667	100.00
2.87333	100.01
2.89000	100.00
2.90667	100.01
2.92333	100.01
2.94000	100.01
2.95667	100.01
2.97333	100.01
2.99000	100.01
3.00667	100.01
3.02333	100.02
3.04000	100.02
3.05667	100.02
3.07333	100.02
3.09000	100.02
3.10667	100.02
3.12333	100.02
3.14000	100.02
3.15667	100.02
3.17333	100.01
3.19000	100.02
3.20667	100.02
3.22333	100.02
3.24000	100.02
3.25667	100.02
3.27333	100.03
3.29000	100.02
3.30667	100.03
3.32333	100.03
3.34000	100.02
3.35667	100.03
3.37333	100.03
3.39000	100.02
3.40667	100.03
3.42333	100.03
3.44000	100.03
3.45667	100.03
3.47333	100.03
3.49000	100.03
3.50667	100.03
3.52333	100.04
3.54000	100.03
3.55667	100.04
3.57333	100.03
3.59000	100.04
3.60667	100.03
3.62333	100.04
3.64000	100.04
3.65667	100.04
3.67333	100.03
3.69000	100.04
3.70667	100.04
3.72333	100.04
3.74000	100.04
3.75667	100.04
3.77333	100.03
3.79000	100.04
3.80667	100.04
3.82333	100.04
3.84000	100.04
3.85667	100.04
3.87333	100.04
3.89000	100.05
3.90667	100.04
3.92333	100.04
3.94000	100.04
3.95667	100.04
3.97333	100.04
3.99000	100.04

[Status Trace (Carrier Gas Pressure)]
Interval(msec)	1000
# of Points	240
Start Time(min)	0.007
End Time(min)	3.990
Intensity Units	
Intensity Multiplier	1
R.Time (min)	Intensity
0.00667	58.00
0.02333	55.56
0.04000	56.93
0.05667	59.01
0.07333	59.62
0.09000	58.11
0.10667	57.98
0.12333	58.01
0.14000	58.01
0.15667	58.01
0.17333	58.00
0.19000	58.00
0.20667	58.00
0.22333	58.00
0.24000	58.00
0.25667	58.00
0.27333	58.00
0.29000	58.00
0.30667	58.00
0.32333	58.00
0.34000	58.00
0.35667	58.00
0.37333	58.00
0.39000	58.00
0.40667	58.00
0.42333	58.00
0.44000	58.00
0.45667	58.00
0.47333	58.00
0.49000	58.00
0.50667	58.00
0.52333	58.00
0.54000	58.00
0.55667	58.00
0.57333	58.00
0.59000	58.00
0.60667	58.00
0.62333	58.00
0.64000	58.00
0.65667	58.00
0.67333	58.00
0.69000	58.00
0.70667	58.00
0.72333	58.00
0.74000	58.00
0.75667	58.00
0.77333	58.00
0.79000	58.00
0.80667	58.00
0.82333	58.00
0.84000	58.00
0.85667	58.00
0.87333	58.00
0.89000	58.00
0.90667	58.00
0.92333	58.00
0.94000	58.00
0.95667	58.00
0.97333	58.00
0.99000	58.00
1.00667	58.00
1.02333	58.00
1.04000	58.00
1.05667	58.00
1.07333	58.00
1.09000	58.00
1.10667	58.00
1.12333	58.00
1.14000	58.00
1.15667	58.00
1.17333	58.00
1.19000	58.00
1.20667	58.00
1.22333	58.00
1.24000	58.00
1.25667	58.00
1.27333	58.00
1.29000	58.00
1.30667	58.00
1.32333	58.00
1.34000	58.00
1.35667	58.00
1.37333	58.00
1.39000	58.00
1.40667	58.00
1.42333	58.00
1.44000	58.00
1.45667	58.00
1.47333	58.00
1.49000	58.00
1.50667	58.00
1.52333	58.00
1.54000	58.00
1.55667	58.00
1.57333	58.00
1.59000	58.00
1.60667	58.00
1.62333	58.01
1.64000	58.00
1.65667	58.00
1.67333	58.01
1.69000	58.00
1.70667	58.00
1.72333	58.00
1.74000	58.00
1.75667	58.00
1.77333	58.00
1.79000	58.00
1.80667	58.00
1.82333	58.00
1.84000	58.00
1.85667	58.00
1.87333	58.00
1.89000	58.00
1.90667	58.00
1.92333	58.00
1.94000	58.00
1.95667	58.00
1.97333	58.00
1.99000	58.00
2.00667	58.00
2.02333	58.00
2.04000	58.00
2.05667	58.00
2.07333	58.00
2.09000	58.00
2.10667	58.00
2.12333	58.00
2.14000	58.00
2.15667	58.00
2.17333	58.00
2.19000	58.00
2.20667	58.00
2.22333	58.00
2.24000	58.00
2.25667	58.00
2.27333	58.00
2.29000	58.00
2.30667	58.00
2.32333	58.00
2.34000	58.00
2.35667	58.00
2.37333	57.99
2.39000	57.99
2.40667	58.00
2.42333	58.00
2.44000	58.00
2.45667	58.00
2.47333	58.00
2.49000	58.00
2.50667	57.99
2.52333	57.99
2.54000	58.00
2.55667	58.00
2.57333	58.00
2.59000	58.00
2.60667	58.00
2.62333	58.00
2.64000	58.00
2.65667	58.00
2.67333	58.00
2.69000	58.00
2.70667	58.00
2.72333	58.00
2.74000	58.00
2.75667	58.00
2.77333	58.00
2.79000	58.00
2.80667	58.00
2.82333	58.00
2.84000	58.00
2.85667	58.00
2.87333	58.00
2.89000	58.00
2.90667	58.00
2.92333	58.00
2.94000	58.00
2.95667	58.00
2.97333	58.00
2.99000	58.00
3.00667	58.00
3.02333	58.00
3.04000	58.00
3.05667	58.00
3.07333	58.00
3.09000	58.00
3.10667	58.00
3.12333	58.00
3.14000	58.00
3.15667	58.00
3.17333	58.00
3.19000	58.00
3.20667	58.00
3.22333	58.00
3.24000	58.00
3.25667	58.00
3.27333	58.00
3.29000	58.00
3.30667	58.00
3.32333	58.00
3.34000	58.00
3.35667	58.00
3.37333	58.00
3.39000	58.00
3.40667	58.00
3.42333	58.00
3.44000	58.00
3.45667	58.00
3.47333	58.00
3.49000	58.00
3.50667	58.00
3.52333	58.00
3.54000	58.00
3.55667	58.00
3.57333	58.00
3.59000	58.00
3.60667	58.00
3.62333	58.00
3.64000	58.00
3.65667	58.00
3.67333	58.00
3.69000	58.00
3.70667	58.00
3.72333	58.00
3.74000	58.00
3.75667	58.00
3.77333	58.00
3.79000	58.00
3.80667	58.00
3.82333	58.00
3.84000	58.00
3.85667	58.00
3.87333	58.00
3.89000	58.00
3.90667	58.00
3.92333	58.00
3.94000	58.00
3.95667	58.00
3.97333	58.00
3.99000	58.00

[Status Trace (Carrier Gas Flow)]
Interval(msec)	1000
# of Points	240
Start Time(min)	0.007
End Time(min)	3.990
Intensity Units	
Intensity Multiplier	1
R.Time (min)	Intensity
0.00667	34.53
0.02333	34.54
0.04000	34.54
0.05667	34.55
0.07333	34.50
0.09000	34.52
0.10667	34.52
0.12333	34.52
0.14000	34.52
0.15667	34.52
0.17333	34.52
0.19000	34.52
0.20667	34.52
0.22333	34.51
0.24000	34.52
0.25667	34.52
0.27333	34.52
0.29000	34.52
0.30667	34.53
0.32333	34.52
0.34000	34.52
0.35667	34.52
0.37333	34.52
0.39000	34.52
0.40667	34.52
0.42333	34.52
0.44000	34.53
0.45667	34.52
0.47333	34.52
0.49000	34.52
0.50667	34.52
0.52333	34.51
0.54000	34.52
0.55667	34.52
0.57333	34.51
0.59000	34.52
0.60667	34.51
0.62333	34.52
0.64000	34.52
0.65667	34.52
0.67333	34.52
0.69000	34.52
0.70667	34.52
0.72333	34.52
0.74000	34.52
0.75667	34.52
0.77333	34.52
0.79000	34.52
0.80667	34.52
0.82333	34.52
0.84000	34.52
0.85667	34.52
0.87333	34.52
0.89000	34.52
0.90667	34.52
0.92333	34.51
0.94000	34.52
0.95667	34.52
0.97333	34.52
0.99000	34.52
1.00667	34.52
1.02333	34.52
1.04000	34.52
1.05667	34.52
1.07333	34.52
1.09000	34.52
1.10667	34.52
1.12333	34.52
1.14000	34.52
1.15667	34.52
1.17333	34.52
1.19000	34.52
1.20667	34.52
1.22333	34.51
1.24000	34.51
1.25667	34.52
1.27333	34.52
1.29000	34.52
1.30667	34.52
1.32333	34.53
1.34000	34.52
1.35667	34.52
1.37333	34.52
1.39000	34.52
1.40667	34.52
1.42333	34.52
1.44000	34.52
1.45667	34.52
1.47333	34.52
1.49000	34.52
1.50667	34.52
1.52333	34.52
1.54000	34.52
1.55667	34.52
1.57333	34.52
1.59000	34.52
1.60667	34.51
1.62333	34.52
1.64000	34.52
1.65667	34.52
1.67333	34.51
1.69000	34.52
1.70667	34.52
1.72333	34.51
1.74000	34.52
1.75667	34.52
1.77333	34.52
1.79000	34.51
1.80667	34.51
1.82333	34.52
1.84000	34.52
1.85667	34.51
1.87333	34.52
1.89000	34.52
1.90667	34.52
1.92333	34.52
1.94000	34.53
1.95667	34.53
1.97333	34.52
1.99000	34.51
2.00667	34.52
2.02333	34.52
2.04000	34.51
2.05667	34.52
2.07333	34.52
2.09000	34.53
2.10667	34.52
2.12333	34.51
2.14000	34.52
2.15667	34.51
2.17333	34.52
2.19000	34.52
2.20667	34.52
2.22333	34.52
2.24000	34.51
2.25667	34.52
2.27333	34.52
2.29000	34.52
2.30667	34.51
2.32333	34.52
2.34000	34.52
2.35667	34.52
2.37333	34.51
2.39000	34.52
2.40667	34.53
2.42333	34.52
2.44000	34.52
2.45667	34.52
2.47333	34.52
2.49000	34.52
2.50667	34.47
2.52333	34.51
2.54000	34.52
2.55667	34.52
2.57333	34.52
2.59000	34.52
2.60667	34.52
2.62333	34.52
2.64000	34.52
2.65667	34.51
2.67333	34.52
2.69000	34.51
2.70667	34.52
2.72333	34.52
2.74000	34.52
2.75667	34.52
2.77333	34.51
2.79000	34.53
2.80667	34.51
2.82333	34.52
2.84000	34.52
2.85667	34.51
2.87333	34.52
2.89000	34.52
2.90667	34.52
2.92333	34.52
2.94000	34.52
2.95667	34.52
2.97333	34.52
2.99000	34.51
3.00667	34.52
3.02333	34.52
3.04000	34.52
3.05667	34.52
3.07333	34.51
3.09000	34.52
3.10667	34.52
3.12333	34.52
3.14000	34.51
3.15667	34.52
3.17333	34.52
3.19000	34.52
3.20667	34.52
3.22333	34.53
3.24000	34.52
3.25667	34.52
3.27333	34.52
3.29000	34.53
3.30667	34.52
3.32333	34.51
3.34000	34.52
3.35667	34.52
3.37333	34.52
3.39000	34.51
3.40667	34.52
3.42333	34.52
3.44000	34.52
3.45667	34.52
3.47333	34.52
3.49000	34.52
3.50667	34.52
3.52333	34.52
3.54000	34.53
3.55667	34.52
3.57333	34.52
3.59000	34.52
3.60667	34.52
3.62333	34.51
3.64000	34.52
3.65667	34.52
3.67333	34.52
3.69000	34.52
3.70667	34.52
3.72333	34.52
3.74000	34.52
3.75667	34.52
3.77333	34.52
3.79000	34.52
3.80667	34.52
3.82333	34.52
3.84000	34.52
3.85667	34.52
3.87333	34.52
3.89000	34.52
3.90667	34.52
3.92333	34.52
3.94000	34.52
3.95667	34.52
3.97333	34.52
3.99000	34.52

[Status Trace (Column Flow)]
Interval(msec)	1000
# of Points	240
Start Time(min)	0.007
End Time(min)	3.990
Intensity Units	
Intensity Multiplier	1
R.Time (min)	Intensity
0.00667	5.50
0.02333	5.21
0.04000	5.37
0.05667	5.61
0.07333	5.68
0.09000	5.51
0.10667	5.49
0.12333	5.50
0.14000	5.50
0.15667	5.50
0.17333	5.50
0.19000	5.49
0.20667	5.49
0.22333	5.49
0.24000	5.49
0.25667	5.49
0.27333	5.49
0.29000	5.49
0.30667	5.49
0.32333	5.49
0.34000	5.49
0.35667	5.49
0.37333	5.49
0.39000	5.49
0.40667	5.49
0.42333	5.49
0.44000	5.49
0.45667	5.49
0.47333	5.50
0.49000	5.50
0.50667	5.50
0.52333	5.50
0.54000	5.50
0.55667	5.50
0.57333	5.50
0.59000	5.50
0.60667	5.50
0.62333	5.50
0.64000	5.50
0.65667	5.50
0.67333	5.50
0.69000	5.50
0.70667	5.49
0.72333	5.49
0.74000	5.49
0.75667	5.49
0.77333	5.50
0.79000	5.50
0.80667	5.50
0.82333	5.50
0.84000	5.50
0.85667	5.50
0.87333	5.50
0.89000	5.50
0.90667	5.50
0.92333	5.50
0.94000	5.50
0.95667	5.50
0.97333	5.50
0.99000	5.50
1.00667	5.50
1.02333	5.50
1.04000	5.50
1.05667	5.50
1.07333	5.50
1.09000	5.50
1.10667	5.50
1.12333	5.50
1.14000	5.50
1.15667	5.50
1.17333	5.50
1.19000	5.50
1.20667	5.50
1.22333	5.50
1.24000	5.50
1.25667	5.50
1.27333	5.50
1.29000	5.50
1.30667	5.50
1.32333	5.50
1.34000	5.50
1.35667	5.50
1.37333	5.50
1.39000	5.50
1.40667	5.50
1.42333	5.50
1.44000	5.50
1.45667	5.50
1.47333	5.50
1.49000	5.50
1.50667	5.50
1.52333	5.50
1.54000	5.50
1.55667	5.50
1.57333	5.50
1.59000	5.50
1.60667	5.50
1.62333	5.49
1.64000	5.49
1.65667	5.48
1.67333	5.47
1.69000	5.46
1.70667	5.45
1.72333	5.43
1.74000	5.43
1.75667	5.41
1.77333	5.40
1.79000	5.39
1.80667	5.38
1.82333	5.37
1.84000	5.36
1.85667	5.35
1.87333	5.34
1.89000	5.33
1.90667	5.32
1.92333	5.31
1.94000	5.31
1.95667	5.30
1.97333	5.29
1.99000	5.28
2.00667	5.27
2.02333	5.26
2.04000	5.25
2.05667	5.24
2.07333	5.23
2.09000	5.22
2.10667	5.21
2.12333	5.20
2.14000	5.19
2.15667	5.18
2.17333	5.17
2.19000	5.16
2.20667	5.15
2.22333	5.14
2.24000	5.13
2.25667	5.13
2.27333	5.12
2.29000	5.11
2.30667	5.10
2.32333	5.09
2.34000	5.08
2.35667	5.07
2.37333	5.07
2.39000	5.07
2.40667	5.07
2.42333	5.07
2.44000	5.06
2.45667	5.06
2.47333	5.06
2.49000	5.06
2.50667	5.06
2.52333	5.06
2.54000	5.06
2.55667	5.06
2.57333	5.06
2.59000	5.06
2.60667	5.06
2.62333	5.06
2.64000	5.06
2.65667	5.06
2.67333	5.06
2.69000	5.06
2.70667	5.06
2.72333	5.06
2.74000	5.06
2.75667	5.06
2.77333	5.06
2.79000	5.06
2.80667	5.06
2.82333	5.06
2.84000	5.06
2.85667	5.06
2.87333	5.06
2.89000	5.06
2.90667	5.06
2.92333	5.06
2.94000	5.06
2.95667	5.06
2.97333	5.06
2.99000	5.06
3.00667	5.06
3.02333	5.06
3.04000	5.05
3.05667	5.05
3.07333	5.05
3.09000	5.05
3.10667	5.05
3.12333	5.05
3.14000	5.05
3.15667	5.05
3.17333	5.05
3.19000	5.05
3.20667	5.05
3.22333	5.05
3.24000	5.05
3.25667	5.05
3.27333	5.05
3.29000	5.05
3.30667	5.05
3.32333	5.05
3.34000	5.05
3.35667	5.05
3.37333	5.05
3.39000	5.05
3.40667	5.05
3.42333	5.05
3.44000	5.05
3.45667	5.05
3.47333	5.05
3.49000	5.05
3.50667	5.05
3.52333	5.05
3.54000	5.05
3.55667	5.05
3.57333	5.05
3.59000	5.05
3.60667	5.05
3.62333	5.05
3.64000	5.05
3.65667	5.05
3.67333	5.05
3.69000	5.05
3.70667	5.05
3.72333	5.05
3.74000	5.05
3.75667	5.05
3.77333	5.05
3.79000	5.05
3.80667	5.05
3.82333	5.05
3.84000	5.05
3.85667	5.05
3.87333	5.05
3.89000	5.05
3.90667	5.05
3.92333	5.05
3.94000	5.05
3.95667	5.05
3.97333	5.05
3.99000	5.05

[Status Trace (Linear Velocity)]
Interval(msec)	1000
# of Points	240
Start Time(min)	0.007
End Time(min)	3.990
Intensity Units	
Intensity Multiplier	1
R.Time (min)	Intensity
0.00667	39.01
0.02333	37.41
0.04000	38.31
0.05667	39.67
0.07333	40.07
0.09000	39.08
0.10667	38.99
0.12333	39.01
0.14000	39.01
0.15667	39.01
0.17333	39.01
0.19000	39.01
0.20667	39.00
0.22333	39.00
0.24000	39.00
0.25667	39.00
0.27333	39.00
0.29000	39.01
0.30667	39.00
0.32333	39.00
0.34000	39.00
0.35667	39.00
0.37333	39.00
0.39000	39.00
0.40667	39.00
0.42333	39.00
0.44000	39.00
0.45667	39.01
0.47333	39.01
0.49000	39.01
0.50667	39.01
0.52333	39.01
0.54000	39.01
0.55667	39.01
0.57333	39.02
0.59000	39.02
0.60667	39.02
0.62333	39.02
0.64000	39.02
0.65667	39.01
0.67333	39.01
0.69000	39.01
0.70667	39.01
0.72333	39.01
0.74000	39.01
0.75667	39.01
0.77333	39.01
0.79000	39.01
0.80667	39.01
0.82333	39.01
0.84000	39.01
0.85667	39.01
0.87333	39.01
0.89000	39.02
0.90667	39.02
0.92333	39.02
0.94000	39.02
0.95667	39.02
0.97333	39.01
0.99000	39.01
1.00667	39.01
1.02333	39.01
1.04000	39.01
1.05667	39.01
1.07333	39.01
1.09000	39.01
1.10667	39.01
1.12333	39.01
1.14000	39.01
1.15667	39.01
1.17333	39.01
1.19000	39.01
1.20667	39.01
1.22333	39.01
1.24000	39.01
1.25667	39.01
1.27333	39.01
1.29000	39.01
1.30667	39.01
1.32333	39.01
1.34000	39.01
1.35667	39.01
1.37333	39.01
1.39000	39.01
1.40667	39.01
1.42333	39.01
1.44000	39.01
1.45667	39.01
1.47333	39.02
1.49000	39.01
1.50667	39.01
1.52333	39.01
1.54000	39.01
1.55667	39.01
1.57333	39.01
1.59000	39.01
1.60667	39.01
1.62333	39.00
1.64000	38.98
1.65667	38.96
1.67333	38.93
1.69000	38.89
1.70667	38.85
1.72333	38.82
1.74000	38.79
1.75667	38.76
1.77333	38.73
1.79000	38.70
1.80667	38.67
1.82333	38.63
1.84000	38.60
1.85667	38.57
1.87333	38.54
1.89000	38.51
1.90667	38.48
1.92333	38.45
1.94000	38.42
1.95667	38.39
1.97333	38.36
1.99000	38.33
2.00667	38.30
2.02333	38.27
2.04000	38.24
2.05667	38.21
2.07333	38.18
2.09000	38.15
2.10667	38.12
2.12333	38.09
2.14000	38.06
2.15667	38.03
2.17333	38.00
2.19000	37.97
2.20667	37.94
2.22333	37.91
2.24000	37.88
2.25667	37.85
2.27333	37.82
2.29000	37.79
2.30667	37.76
2.32333	37.74
2.34000	37.71
2.35667	37.68
2.37333	37.66
2.39000	37.66
2.40667	37.66
2.42333	37.66
2.44000	37.66
2.45667	37.66
2.47333	37.66
2.49000	37.66
2.50667	37.65
2.52333	37.65
2.54000	37.65
2.55667	37.65
2.57333	37.65
2.59000	37.65
2.60667	37.65
2.62333	37.64
2.64000	37.64
2.65667	37.64
2.67333	37.64
2.69000	37.64
2.70667	37.64
2.72333	37.64
2.74000	37.64
2.75667	37.64
2.77333	37.64
2.79000	37.64
2.80667	37.64
2.82333	37.64
2.84000	37.63
2.85667	37.63
2.87333	37.63
2.89000	37.63
2.90667	37.63
2.92333	37.63
2.94000	37.63
2.95667	37.63
2.97333	37.63
2.99000	37.63
3.00667	37.63
3.02333	37.63
3.04000	37.62
3.05667	37.62
3.07333	37.62
3.09000	37.62
3.10667	37.62
3.12333	37.62
3.14000	37.62
3.15667	37.62
3.17333	37.62
3.19000	37.62
3.20667	37.62
3.22333	37.62
3.24000	37.62
3.25667	37.62
3.27333	37.62
3.29000	37.62
3.30667	37.62
3.32333	37.62
3.34000	37.62
3.35667	37.62
3.37333	37.62
3.39000	37.62
3.40667	37.62
3.42333	37.62
3.44000	37.62
3.45667	37.62
3.47333	37.62
3.49000	37.62
3.50667	37.62
3.52333	37.62
3.54000	37.62
3.55667	37.62
3.57333	37.62
3.59000	37.62
3.60667	37.62
3.62333	37.62
3.64000	37.62
3.65667	37.62
3.67333	37.62
3.69000	37.62
3.70667	37.62
3.72333	37.62
3.74000	37.62
3.75667	37.62
3.77333	37.62
3.79000	37.62
3.80667	37.62
3.82333	37.62
3.84000	37.62
3.85667	37.62
3.87333	37.62
3.89000	37.62
3.90667	37.62
3.92333	37.62
3.94000	37.62
3.95667	37.62
3.97333	37.62
3.99000	37.62

