[Header]
Application Name	LabSolutions
Version	5.110
Data File Name	C:\Users\User\Desktop\Junior\UIC Prairie Sampling\6.15.23\06152023_034.gcd
Output Date	6/26/2023
Output Time	12:05:09 PM

[File Information]
Type	Data File
Generated	6/23/2023 2:53:24 PM
Generated by	System Administrator
Modified	6/23/2023 3:00:41 PM
Modified by	System Administrator

[Sample Information]
Operator Name	System Administrator
Acquired	6/23/2023 2:56:40 PM
Sample Type	0:Unknown
Level	0
Sample Name	034
Sample ID	034
ISTD Amount1	1
ISTD Amount2	1
ISTD Amount3	1
ISTD Amount4	1
ISTD Amount5	1
ISTD Amount6	1
ISTD Amount7	1
ISTD Amount8	1
ISTD Amount9	1
ISTD Amount10	1
ISTD Amount11	1
ISTD Amount12	1
ISTD Amount13	1
ISTD Amount14	1
ISTD Amount15	1
ISTD Amount16	1
ISTD Amount17	1
ISTD Amount18	1
ISTD Amount19	1
ISTD Amount20	1
ISTD Amount21	1
ISTD Amount22	1
ISTD Amount23	1
ISTD Amount24	1
ISTD Amount25	1
ISTD Amount26	1
ISTD Amount27	1
ISTD Amount28	1
ISTD Amount29	1
ISTD Amount30	1
ISTD Amount31	1
ISTD Amount32	1
Sample Amount	1
Dilution Factor	1
Vial#	33
Injection Volume	1
Injection Count	1
Bar Code	

[Original Files]
Data File	C:\Users\User\Desktop\Junior\UIC Prairie Sampling\6.15.23\06152023_034.gcd
Method File	C:\LabSolutions\Data\GHG_4min_2022\ghg3_togas_w_acet_4 min_new_int.gcm
Batch File	C:\LabSolutions\Data\AutoSamplerTesting\06152023.gcb
Report Format File	c:\LabSolutions\System\DEFAULT.lsr

[File Description]


[Configuration]
Instrument Name	C0B7VH3-Instrument1
Instrument #	1
Line #	1
# of Detectors	3
Detector ID	DET#1	DET#2	DET#3
Detector Name	FID	PTCD	ECD
# of Channels	1	1	1

[Peak Table(Ch1)]
# of Peaks	3
Peak#	R.Time	I.Time	F.Time	Area	Height	A/H	Conc.	Mark	ID#	Name	k'	Plate #	Plate Ht.	Tailing	Resolution	Sep.Factor	Area Ratio	Height Ratio	Conc. %	Norm Conc.
1	1.490	1.468	1.523	701	274	2.561	0.000	   	1	CO	0.000	2166	69.263	0.000	0.000	0.000	0	0	0.000	0.000
2	1.564	1.523	1.648	20071	10025	2.002	97.851	 V 	2	CH4	0.049	11425	13.129	1.127	0.786	0.000	0	0	20.535	20.535
3	1.989	1.941	2.616	1964845	934474	2.103	378.662	   	3	CO2	0.335	17198	8.722	1.280	7.137	6.800	0	0	79.465	79.465

[Peak Table(Ch2)]
# of Peaks	0

[Peak Table(Ch3)]
# of Peaks	4
Peak#	R.Time	I.Time	F.Time	Area	Height	A/H	Conc.	Mark	ID#	Name	k'	Plate #	Plate Ht.	Tailing	Resolution	Sep.Factor	Area Ratio	Height Ratio	Conc. %	Norm Conc.
1	2.458	2.400	2.510	1145	406	2.821	0.000	   			0.000	11995	12.505	0.000	0.000	0.000	0	0	0.000	0.000
2	2.590	2.510	2.667	5944	852	6.978	0.000	 V 			0.054	1360	110.272	0.000	0.712	0.000	0	0	0.000	0.000
3	2.733	2.667	2.825	5767	671	8.596	0.085	 V 	1	N2O	0.112	158	947.492	0.000	0.249	2.083	0	0	7.276	7.276
4	2.887	2.825	3.877	73496	14758	4.980	1.087	 V 	1	N2O	0.175	12269	12.226	1.778	0.316	1.560	0	0	92.724	92.724

[Compound Results(Ch1)]
# of IDs	6
ID#	Name	R.Time	Area	Height	Conc.	Curve	3rd	2nd	1st	Constant	Area Ratio	Height Ratio	Conc. %	Norm Conc.
1	CO	1.490	701	274	0.000	Linear	0.000000e+00	0.000000e+00	0.000000e+00	0.000000e+00	0	0	0.000	0.000
2	CH4	1.564	20071	10025	97.851	Linear	0.000000e+00	0.000000e+00	2.051179e+002	0.000000e+00	0	0	20.535	20.535
3	CO2	1.989	1964845	934474	378.662	Linear	0.000000e+00	0.000000e+00	5.188919e+003	0.000000e+00	0	0	79.465	79.465
4	Ethylene	0.000	0	0	0.000	Linear	0.000000e+00	0.000000e+00	0.000000e+00	0.000000e+00	0	0	0.000	0.000
5	Acetylene	0.000	0	0	0.000	Linear	0.000000e+00	0.000000e+00	0.000000e+00	0.000000e+00	0	0	0.000	0.000
6	Ethane	0.000	0	0	0.000	Linear	0.000000e+00	0.000000e+00	0.000000e+00	0.000000e+00	0	0	0.000	0.000

[Compound Results(Ch2)]
# of IDs	5
ID#	Name	R.Time	Area	Height	Conc.	Curve	3rd	2nd	1st	Constant	Area Ratio	Height Ratio	Conc. %	Norm Conc.
1	Hydrogen	0.000	0	0	0.000	Linear	0.000000e+00	0.000000e+00	0.000000e+00	0.000000e+00	0	0	0.000	0.000
2	Oxygen	0.000	0	0	0.000	Linear	0.000000e+00	0.000000e+00	0.000000e+00	0.000000e+00	0	0	0.000	0.000
3	Nitrogen	0.000	0	0	0.000	Linear	0.000000e+00	0.000000e+00	0.000000e+00	0.000000e+00	0	0	0.000	0.000
4	Methane	0.000	0	0	0.000	Linear	0.000000e+00	0.000000e+00	0.000000e+00	0.000000e+00	0	0	0.000	0.000
5	Carbon Monoxide	0.000	0	0	0.000	Linear	0.000000e+00	0.000000e+00	0.000000e+00	0.000000e+00	0	0	0.000	0.000

[Compound Results(Ch3)]
# of IDs	2
ID#	Name	R.Time	Area	Height	Conc.	Curve	3rd	2nd	1st	Constant	Area Ratio	Height Ratio	Conc. %	Norm Conc.
1	N2O	2.887	79263	15429	1.173	Linear	0.000000e+00	0.000000e+00	6.759880e+004	0.000000e+00	0	0	100.000	100.000
2	SF6	0.000	0	0	0.000	Linear	0.000000e+00	0.000000e+00	0.000000e+00	0.000000e+00	0	0	0.000	0.000

[Group Results(Ch1)]
# of Groups	0

[Group Results(Ch2)]
# of Groups	0

[Group Results(Ch3)]
# of Groups	0

[Chromatogram (Ch1)]
Interval(msec)	220
# of Points	1091
Start Time(min)	0.002
End Time(min)	3.998
R.Time (min)	Intensity
0.00167	15
0.00533	14
0.00900	11
0.01267	9
0.01633	11
0.02000	18
0.02367	30
0.02733	40
0.03100	45
0.03467	44
0.03833	37
0.04200	30
0.04567	22
0.04933	15
0.05300	10
0.05667	8
0.06033	6
0.06400	3
0.06767	1
0.07133	0
0.07500	4
0.07867	8
0.08233	12
0.08600	17
0.08967	21
0.09333	23
0.09700	23
0.10067	22
0.10433	18
0.10800	15
0.11167	11
0.11533	5
0.11900	-3
0.12267	-11
0.12633	-13
0.13000	-10
0.13367	-6
0.13733	-1
0.14100	1
0.14467	-1
0.14833	-4
0.15200	-4
0.15567	-3
0.15933	-2
0.16300	-3
0.16667	-5
0.17033	-6
0.17400	-4
0.17767	1
0.18133	4
0.18500	8
0.18867	11
0.19233	9
0.19600	4
0.19967	-1
0.20333	-7
0.20700	-12
0.21067	-15
0.21433	-13
0.21800	-6
0.22167	-2
0.22533	-3
0.22900	-3
0.23267	-2
0.23633	2
0.24000	6
0.24367	9
0.24733	9
0.25100	8
0.25467	8
0.25833	11
0.26200	15
0.26567	18
0.26933	18
0.27300	19
0.27667	21
0.28033	21
0.28400	17
0.28767	7
0.29133	-4
0.29500	-14
0.29867	-20
0.30233	-23
0.30600	-24
0.30967	-21
0.31333	-13
0.31700	-2
0.32067	8
0.32433	9
0.32800	4
0.33167	-3
0.33533	-6
0.33900	-6
0.34267	-7
0.34633	-5
0.35000	-4
0.35367	-7
0.35733	-9
0.36100	-9
0.36467	-9
0.36833	-9
0.37200	-5
0.37567	0
0.37933	2
0.38300	-1
0.38667	-4
0.39033	-8
0.39400	-11
0.39767	-12
0.40133	-11
0.40500	-9
0.40867	-4
0.41233	0
0.41600	3
0.41967	3
0.42333	-1
0.42700	-5
0.43067	-6
0.43433	-4
0.43800	-3
0.44167	-4
0.44533	-2
0.44900	2
0.45267	8
0.45633	12
0.46000	15
0.46367	17
0.46733	17
0.47100	17
0.47467	18
0.47833	17
0.48200	12
0.48567	7
0.48933	2
0.49300	-5
0.49667	-13
0.50033	-17
0.50400	-21
0.50767	-24
0.51133	-23
0.51500	-15
0.51867	-6
0.52233	-4
0.52600	-6
0.52967	-7
0.53333	-5
0.53700	-4
0.54067	-7
0.54433	-10
0.54800	-10
0.55167	-6
0.55533	0
0.55900	5
0.56267	11
0.56633	18
0.57000	24
0.57367	27
0.57733	27
0.58100	20
0.58467	5
0.58833	-11
0.59200	-21
0.59567	-26
0.59933	-28
0.60300	-27
0.60667	-25
0.61033	-23
0.61400	-19
0.61767	-14
0.62133	-8
0.62500	-4
0.62867	-3
0.63233	-4
0.63600	-6
0.63967	-10
0.64333	-14
0.64700	-16
0.65067	-17
0.65433	-14
0.65800	-10
0.66167	-6
0.66533	-1
0.66900	3
0.67267	7
0.67633	12
0.68000	14
0.68367	12
0.68733	9
0.69100	5
0.69467	-0
0.69833	-6
0.70200	-13
0.70567	-16
0.70933	-14
0.71300	-10
0.71667	-8
0.72033	-12
0.72400	-20
0.72767	-25
0.73133	-25
0.73500	-22
0.73867	-19
0.74233	-15
0.74600	-8
0.74967	1
0.75333	7
0.75700	9
0.76067	9
0.76433	7
0.76800	4
0.77167	-3
0.77533	-11
0.77900	-20
0.78267	-28
0.78633	-33
0.79000	-36
0.79367	-35
0.79733	-32
0.80100	-30
0.80467	-28
0.80833	-23
0.81200	-15
0.81567	-7
0.81933	-5
0.82300	-5
0.82667	-4
0.83033	-1
0.83400	4
0.83767	7
0.84133	3
0.84500	-6
0.84867	-15
0.85233	-23
0.85600	-28
0.85967	-29
0.86333	-29
0.86700	-27
0.87067	-22
0.87433	-15
0.87800	-6
0.88167	-3
0.88533	-2
0.88900	1
0.89267	0
0.89633	-4
0.90000	-11
0.90367	-15
0.90733	-16
0.91100	-16
0.91467	-16
0.91833	-18
0.92200	-21
0.92567	-24
0.92933	-26
0.93300	-25
0.93667	-22
0.94033	-18
0.94400	-15
0.94767	-16
0.95133	-17
0.95500	-18
0.95867	-21
0.96233	-21
0.96600	-19
0.96967	-16
0.97333	-15
0.97700	-11
0.98067	-7
0.98433	-5
0.98800	-8
0.99167	-14
0.99533	-17
0.99900	-16
1.00267	-9
1.00633	-2
1.01000	2
1.01367	2
1.01733	-3
1.02100	-8
1.02467	-13
1.02833	-23
1.03200	-35
1.03567	-43
1.03933	-46
1.04300	-43
1.04667	-38
1.05033	-30
1.05400	-21
1.05767	-12
1.06133	-3
1.06500	1
1.06867	-0
1.07233	-4
1.07600	-8
1.07967	-9
1.08333	-7
1.08700	-6
1.09067	-8
1.09433	-13
1.09800	-19
1.10167	-26
1.10533	-34
1.10900	-40
1.11267	-47
1.11633	-49
1.12000	-51
1.12367	-52
1.12733	-49
1.13100	-43
1.13467	-36
1.13833	-27
1.14200	-19
1.14567	-15
1.14933	-14
1.15300	-12
1.15667	-12
1.16033	-12
1.16400	-9
1.16767	-6
1.17133	-5
1.17500	-5
1.17867	-7
1.18233	-13
1.18600	-21
1.18967	-26
1.19333	-26
1.19700	-24
1.20067	-21
1.20433	-21
1.20800	-19
1.21167	-17
1.21533	-19
1.21900	-22
1.22267	-27
1.22633	-30
1.23000	-31
1.23367	-30
1.23733	-27
1.24100	-22
1.24467	-19
1.24833	-17
1.25200	-17
1.25567	-20
1.25933	-23
1.26300	-26
1.26667	-27
1.27033	-30
1.27400	-34
1.27767	-35
1.28133	-32
1.28500	-29
1.28867	-28
1.29233	-29
1.29600	-28
1.29967	-29
1.30333	-30
1.30700	-30
1.31067	-29
1.31433	-30
1.31800	-27
1.32167	-21
1.32533	-16
1.32900	-16
1.33267	-22
1.33633	-29
1.34000	-32
1.34367	-31
1.34733	-31
1.35100	-33
1.35467	-35
1.35833	-36
1.36200	-32
1.36567	-29
1.36933	-31
1.37300	-35
1.37667	-40
1.38033	-41
1.38400	-41
1.38767	-42
1.39133	-44
1.39500	-44
1.39867	-42
1.40233	-40
1.40600	-39
1.40967	-37
1.41333	-36
1.41700	-35
1.42067	-35
1.42433	-35
1.42800	-34
1.43167	-27
1.43533	-14
1.43900	-2
1.44267	-26
1.44633	-99
1.45000	-187
1.45367	-263
1.45733	-321
1.46100	-352
1.46467	-345
1.46833	-301
1.47200	-230
1.47567	-151
1.47933	-84
1.48300	-38
1.48667	-10
1.49033	6
1.49400	10
1.49767	7
1.50133	3
1.50500	-2
1.50867	-8
1.51233	-12
1.51600	-16
1.51967	-20
1.52333	-23
1.52700	-17
1.53067	27
1.53433	246
1.53800	913
1.54167	2243
1.54533	4104
1.54900	6084
1.55267	7815
1.55633	9104
1.56000	9835
1.56367	9868
1.56733	9135
1.57100	7787
1.57467	6153
1.57833	4566
1.58200	3230
1.58567	2208
1.58933	1470
1.59300	958
1.59667	612
1.60033	384
1.60400	236
1.60767	140
1.61133	79
1.61500	38
1.61867	10
1.62233	-8
1.62600	-21
1.62967	-30
1.63333	-36
1.63700	-38
1.64067	-38
1.64433	-34
1.64800	-31
1.65167	-30
1.65533	-33
1.65900	-37
1.66267	-40
1.66633	-42
1.67000	-44
1.67367	-48
1.67733	-54
1.68100	-60
1.68467	-64
1.68833	-64
1.69200	-62
1.69567	-59
1.69933	-55
1.70300	-51
1.70667	-47
1.71033	-47
1.71400	-49
1.71767	-54
1.72133	-58
1.72500	-55
1.72867	-49
1.73233	-42
1.73600	-37
1.73967	-29
1.74333	-18
1.74700	-10
1.75067	-9
1.75433	-18
1.75800	-33
1.76167	-48
1.76533	-57
1.76900	-63
1.77267	-68
1.77633	-71
1.78000	-70
1.78367	-66
1.78733	-60
1.79100	-52
1.79467	-42
1.79833	-36
1.80200	-33
1.80567	-34
1.80933	-38
1.81300	-42
1.81667	-45
1.82033	-47
1.82400	-49
1.82767	-50
1.83133	-49
1.83500	-47
1.83867	-45
1.84233	-43
1.84600	-43
1.84967	-44
1.85333	-44
1.85700	-42
1.86067	-42
1.86433	-44
1.86800	-44
1.87167	-42
1.87533	-39
1.87900	-37
1.88267	-35
1.88633	-33
1.89000	-29
1.89367	-29
1.89733	-31
1.90100	-32
1.90467	-37
1.90833	-46
1.91200	-50
1.91567	-51
1.91933	-53
1.92300	-58
1.92667	-64
1.93033	-67
1.93400	-65
1.93767	-60
1.94133	-57
1.94500	-34
1.94867	137
1.95233	1149
1.95600	5813
1.95967	21964
1.96333	64613
1.96700	151366
1.97067	289109
1.97433	463165
1.97800	642759
1.98167	795363
1.98533	897212
1.98900	934446
1.99267	904145
1.99633	816259
2.00000	691018
2.00367	552283
2.00733	420630
2.01100	308678
2.01467	220800
2.01833	155674
2.02200	109303
2.02567	77150
2.02933	55208
2.03300	40343
2.03667	30271
2.04033	23400
2.04400	18648
2.04767	15297
2.05133	12879
2.05500	11090
2.05867	9734
2.06233	8683
2.06600	7846
2.06967	7163
2.07333	6595
2.07700	6117
2.08067	5704
2.08433	5346
2.08800	5029
2.09167	4749
2.09533	4498
2.09900	4273
2.10267	4068
2.10633	3878
2.11000	3702
2.11367	3538
2.11733	3386
2.12100	3252
2.12467	3131
2.12833	3015
2.13200	2901
2.13567	2788
2.13933	2680
2.14300	2580
2.14667	2488
2.15033	2406
2.15400	2332
2.15767	2265
2.16133	2202
2.16500	2137
2.16867	2070
2.17233	2009
2.17600	1952
2.17967	1898
2.18333	1850
2.18700	1803
2.19067	1760
2.19433	1718
2.19800	1675
2.20167	1632
2.20533	1591
2.20900	1556
2.21267	1526
2.21633	1499
2.22000	1468
2.22367	1432
2.22733	1392
2.23100	1351
2.23467	1313
2.23833	1277
2.24200	1246
2.24567	1219
2.24933	1196
2.25300	1176
2.25667	1157
2.26033	1140
2.26400	1125
2.26767	1112
2.27133	1095
2.27500	1074
2.27867	1052
2.28233	1033
2.28600	1019
2.28967	1009
2.29333	993
2.29700	971
2.30067	947
2.30433	926
2.30800	906
2.31167	890
2.31533	877
2.31900	870
2.32267	863
2.32633	854
2.33000	841
2.33367	828
2.33733	815
2.34100	802
2.34467	790
2.34833	777
2.35200	765
2.35567	755
2.35933	745
2.36300	734
2.36667	724
2.37033	714
2.37400	704
2.37767	697
2.38133	694
2.38500	690
2.38867	685
2.39233	680
2.39600	678
2.39967	676
2.40333	668
2.40700	653
2.41067	637
2.41433	624
2.41800	614
2.42167	606
2.42533	598
2.42900	589
2.43267	580
2.43633	575
2.44000	575
2.44367	579
2.44733	582
2.45100	576
2.45467	565
2.45833	549
2.46200	533
2.46567	520
2.46933	512
2.47300	511
2.47667	507
2.48033	502
2.48400	499
2.48767	495
2.49133	487
2.49500	476
2.49867	467
2.50233	463
2.50600	464
2.50967	471
2.51333	479
2.51700	484
2.52067	480
2.52433	468
2.52800	453
2.53167	438
2.53533	423
2.53900	411
2.54267	404
2.54633	399
2.55000	398
2.55367	400
2.55733	403
2.56100	408
2.56467	409
2.56833	409
2.57200	410
2.57567	407
2.57933	401
2.58300	396
2.58667	391
2.59033	386
2.59400	379
2.59767	373
2.60133	370
2.60500	374
2.60867	374
2.61233	369
2.61600	361
2.61967	355
2.62333	354
2.62700	356
2.63067	357
2.63433	358
2.63800	359
2.64167	359
2.64533	362
2.64900	363
2.65267	361
2.65633	359
2.66000	357
2.66367	353
2.66733	345
2.67100	337
2.67467	328
2.67833	321
2.68200	315
2.68567	309
2.68933	304
2.69300	303
2.69667	302
2.70033	303
2.70400	305
2.70767	303
2.71133	304
2.71500	308
2.71867	313
2.72233	315
2.72600	313
2.72967	311
2.73333	307
2.73700	307
2.74067	306
2.74433	302
2.74800	297
2.75167	294
2.75533	293
2.75900	295
2.76267	295
2.76633	294
2.77000	292
2.77367	291
2.77733	291
2.78100	291
2.78467	294
2.78833	297
2.79200	294
2.79567	288
2.79933	286
2.80300	288
2.80667	293
2.81033	298
2.81400	298
2.81767	296
2.82133	290
2.82500	282
2.82867	274
2.83233	268
2.83600	267
2.83967	269
2.84333	270
2.84700	268
2.85067	267
2.85433	268
2.85800	271
2.86167	276
2.86533	277
2.86900	269
2.87267	253
2.87633	235
2.88000	224
2.88367	220
2.88733	221
2.89100	222
2.89467	220
2.89833	216
2.90200	216
2.90567	222
2.90933	230
2.91300	237
2.91667	242
2.92033	244
2.92400	244
2.92767	241
2.93133	236
2.93500	230
2.93867	226
2.94233	223
2.94600	222
2.94967	222
2.95333	223
2.95700	225
2.96067	231
2.96433	236
2.96800	235
2.97167	230
2.97533	226
2.97900	227
2.98267	233
2.98633	238
2.99000	244
2.99367	248
2.99733	246
3.00100	239
3.00467	232
3.00833	222
3.01200	210
3.01567	198
3.01933	193
3.02300	191
3.02667	192
3.03033	195
3.03400	200
3.03767	204
3.04133	207
3.04500	209
3.04867	211
3.05233	212
3.05600	212
3.05967	211
3.06333	212
3.06700	214
3.07067	216
3.07433	219
3.07800	222
3.08167	226
3.08533	228
3.08900	228
3.09267	226
3.09633	223
3.10000	222
3.10367	221
3.10733	216
3.11100	209
3.11467	204
3.11833	200
3.12200	198
3.12567	194
3.12933	194
3.13300	195
3.13667	196
3.14033	193
3.14400	188
3.14767	183
3.15133	181
3.15500	183
3.15867	186
3.16233	193
3.16600	203
3.16967	212
3.17333	219
3.17700	219
3.18067	214
3.18433	206
3.18800	204
3.19167	204
3.19533	201
3.19900	190
3.20267	180
3.20633	176
3.21000	172
3.21367	172
3.21733	176
3.22100	182
3.22467	185
3.22833	187
3.23200	186
3.23567	184
3.23933	181
3.24300	178
3.24667	176
3.25033	177
3.25400	178
3.25767	180
3.26133	178
3.26500	175
3.26867	177
3.27233	182
3.27600	186
3.27967	184
3.28333	181
3.28700	181
3.29067	182
3.29433	183
3.29800	187
3.30167	187
3.30533	181
3.30900	176
3.31267	172
3.31633	168
3.32000	167
3.32367	167
3.32733	168
3.33100	171
3.33467	176
3.33833	179
3.34200	179
3.34567	182
3.34933	188
3.35300	190
3.35667	186
3.36033	178
3.36400	171
3.36767	169
3.37133	168
3.37500	168
3.37867	171
3.38233	172
3.38600	168
3.38967	161
3.39333	154
3.39700	148
3.40067	145
3.40433	144
3.40800	146
3.41167	150
3.41533	150
3.41900	144
3.42267	138
3.42633	135
3.43000	137
3.43367	145
3.43733	149
3.44100	147
3.44467	147
3.44833	153
3.45200	161
3.45567	166
3.45933	165
3.46300	159
3.46667	151
3.47033	143
3.47400	138
3.47767	137
3.48133	139
3.48500	139
3.48867	141
3.49233	146
3.49600	145
3.49967	144
3.50333	146
3.50700	148
3.51067	150
3.51433	152
3.51800	153
3.52167	154
3.52533	153
3.52900	149
3.53267	143
3.53633	137
3.54000	133
3.54367	133
3.54733	134
3.55100	132
3.55467	129
3.55833	129
3.56200	133
3.56567	138
3.56933	144
3.57300	146
3.57667	146
3.58033	144
3.58400	143
3.58767	144
3.59133	148
3.59500	158
3.59867	168
3.60233	172
3.60600	164
3.60967	147
3.61333	132
3.61700	123
3.62067	118
3.62433	116
3.62800	117
3.63167	115
3.63533	113
3.63900	116
3.64267	123
3.64633	128
3.65000	130
3.65367	132
3.65733	131
3.66100	128
3.66467	128
3.66833	128
3.67200	127
3.67567	122
3.67933	115
3.68300	112
3.68667	110
3.69033	111
3.69400	112
3.69767	114
3.70133	120
3.70500	127
3.70867	136
3.71233	145
3.71600	150
3.71967	148
3.72333	140
3.72700	129
3.73067	117
3.73433	107
3.73800	100
3.74167	93
3.74533	88
3.74900	88
3.75267	91
3.75633	98
3.76000	107
3.76367	116
3.76733	116
3.77100	109
3.77467	105
3.77833	105
3.78200	108
3.78567	110
3.78933	109
3.79300	108
3.79667	110
3.80033	109
3.80400	105
3.80767	100
3.81133	98
3.81500	96
3.81867	98
3.82233	102
3.82600	104
3.82967	107
3.83333	113
3.83700	118
3.84067	122
3.84433	123
3.84800	116
3.85167	108
3.85533	102
3.85900	100
3.86267	103
3.86633	106
3.87000	102
3.87367	95
3.87733	89
3.88100	86
3.88467	86
3.88833	88
3.89200	91
3.89567	96
3.89933	100
3.90300	102
3.90667	103
3.91033	102
3.91400	101
3.91767	100
3.92133	100
3.92500	103
3.92867	102
3.93233	100
3.93600	97
3.93967	95
3.94333	95
3.94700	93
3.95067	95
3.95433	102
3.95800	108
3.96167	110
3.96533	110
3.96900	107
3.97267	101
3.97633	96
3.98000	94
3.98367	90
3.98733	90
3.99100	95
3.99467	102
3.99833	108

[Chromatogram (Ch2)]
Interval(msec)	220
# of Points	1091
Start Time(min)	0.002
End Time(min)	3.998
R.Time (min)	Intensity
0.00167	-1
0.00533	-1
0.00900	-1
0.01267	-1
0.01633	-1
0.02000	-1
0.02367	-0
0.02733	-0
0.03100	-0
0.03467	0
0.03833	0
0.04200	-0
0.04567	-0
0.04933	-0
0.05300	-0
0.05667	-1
0.06033	-1
0.06400	-1
0.06767	-1
0.07133	-1
0.07500	-1
0.07867	-1
0.08233	-1
0.08600	-1
0.08967	-1
0.09333	-1
0.09700	-0
0.10067	0
0.10433	1
0.10800	1
0.11167	1
0.11533	2
0.11900	2
0.12267	2
0.12633	2
0.13000	2
0.13367	2
0.13733	2
0.14100	2
0.14467	2
0.14833	2
0.15200	2
0.15567	2
0.15933	2
0.16300	2
0.16667	2
0.17033	2
0.17400	1
0.17767	1
0.18133	1
0.18500	1
0.18867	1
0.19233	1
0.19600	0
0.19967	0
0.20333	-0
0.20700	-1
0.21067	-1
0.21433	-2
0.21800	-2
0.22167	-2
0.22533	-2
0.22900	-1
0.23267	-1
0.23633	-1
0.24000	-1
0.24367	-1
0.24733	-1
0.25100	-1
0.25467	-1
0.25833	-1
0.26200	-0
0.26567	-0
0.26933	-0
0.27300	-0
0.27667	0
0.28033	0
0.28400	0
0.28767	0
0.29133	0
0.29500	0
0.29867	0
0.30233	-0
0.30600	-1
0.30967	-1
0.31333	-2
0.31700	-2
0.32067	-2
0.32433	-2
0.32800	-2
0.33167	-2
0.33533	-2
0.33900	-1
0.34267	-1
0.34633	-1
0.35000	-0
0.35367	0
0.35733	1
0.36100	1
0.36467	1
0.36833	1
0.37200	1
0.37567	1
0.37933	2
0.38300	2
0.38667	1
0.39033	1
0.39400	1
0.39767	1
0.40133	1
0.40500	1
0.40867	0
0.41233	-0
0.41600	-1
0.41967	-1
0.42333	-1
0.42700	-1
0.43067	-1
0.43433	-2
0.43800	-2
0.44167	-2
0.44533	-2
0.44900	-2
0.45267	-2
0.45633	-2
0.46000	-2
0.46367	-2
0.46733	-2
0.47100	-2
0.47467	-2
0.47833	-2
0.48200	-2
0.48567	-2
0.48933	-2
0.49300	-2
0.49667	-2
0.50033	-2
0.50400	-2
0.50767	-2
0.51133	-1
0.51500	-1
0.51867	-1
0.52233	-1
0.52600	-1
0.52967	-1
0.53333	-1
0.53700	-1
0.54067	-1
0.54433	-1
0.54800	-1
0.55167	-1
0.55533	-0
0.55900	-0
0.56267	0
0.56633	0
0.57000	1
0.57367	1
0.57733	1
0.58100	1
0.58467	1
0.58833	1
0.59200	1
0.59567	1
0.59933	1
0.60300	1
0.60667	1
0.61033	1
0.61400	1
0.61767	1
0.62133	0
0.62500	-0
0.62867	-0
0.63233	-1
0.63600	-1
0.63967	-1
0.64333	-1
0.64700	-1
0.65067	-1
0.65433	-1
0.65800	-1
0.66167	-1
0.66533	-1
0.66900	-1
0.67267	-1
0.67633	-1
0.68000	-1
0.68367	-1
0.68733	-1
0.69100	-1
0.69467	-1
0.69833	-2
0.70200	-2
0.70567	-3
0.70933	-3
0.71300	-4
0.71667	-4
0.72033	-4
0.72400	-5
0.72767	-5
0.73133	-5
0.73500	-5
0.73867	-5
0.74233	-5
0.74600	-5
0.74967	-5
0.75333	-5
0.75700	-5
0.76067	-5
0.76433	-4
0.76800	-4
0.77167	-3
0.77533	-3
0.77900	-3
0.78267	-3
0.78633	-3
0.79000	-3
0.79367	-3
0.79733	-3
0.80100	-3
0.80467	-3
0.80833	-3
0.81200	-3
0.81567	-2
0.81933	-2
0.82300	-2
0.82667	-2
0.83033	-2
0.83400	-2
0.83767	-1
0.84133	-2
0.84500	-2
0.84867	-2
0.85233	-2
0.85600	-2
0.85967	-2
0.86333	-2
0.86700	-2
0.87067	-2
0.87433	-2
0.87800	-2
0.88167	-2
0.88533	-2
0.88900	-2
0.89267	-2
0.89633	-2
0.90000	-2
0.90367	-2
0.90733	-2
0.91100	-2
0.91467	-2
0.91833	-2
0.92200	-2
0.92567	-2
0.92933	-2
0.93300	-2
0.93667	-2
0.94033	-2
0.94400	-2
0.94767	-2
0.95133	-2
0.95500	-1
0.95867	-1
0.96233	-1
0.96600	-1
0.96967	-1
0.97333	-1
0.97700	-1
0.98067	-1
0.98433	-1
0.98800	-1
0.99167	-1
0.99533	-1
0.99900	-1
1.00267	-1
1.00633	-1
1.01000	-1
1.01367	-1
1.01733	-1
1.02100	-1
1.02467	-1
1.02833	-1
1.03200	-0
1.03567	-0
1.03933	0
1.04300	0
1.04667	0
1.05033	0
1.05400	0
1.05767	0
1.06133	-0
1.06500	-0
1.06867	-0
1.07233	-0
1.07600	-0
1.07967	-0
1.08333	-1
1.08700	-1
1.09067	-1
1.09433	-2
1.09800	-2
1.10167	-3
1.10533	-3
1.10900	-4
1.11267	-4
1.11633	-5
1.12000	-5
1.12367	-5
1.12733	-5
1.13100	-6
1.13467	-6
1.13833	-6
1.14200	-5
1.14567	-5
1.14933	-5
1.15300	-5
1.15667	-4
1.16033	-4
1.16400	-3
1.16767	-3
1.17133	-3
1.17500	-3
1.17867	-3
1.18233	-3
1.18600	-3
1.18967	-3
1.19333	-3
1.19700	-3
1.20067	-3
1.20433	-3
1.20800	-3
1.21167	-3
1.21533	-4
1.21900	-3
1.22267	-3
1.22633	-3
1.23000	-3
1.23367	-3
1.23733	-2
1.24100	-2
1.24467	-2
1.24833	-1
1.25200	-1
1.25567	-1
1.25933	-1
1.26300	-0
1.26667	-0
1.27033	-0
1.27400	-1
1.27767	-1
1.28133	-1
1.28500	-1
1.28867	-1
1.29233	-1
1.29600	-1
1.29967	-1
1.30333	-1
1.30700	-1
1.31067	-2
1.31433	-2
1.31800	-2
1.32167	-2
1.32533	-2
1.32900	-2
1.33267	-2
1.33633	-2
1.34000	-2
1.34367	-2
1.34733	-2
1.35100	-2
1.35467	-2
1.35833	-2
1.36200	-2
1.36567	-2
1.36933	-3
1.37300	-3
1.37667	-3
1.38033	-4
1.38400	-4
1.38767	-4
1.39133	-4
1.39500	-4
1.39867	-4
1.40233	-4
1.40600	-4
1.40967	-4
1.41333	-4
1.41700	-3
1.42067	-3
1.42433	-4
1.42800	-4
1.43167	-4
1.43533	-4
1.43900	-4
1.44267	-4
1.44633	-4
1.45000	-4
1.45367	-4
1.45733	-4
1.46100	-4
1.46467	-4
1.46833	-4
1.47200	-4
1.47567	-5
1.47933	-5
1.48300	-5
1.48667	-6
1.49033	-6
1.49400	-6
1.49767	-6
1.50133	-6
1.50500	-6
1.50867	-5
1.51233	-5
1.51600	-5
1.51967	-5
1.52333	-5
1.52700	-5
1.53067	-5
1.53433	-5
1.53800	-5
1.54167	-5
1.54533	-5
1.54900	-4
1.55267	-4
1.55633	-4
1.56000	-3
1.56367	-3
1.56733	-3
1.57100	-3
1.57467	-3
1.57833	-2
1.58200	-2
1.58567	-2
1.58933	-3
1.59300	-3
1.59667	-4
1.60033	-5
1.60400	-6
1.60767	-7
1.61133	-9
1.61500	-11
1.61867	-13
1.62233	-16
1.62600	-18
1.62967	-21
1.63333	-24
1.63700	-27
1.64067	-30
1.64433	-34
1.64800	-37
1.65167	-41
1.65533	-44
1.65900	-48
1.66267	-52
1.66633	-56
1.67000	-60
1.67367	-65
1.67733	-69
1.68100	-73
1.68467	-77
1.68833	-81
1.69200	-84
1.69567	-87
1.69933	-90
1.70300	-92
1.70667	-93
1.71033	-95
1.71400	-96
1.71767	-97
1.72133	-97
1.72500	-98
1.72867	-99
1.73233	-99
1.73600	-100
1.73967	-100
1.74333	-100
1.74700	-101
1.75067	-101
1.75433	-102
1.75800	-102
1.76167	-102
1.76533	-102
1.76900	-102
1.77267	-102
1.77633	-102
1.78000	-102
1.78367	-102
1.78733	-102
1.79100	-102
1.79467	-103
1.79833	-104
1.80200	-104
1.80567	-104
1.80933	-104
1.81300	-104
1.81667	-104
1.82033	-104
1.82400	-104
1.82767	-104
1.83133	-104
1.83500	-104
1.83867	-104
1.84233	-104
1.84600	-104
1.84967	-104
1.85333	-104
1.85700	-104
1.86067	-103
1.86433	-103
1.86800	-103
1.87167	-103
1.87533	-103
1.87900	-103
1.88267	-103
1.88633	-104
1.89000	-104
1.89367	-104
1.89733	-104
1.90100	-104
1.90467	-103
1.90833	-103
1.91200	-102
1.91567	-102
1.91933	-102
1.92300	-102
1.92667	-102
1.93033	-102
1.93400	-102
1.93767	-101
1.94133	-101
1.94500	-100
1.94867	-99
1.95233	-99
1.95600	-98
1.95967	-97
1.96333	-97
1.96700	-97
1.97067	-96
1.97433	-96
1.97800	-96
1.98167	-95
1.98533	-95
1.98900	-95
1.99267	-95
1.99633	-95
2.00000	-94
2.00367	-94
2.00733	-95
2.01100	-94
2.01467	-94
2.01833	-94
2.02200	-94
2.02567	-93
2.02933	-93
2.03300	-93
2.03667	-93
2.04033	-94
2.04400	-94
2.04767	-94
2.05133	-94
2.05500	-95
2.05867	-95
2.06233	-94
2.06600	-94
2.06967	-93
2.07333	-93
2.07700	-92
2.08067	-92
2.08433	-92
2.08800	-91
2.09167	-91
2.09533	-90
2.09900	-90
2.10267	-89
2.10633	-88
2.11000	-88
2.11367	-88
2.11733	-88
2.12100	-87
2.12467	-87
2.12833	-86
2.13200	-86
2.13567	-86
2.13933	-86
2.14300	-86
2.14667	-86
2.15033	-85
2.15400	-85
2.15767	-84
2.16133	-84
2.16500	-84
2.16867	-83
2.17233	-83
2.17600	-83
2.17967	-83
2.18333	-83
2.18700	-83
2.19067	-82
2.19433	-82
2.19800	-82
2.20167	-82
2.20533	-82
2.20900	-82
2.21267	-82
2.21633	-82
2.22000	-82
2.22367	-81
2.22733	-81
2.23100	-80
2.23467	-80
2.23833	-79
2.24200	-78
2.24567	-77
2.24933	-76
2.25300	-75
2.25667	-75
2.26033	-74
2.26400	-74
2.26767	-74
2.27133	-74
2.27500	-74
2.27867	-74
2.28233	-73
2.28600	-73
2.28967	-72
2.29333	-72
2.29700	-72
2.30067	-73
2.30433	-73
2.30800	-74
2.31167	-74
2.31533	-73
2.31900	-73
2.32267	-72
2.32633	-72
2.33000	-72
2.33367	-71
2.33733	-70
2.34100	-70
2.34467	-69
2.34833	-68
2.35200	-67
2.35567	-67
2.35933	-66
2.36300	-65
2.36667	-65
2.37033	-63
2.37400	-61
2.37767	-58
2.38133	-54
2.38500	-51
2.38867	-47
2.39233	-43
2.39600	-39
2.39967	-35
2.40333	-31
2.40700	-27
2.41067	-22
2.41433	-18
2.41800	-14
2.42167	-11
2.42533	-8
2.42900	-6
2.43267	-5
2.43633	-3
2.44000	-2
2.44367	-0
2.44733	1
2.45100	3
2.45467	4
2.45833	6
2.46200	7
2.46567	8
2.46933	9
2.47300	10
2.47667	10
2.48033	11
2.48400	11
2.48767	12
2.49133	12
2.49500	12
2.49867	12
2.50233	12
2.50600	12
2.50967	13
2.51333	13
2.51700	14
2.52067	14
2.52433	14
2.52800	14
2.53167	14
2.53533	14
2.53900	14
2.54267	13
2.54633	13
2.55000	13
2.55367	13
2.55733	13
2.56100	13
2.56467	14
2.56833	14
2.57200	15
2.57567	15
2.57933	16
2.58300	16
2.58667	17
2.59033	17
2.59400	18
2.59767	18
2.60133	19
2.60500	20
2.60867	20
2.61233	20
2.61600	20
2.61967	20
2.62333	19
2.62700	19
2.63067	19
2.63433	19
2.63800	19
2.64167	19
2.64533	20
2.64900	20
2.65267	21
2.65633	22
2.66000	22
2.66367	23
2.66733	24
2.67100	24
2.67467	24
2.67833	25
2.68200	25
2.68567	24
2.68933	24
2.69300	24
2.69667	24
2.70033	24
2.70400	24
2.70767	25
2.71133	25
2.71500	26
2.71867	26
2.72233	26
2.72600	27
2.72967	27
2.73333	27
2.73700	27
2.74067	28
2.74433	28
2.74800	28
2.75167	28
2.75533	28
2.75900	27
2.76267	27
2.76633	27
2.77000	27
2.77367	27
2.77733	26
2.78100	27
2.78467	27
2.78833	27
2.79200	27
2.79567	28
2.79933	28
2.80300	28
2.80667	28
2.81033	28
2.81400	28
2.81767	28
2.82133	28
2.82500	28
2.82867	28
2.83233	28
2.83600	28
2.83967	28
2.84333	28
2.84700	28
2.85067	28
2.85433	27
2.85800	26
2.86167	23
2.86533	17
2.86900	9
2.87267	-3
2.87633	-20
2.88000	-42
2.88367	-70
2.88733	-104
2.89100	-145
2.89467	-193
2.89833	-247
2.90200	-307
2.90567	-374
2.90933	-445
2.91300	-522
2.91667	-603
2.92033	-688
2.92400	-777
2.92767	-869
2.93133	-964
2.93500	-1062
2.93867	-1161
2.94233	-1263
2.94600	-1365
2.94967	-1460
2.95333	-1535
2.95700	-1577
2.96067	-1582
2.96433	-1548
2.96800	-1483
2.97167	-1395
2.97533	-1290
2.97900	-1177
2.98267	-1062
2.98633	-949
2.99000	-841
2.99367	-740
2.99733	-648
3.00100	-564
3.00467	-489
3.00833	-422
3.01200	-363
3.01567	-311
3.01933	-266
3.02300	-227
3.02667	-194
3.03033	-165
3.03400	-139
3.03767	-118
3.04133	-100
3.04500	-84
3.04867	-70
3.05233	-59
3.05600	-49
3.05967	-40
3.06333	-33
3.06700	-27
3.07067	-21
3.07433	-16
3.07800	-12
3.08167	-9
3.08533	-6
3.08900	-3
3.09267	-1
3.09633	1
3.10000	2
3.10367	3
3.10733	5
3.11100	6
3.11467	7
3.11833	8
3.12200	9
3.12567	10
3.12933	11
3.13300	12
3.13667	12
3.14033	13
3.14400	14
3.14767	14
3.15133	15
3.15500	15
3.15867	15
3.16233	16
3.16600	16
3.16967	16
3.17333	16
3.17700	17
3.18067	17
3.18433	18
3.18800	18
3.19167	18
3.19533	19
3.19900	19
3.20267	20
3.20633	20
3.21000	20
3.21367	21
3.21733	21
3.22100	21
3.22467	21
3.22833	21
3.23200	22
3.23567	22
3.23933	22
3.24300	22
3.24667	22
3.25033	22
3.25400	22
3.25767	22
3.26133	22
3.26500	23
3.26867	23
3.27233	23
3.27600	23
3.27967	23
3.28333	24
3.28700	24
3.29067	24
3.29433	25
3.29800	25
3.30167	25
3.30533	26
3.30900	26
3.31267	26
3.31633	27
3.32000	27
3.32367	27
3.32733	27
3.33100	27
3.33467	27
3.33833	28
3.34200	28
3.34567	28
3.34933	28
3.35300	28
3.35667	28
3.36033	28
3.36400	28
3.36767	28
3.37133	28
3.37500	28
3.37867	28
3.38233	28
3.38600	28
3.38967	28
3.39333	28
3.39700	28
3.40067	28
3.40433	28
3.40800	28
3.41167	28
3.41533	28
3.41900	28
3.42267	28
3.42633	28
3.43000	28
3.43367	28
3.43733	28
3.44100	28
3.44467	28
3.44833	29
3.45200	29
3.45567	29
3.45933	29
3.46300	29
3.46667	29
3.47033	29
3.47400	29
3.47767	29
3.48133	29
3.48500	29
3.48867	29
3.49233	29
3.49600	28
3.49967	28
3.50333	28
3.50700	28
3.51067	28
3.51433	28
3.51800	28
3.52167	27
3.52533	27
3.52900	27
3.53267	27
3.53633	27
3.54000	27
3.54367	27
3.54733	27
3.55100	27
3.55467	27
3.55833	27
3.56200	27
3.56567	27
3.56933	27
3.57300	27
3.57667	27
3.58033	27
3.58400	27
3.58767	27
3.59133	27
3.59500	27
3.59867	27
3.60233	27
3.60600	27
3.60967	27
3.61333	28
3.61700	28
3.62067	28
3.62433	28
3.62800	28
3.63167	28
3.63533	28
3.63900	28
3.64267	28
3.64633	28
3.65000	28
3.65367	28
3.65733	28
3.66100	27
3.66467	27
3.66833	27
3.67200	27
3.67567	27
3.67933	27
3.68300	28
3.68667	28
3.69033	28
3.69400	28
3.69767	28
3.70133	29
3.70500	29
3.70867	29
3.71233	29
3.71600	29
3.71967	29
3.72333	29
3.72700	29
3.73067	29
3.73433	29
3.73800	29
3.74167	28
3.74533	28
3.74900	28
3.75267	28
3.75633	27
3.76000	27
3.76367	27
3.76733	27
3.77100	27
3.77467	27
3.77833	27
3.78200	28
3.78567	28
3.78933	28
3.79300	28
3.79667	28
3.80033	28
3.80400	28
3.80767	28
3.81133	28
3.81500	28
3.81867	28
3.82233	28
3.82600	28
3.82967	27
3.83333	27
3.83700	27
3.84067	27
3.84433	27
3.84800	27
3.85167	27
3.85533	27
3.85900	27
3.86267	27
3.86633	27
3.87000	27
3.87367	27
3.87733	27
3.88100	27
3.88467	27
3.88833	28
3.89200	28
3.89567	28
3.89933	28
3.90300	28
3.90667	28
3.91033	28
3.91400	28
3.91767	28
3.92133	28
3.92500	28
3.92867	28
3.93233	28
3.93600	28
3.93967	28
3.94333	28
3.94700	28
3.95067	28
3.95433	28
3.95800	28
3.96167	28
3.96533	28
3.96900	28
3.97267	28
3.97633	28
3.98000	28
3.98367	28
3.98733	28
3.99100	28
3.99467	28
3.99833	28

[Chromatogram (Ch3)]
Interval(msec)	220
# of Points	1091
Start Time(min)	0.002
End Time(min)	3.998
R.Time (min)	Intensity
0.00167	-0
0.00533	-1
0.00900	-3
0.01267	-3
0.01633	-3
0.02000	-4
0.02367	-5
0.02733	-6
0.03100	-5
0.03467	-2
0.03833	-2
0.04200	-2
0.04567	-3
0.04933	-2
0.05300	-1
0.05667	-0
0.06033	1
0.06400	1
0.06767	-2
0.07133	-6
0.07500	-6
0.07867	-6
0.08233	-5
0.08600	-6
0.08967	-5
0.09333	-5
0.09700	-3
0.10067	-4
0.10433	-6
0.10800	-6
0.11167	-7
0.11533	-8
0.11900	-10
0.12267	-9
0.12633	-9
0.13000	-8
0.13367	-7
0.13733	-9
0.14100	-7
0.14467	-4
0.14833	-5
0.15200	-5
0.15567	-4
0.15933	-4
0.16300	-2
0.16667	-1
0.17033	-2
0.17400	-3
0.17767	-3
0.18133	-2
0.18500	-0
0.18867	1
0.19233	1
0.19600	1
0.19967	1
0.20333	2
0.20700	1
0.21067	-1
0.21433	-3
0.21800	-4
0.22167	-1
0.22533	1
0.22900	1
0.23267	-1
0.23633	-1
0.24000	-1
0.24367	-2
0.24733	-3
0.25100	-3
0.25467	-2
0.25833	-1
0.26200	-1
0.26567	-3
0.26933	-1
0.27300	-1
0.27667	0
0.28033	1
0.28400	1
0.28767	2
0.29133	3
0.29500	1
0.29867	-1
0.30233	-1
0.30600	0
0.30967	2
0.31333	2
0.31700	2
0.32067	3
0.32433	4
0.32800	4
0.33167	5
0.33533	6
0.33900	6
0.34267	6
0.34633	6
0.35000	5
0.35367	3
0.35733	0
0.36100	-1
0.36467	-2
0.36833	-2
0.37200	-1
0.37567	-0
0.37933	0
0.38300	-1
0.38667	0
0.39033	2
0.39400	1
0.39767	1
0.40133	3
0.40500	4
0.40867	4
0.41233	3
0.41600	2
0.41967	3
0.42333	5
0.42700	6
0.43067	6
0.43433	4
0.43800	2
0.44167	2
0.44533	1
0.44900	-0
0.45267	-1
0.45633	-2
0.46000	1
0.46367	2
0.46733	2
0.47100	3
0.47467	4
0.47833	6
0.48200	6
0.48567	5
0.48933	4
0.49300	3
0.49667	4
0.50033	5
0.50400	5
0.50767	5
0.51133	5
0.51500	5
0.51867	4
0.52233	3
0.52600	2
0.52967	3
0.53333	4
0.53700	4
0.54067	5
0.54433	7
0.54800	10
0.55167	12
0.55533	11
0.55900	9
0.56267	8
0.56633	7
0.57000	7
0.57367	8
0.57733	8
0.58100	7
0.58467	8
0.58833	9
0.59200	8
0.59567	6
0.59933	4
0.60300	4
0.60667	6
0.61033	7
0.61400	6
0.61767	4
0.62133	3
0.62500	3
0.62867	6
0.63233	7
0.63600	6
0.63967	4
0.64333	3
0.64700	3
0.65067	5
0.65433	4
0.65800	6
0.66167	5
0.66533	4
0.66900	4
0.67267	6
0.67633	9
0.68000	8
0.68367	6
0.68733	4
0.69100	2
0.69467	4
0.69833	7
0.70200	7
0.70567	8
0.70933	8
0.71300	6
0.71667	6
0.72033	6
0.72400	7
0.72767	10
0.73133	12
0.73500	14
0.73867	12
0.74233	12
0.74600	12
0.74967	11
0.75333	10
0.75700	10
0.76067	9
0.76433	10
0.76800	10
0.77167	10
0.77533	10
0.77900	8
0.78267	6
0.78633	8
0.79000	13
0.79367	16
0.79733	16
0.80100	15
0.80467	16
0.80833	16
0.81200	15
0.81567	13
0.81933	11
0.82300	11
0.82667	9
0.83033	8
0.83400	5
0.83767	5
0.84133	6
0.84500	7
0.84867	9
0.85233	12
0.85600	14
0.85967	15
0.86333	14
0.86700	14
0.87067	13
0.87433	13
0.87800	12
0.88167	11
0.88533	11
0.88900	12
0.89267	12
0.89633	12
0.90000	15
0.90367	14
0.90733	11
0.91100	10
0.91467	9
0.91833	9
0.92200	9
0.92567	10
0.92933	11
0.93300	10
0.93667	9
0.94033	10
0.94400	10
0.94767	10
0.95133	10
0.95500	11
0.95867	13
0.96233	15
0.96600	15
0.96967	14
0.97333	11
0.97700	9
0.98067	8
0.98433	10
0.98800	12
0.99167	13
0.99533	13
0.99900	12
1.00267	13
1.00633	15
1.01000	15
1.01367	16
1.01733	17
1.02100	17
1.02467	17
1.02833	18
1.03200	18
1.03567	18
1.03933	17
1.04300	17
1.04667	17
1.05033	15
1.05400	14
1.05767	16
1.06133	18
1.06500	17
1.06867	18
1.07233	18
1.07600	18
1.07967	19
1.08333	18
1.08700	18
1.09067	16
1.09433	13
1.09800	13
1.10167	12
1.10533	11
1.10900	11
1.11267	11
1.11633	10
1.12000	10
1.12367	11
1.12733	12
1.13100	11
1.13467	10
1.13833	11
1.14200	12
1.14567	13
1.14933	15
1.15300	14
1.15667	13
1.16033	12
1.16400	12
1.16767	12
1.17133	12
1.17500	12
1.17867	15
1.18233	17
1.18600	17
1.18967	16
1.19333	16
1.19700	16
1.20067	16
1.20433	15
1.20800	16
1.21167	17
1.21533	18
1.21900	18
1.22267	17
1.22633	16
1.23000	16
1.23367	18
1.23733	18
1.24100	16
1.24467	15
1.24833	14
1.25200	14
1.25567	15
1.25933	14
1.26300	15
1.26667	17
1.27033	16
1.27400	16
1.27767	16
1.28133	15
1.28500	14
1.28867	15
1.29233	15
1.29600	15
1.29967	16
1.30333	18
1.30700	18
1.31067	16
1.31433	15
1.31800	16
1.32167	16
1.32533	16
1.32900	16
1.33267	16
1.33633	15
1.34000	16
1.34367	17
1.34733	19
1.35100	19
1.35467	18
1.35833	19
1.36200	20
1.36567	19
1.36933	17
1.37300	15
1.37667	14
1.38033	13
1.38400	15
1.38767	16
1.39133	15
1.39500	16
1.39867	17
1.40233	18
1.40600	19
1.40967	18
1.41333	19
1.41700	20
1.42067	21
1.42433	19
1.42800	16
1.43167	13
1.43533	14
1.43900	16
1.44267	18
1.44633	20
1.45000	23
1.45367	21
1.45733	21
1.46100	21
1.46467	23
1.46833	24
1.47200	25
1.47567	24
1.47933	23
1.48300	24
1.48667	26
1.49033	26
1.49400	26
1.49767	25
1.50133	24
1.50500	23
1.50867	21
1.51233	20
1.51600	20
1.51967	21
1.52333	20
1.52700	19
1.53067	19
1.53433	18
1.53800	19
1.54167	19
1.54533	17
1.54900	16
1.55267	17
1.55633	17
1.56000	17
1.56367	18
1.56733	18
1.57100	18
1.57467	20
1.57833	20
1.58200	18
1.58567	19
1.58933	21
1.59300	23
1.59667	25
1.60033	24
1.60400	23
1.60767	22
1.61133	22
1.61500	22
1.61867	22
1.62233	22
1.62600	24
1.62967	25
1.63333	25
1.63700	24
1.64067	21
1.64433	20
1.64800	21
1.65167	21
1.65533	23
1.65900	26
1.66267	27
1.66633	28
1.67000	30
1.67367	30
1.67733	29
1.68100	28
1.68467	28
1.68833	30
1.69200	32
1.69567	33
1.69933	34
1.70300	33
1.70667	33
1.71033	33
1.71400	32
1.71767	34
1.72133	34
1.72500	31
1.72867	29
1.73233	29
1.73600	29
1.73967	30
1.74333	33
1.74700	35
1.75067	36
1.75433	36
1.75800	36
1.76167	34
1.76533	32
1.76900	30
1.77267	29
1.77633	30
1.78000	33
1.78367	37
1.78733	40
1.79100	42
1.79467	44
1.79833	45
1.80200	45
1.80567	43
1.80933	40
1.81300	37
1.81667	38
1.82033	41
1.82400	43
1.82767	44
1.83133	46
1.83500	48
1.83867	49
1.84233	48
1.84600	46
1.84967	45
1.85333	46
1.85700	49
1.86067	51
1.86433	50
1.86800	49
1.87167	48
1.87533	48
1.87900	48
1.88267	48
1.88633	48
1.89000	48
1.89367	49
1.89733	52
1.90100	53
1.90467	54
1.90833	55
1.91200	54
1.91567	53
1.91933	52
1.92300	50
1.92667	50
1.93033	52
1.93400	54
1.93767	56
1.94133	58
1.94500	60
1.94867	60
1.95233	61
1.95600	63
1.95967	63
1.96333	63
1.96700	62
1.97067	63
1.97433	63
1.97800	63
1.98167	62
1.98533	63
1.98900	62
1.99267	65
1.99633	70
2.00000	77
2.00367	80
2.00733	80
2.01100	79
2.01467	79
2.01833	80
2.02200	83
2.02567	85
2.02933	87
2.03300	89
2.03667	91
2.04033	92
2.04400	92
2.04767	94
2.05133	95
2.05500	95
2.05867	95
2.06233	95
2.06600	95
2.06967	94
2.07333	95
2.07700	97
2.08067	97
2.08433	97
2.08800	98
2.09167	99
2.09533	98
2.09900	98
2.10267	99
2.10633	99
2.11000	98
2.11367	99
2.11733	100
2.12100	100
2.12467	100
2.12833	99
2.13200	98
2.13567	99
2.13933	101
2.14300	103
2.14667	104
2.15033	105
2.15400	105
2.15767	104
2.16133	102
2.16500	101
2.16867	102
2.17233	104
2.17600	106
2.17967	108
2.18333	110
2.18700	112
2.19067	112
2.19433	114
2.19800	117
2.20167	120
2.20533	118
2.20900	116
2.21267	117
2.21633	119
2.22000	121
2.22367	123
2.22733	124
2.23100	121
2.23467	118
2.23833	117
2.24200	120
2.24567	123
2.24933	123
2.25300	122
2.25667	122
2.26033	122
2.26400	123
2.26767	124
2.27133	125
2.27500	124
2.27867	126
2.28233	128
2.28600	130
2.28967	129
2.29333	128
2.29700	127
2.30067	127
2.30433	128
2.30800	128
2.31167	129
2.31533	131
2.31900	132
2.32267	131
2.32633	131
2.33000	133
2.33367	134
2.33733	133
2.34100	131
2.34467	129
2.34833	128
2.35200	129
2.35567	129
2.35933	131
2.36300	132
2.36667	132
2.37033	132
2.37400	132
2.37767	132
2.38133	132
2.38500	130
2.38867	129
2.39233	130
2.39600	133
2.39967	137
2.40333	142
2.40700	147
2.41067	149
2.41433	151
2.41800	151
2.42167	152
2.42533	152
2.42900	151
2.43267	151
2.43633	150
2.44000	160
2.44367	225
2.44733	340
2.45100	445
2.45467	524
2.45833	560
2.46200	559
2.46567	541
2.46933	521
2.47300	510
2.47667	502
2.48033	485
2.48400	459
2.48767	427
2.49133	397
2.49500	375
2.49867	356
2.50233	344
2.50600	339
2.50967	339
2.51333	347
2.51700	372
2.52067	418
2.52433	477
2.52800	538
2.53167	591
2.53533	631
2.53900	665
2.54267	695
2.54633	725
2.55000	756
2.55367	787
2.55733	818
2.56100	849
2.56467	882
2.56833	917
2.57200	950
2.57567	979
2.57933	1004
2.58300	1024
2.58667	1039
2.59033	1044
2.59400	1042
2.59767	1034
2.60133	1018
2.60500	1000
2.60867	981
2.61233	963
2.61600	945
2.61967	928
2.62333	911
2.62700	896
2.63067	881
2.63433	867
2.63800	856
2.64167	848
2.64533	842
2.64900	835
2.65267	831
2.65633	827
2.66000	826
2.66367	828
2.66733	830
2.67100	831
2.67467	833
2.67833	835
2.68200	838
2.68567	843
2.68933	848
2.69300	852
2.69667	857
2.70033	864
2.70400	871
2.70767	878
2.71133	882
2.71500	885
2.71867	890
2.72233	896
2.72600	900
2.72967	902
2.73333	904
2.73700	903
2.74067	902
2.74433	899
2.74800	894
2.75167	887
2.75533	880
2.75900	871
2.76267	863
2.76633	855
2.77000	847
2.77367	837
2.77733	830
2.78100	826
2.78467	820
2.78833	812
2.79200	804
2.79567	797
2.79933	790
2.80300	786
2.80667	782
2.81033	779
2.81400	775
2.81767	771
2.82133	770
2.82500	770
2.82867	775
2.83233	799
2.83600	862
2.83967	1001
2.84333	1270
2.84700	1733
2.85067	2452
2.85433	3470
2.85800	4785
2.86167	6350
2.86533	8077
2.86900	9847
2.87267	11518
2.87633	12958
2.88000	14061
2.88367	14758
2.88733	15035
2.89100	14921
2.89467	14477
2.89833	13779
2.90200	12909
2.90567	11944
2.90933	10938
2.91300	9938
2.91667	8975
2.92033	8068
2.92400	7231
2.92767	6466
2.93133	5777
2.93500	5159
2.93867	4609
2.94233	4121
2.94600	3689
2.94967	3310
2.95333	2978
2.95700	2688
2.96067	2438
2.96433	2221
2.96800	2030
2.97167	1860
2.97533	1713
2.97900	1588
2.98267	1482
2.98633	1391
2.99000	1312
2.99367	1245
2.99733	1188
3.00100	1138
3.00467	1095
3.00833	1058
3.01200	1026
3.01567	999
3.01933	976
3.02300	957
3.02667	943
3.03033	930
3.03400	919
3.03767	908
3.04133	896
3.04500	887
3.04867	881
3.05233	877
3.05600	874
3.05967	873
3.06333	871
3.06700	869
3.07067	865
3.07433	860
3.07800	853
3.08167	850
3.08533	848
3.08900	848
3.09267	848
3.09633	848
3.10000	848
3.10367	847
3.10733	845
3.11100	844
3.11467	841
3.11833	837
3.12200	835
3.12567	833
3.12933	834
3.13300	832
3.13667	830
3.14033	829
3.14400	827
3.14767	826
3.15133	826
3.15500	826
3.15867	825
3.16233	826
3.16600	825
3.16967	824
3.17333	822
3.17700	822
3.18067	820
3.18433	818
3.18800	816
3.19167	814
3.19533	813
3.19900	812
3.20267	810
3.20633	810
3.21000	810
3.21367	808
3.21733	808
3.22100	806
3.22467	804
3.22833	801
3.23200	798
3.23567	796
3.23933	795
3.24300	795
3.24667	796
3.25033	797
3.25400	798
3.25767	797
3.26133	794
3.26500	791
3.26867	787
3.27233	784
3.27600	782
3.27967	780
3.28333	779
3.28700	779
3.29067	779
3.29433	777
3.29800	775
3.30167	775
3.30533	776
3.30900	776
3.31267	775
3.31633	771
3.32000	768
3.32367	764
3.32733	760
3.33100	756
3.33467	753
3.33833	751
3.34200	751
3.34567	751
3.34933	751
3.35300	752
3.35667	751
3.36033	750
3.36400	747
3.36767	742
3.37133	738
3.37500	736
3.37867	737
3.38233	736
3.38600	734
3.38967	731
3.39333	727
3.39700	725
3.40067	724
3.40433	723
3.40800	720
3.41167	716
3.41533	712
3.41900	708
3.42267	704
3.42633	702
3.43000	701
3.43367	701
3.43733	702
3.44100	702
3.44467	701
3.44833	700
3.45200	698
3.45567	697
3.45933	695
3.46300	693
3.46667	690
3.47033	689
3.47400	686
3.47767	685
3.48133	684
3.48500	680
3.48867	677
3.49233	674
3.49600	674
3.49967	674
3.50333	672
3.50700	669
3.51067	666
3.51433	663
3.51800	659
3.52167	658
3.52533	658
3.52900	657
3.53267	656
3.53633	655
3.54000	652
3.54367	648
3.54733	646
3.55100	645
3.55467	642
3.55833	640
3.56200	639
3.56567	637
3.56933	637
3.57300	637
3.57667	636
3.58033	635
3.58400	634
3.58767	633
3.59133	631
3.59500	629
3.59867	627
3.60233	626
3.60600	625
3.60967	623
3.61333	620
3.61700	620
3.62067	619
3.62433	617
3.62800	614
3.63167	612
3.63533	612
3.63900	612
3.64267	610
3.64633	609
3.65000	612
3.65367	612
3.65733	610
3.66100	609
3.66467	607
3.66833	604
3.67200	601
3.67567	600
3.67933	598
3.68300	595
3.68667	595
3.69033	596
3.69400	597
3.69767	599
3.70133	599
3.70500	596
3.70867	591
3.71233	588
3.71600	586
3.71967	588
3.72333	589
3.72700	591
3.73067	592
3.73433	593
3.73800	592
3.74167	591
3.74533	591
3.74900	590
3.75267	588
3.75633	585
3.76000	581
3.76367	578
3.76733	576
3.77100	576
3.77467	577
3.77833	577
3.78200	575
3.78567	574
3.78933	577
3.79300	580
3.79667	580
3.80033	579
3.80400	576
3.80767	574
3.81133	571
3.81500	570
3.81867	569
3.82233	568
3.82600	569
3.82967	569
3.83333	567
3.83700	567
3.84067	568
3.84433	569
3.84800	569
3.85167	566
3.85533	563
3.85900	560
3.86267	561
3.86633	564
3.87000	565
3.87367	562
3.87733	561
3.88100	559
3.88467	557
3.88833	555
3.89200	552
3.89567	551
3.89933	552
3.90300	553
3.90667	551
3.91033	549
3.91400	548
3.91767	548
3.92133	550
3.92500	550
3.92867	549
3.93233	546
3.93600	544
3.93967	545
3.94333	545
3.94700	545
3.95067	543
3.95433	541
3.95800	539
3.96167	538
3.96533	537
3.96900	536
3.97267	535
3.97633	532
3.98000	531
3.98367	532
3.98733	534
3.99100	536
3.99467	535
3.99833	532

[Status Trace (Column Oven Temperature)]
Interval(msec)	1000
# of Points	240
Start Time(min)	0.005
End Time(min)	3.988
Intensity Units	
Intensity Multiplier	1
R.Time (min)	Intensity
0.00515	35.07
0.02182	35.06
0.03848	35.07
0.05515	35.06
0.07182	35.07
0.08848	35.07
0.10515	35.07
0.12182	35.05
0.13848	35.05
0.15515	35.04
0.17182	35.03
0.18848	35.03
0.20515	35.05
0.22182	35.05
0.23848	35.05
0.25515	35.05
0.27182	35.05
0.28848	35.05
0.30515	35.06
0.32182	35.07
0.33848	35.06
0.35515	35.05
0.37182	35.03
0.38848	35.02
0.40515	35.03
0.42182	35.04
0.43848	35.04
0.45515	35.04
0.47182	35.04
0.48848	35.04
0.50515	35.05
0.52182	35.03
0.53848	35.02
0.55515	35.02
0.57182	35.01
0.58848	35.00
0.60515	34.99
0.62182	34.99
0.63848	34.98
0.65515	34.97
0.67182	34.96
0.68848	34.96
0.70515	34.99
0.72182	34.99
0.73848	35.00
0.75515	35.01
0.77182	35.00
0.78848	35.00
0.80515	35.01
0.82182	35.01
0.83848	35.00
0.85515	35.00
0.87182	35.00
0.88848	34.99
0.90515	35.00
0.92182	34.99
0.93848	34.99
0.95515	34.99
0.97182	34.98
0.98848	34.98
1.00515	34.97
1.02182	34.97
1.03848	34.96
1.05515	34.96
1.07182	34.95
1.08848	34.96
1.10515	34.98
1.12182	35.00
1.13848	34.99
1.15515	34.99
1.17182	35.00
1.18848	35.01
1.20515	35.02
1.22182	35.01
1.23848	35.00
1.25515	34.98
1.27182	34.99
1.28848	34.98
1.30515	34.97
1.32182	34.97
1.33848	34.96
1.35515	34.95
1.37182	34.96
1.38848	34.97
1.40515	34.97
1.42182	34.96
1.43848	34.97
1.45515	34.99
1.47182	35.00
1.48848	35.02
1.50515	35.02
1.52182	35.01
1.53848	35.00
1.55515	35.00
1.57182	35.00
1.58848	35.00
1.60515	35.05
1.62182	35.14
1.63848	35.32
1.65515	35.55
1.67182	35.87
1.68848	36.24
1.70515	36.60
1.72182	36.94
1.73848	37.28
1.75515	37.61
1.77182	37.94
1.78848	38.27
1.80515	38.60
1.82182	38.93
1.83848	39.26
1.85515	39.59
1.87182	39.92
1.88848	40.26
1.90515	40.59
1.92182	40.91
1.93848	41.25
1.95515	41.56
1.97182	41.88
1.98848	42.20
2.00515	42.52
2.02182	42.84
2.03848	43.16
2.05515	43.51
2.07182	43.83
2.08848	44.16
2.10515	44.49
2.12182	44.80
2.13848	45.14
2.15515	45.46
2.17182	45.80
2.18848	46.13
2.20515	46.44
2.22182	46.78
2.23848	47.10
2.25515	47.42
2.27182	47.75
2.28848	48.08
2.30515	48.44
2.32182	48.75
2.33848	49.07
2.35515	49.38
2.37182	49.62
2.38848	49.72
2.40515	49.73
2.42182	49.71
2.43848	49.72
2.45515	49.72
2.47182	49.72
2.48848	49.75
2.50515	49.76
2.52182	49.76
2.53848	49.78
2.55515	49.79
2.57182	49.79
2.58848	49.80
2.60515	49.80
2.62182	49.84
2.63848	49.85
2.65515	49.86
2.67182	49.84
2.68848	49.85
2.70515	49.86
2.72182	49.86
2.73848	49.85
2.75515	49.86
2.77182	49.87
2.78848	49.87
2.80515	49.86
2.82182	49.87
2.83848	49.88
2.85515	49.88
2.87182	49.89
2.88848	49.90
2.90515	49.92
2.92182	49.94
2.93848	49.95
2.95515	49.94
2.97182	49.95
2.98848	49.96
3.00515	49.98
3.02182	49.99
3.03848	50.00
3.05515	50.02
3.07182	50.02
3.08848	50.04
3.10515	50.05
3.12182	50.06
3.13848	50.06
3.15515	50.07
3.17182	50.07
3.18848	50.08
3.20515	50.08
3.22182	50.09
3.23848	50.09
3.25515	50.10
3.27182	50.10
3.28848	50.10
3.30515	50.10
3.32182	50.09
3.33848	50.08
3.35515	50.07
3.37182	50.07
3.38848	50.06
3.40515	50.06
3.42182	50.06
3.43848	50.05
3.45515	50.04
3.47182	50.04
3.48848	50.04
3.50515	50.04
3.52182	50.05
3.53848	50.06
3.55515	50.08
3.57182	50.08
3.58848	50.08
3.60515	50.08
3.62182	50.08
3.63848	50.09
3.65515	50.08
3.67182	50.08
3.68848	50.07
3.70515	50.07
3.72182	50.07
3.73848	50.07
3.75515	50.08
3.77182	50.08
3.78848	50.08
3.80515	50.07
3.82182	50.07
3.83848	50.07
3.85515	50.06
3.87182	50.06
3.88848	50.06
3.90515	50.06
3.92182	50.06
3.93848	50.07
3.95515	50.07
3.97182	50.07
3.98848	50.08

[Status Trace (Injection Unit Temperature)]
Interval(msec)	1000
# of Points	240
Start Time(min)	0.005
End Time(min)	3.988
Intensity Units	
Intensity Multiplier	1
R.Time (min)	Intensity
0.00515	99.98
0.02182	99.98
0.03848	99.98
0.05515	99.98
0.07182	99.98
0.08848	99.98
0.10515	99.98
0.12182	99.98
0.13848	99.98
0.15515	99.98
0.17182	99.98
0.18848	99.98
0.20515	99.98
0.22182	99.98
0.23848	99.98
0.25515	99.98
0.27182	99.98
0.28848	99.98
0.30515	99.98
0.32182	99.99
0.33848	99.99
0.35515	99.99
0.37182	99.99
0.38848	99.98
0.40515	99.99
0.42182	99.99
0.43848	99.99
0.45515	99.99
0.47182	99.99
0.48848	99.99
0.50515	99.99
0.52182	99.98
0.53848	99.99
0.55515	99.99
0.57182	99.99
0.58848	99.99
0.60515	99.99
0.62182	99.99
0.63848	99.99
0.65515	99.99
0.67182	99.99
0.68848	99.99
0.70515	99.99
0.72182	99.99
0.73848	99.99
0.75515	99.99
0.77182	99.98
0.78848	99.98
0.80515	99.99
0.82182	99.99
0.83848	99.99
0.85515	99.99
0.87182	99.99
0.88848	99.99
0.90515	99.99
0.92182	99.99
0.93848	99.99
0.95515	99.98
0.97182	99.99
0.98848	99.99
1.00515	99.98
1.02182	99.99
1.03848	99.99
1.05515	99.99
1.07182	99.98
1.08848	99.99
1.10515	99.99
1.12182	99.99
1.13848	99.98
1.15515	99.98
1.17182	99.98
1.18848	99.99
1.20515	99.98
1.22182	99.98
1.23848	99.99
1.25515	99.98
1.27182	99.99
1.28848	99.99
1.30515	99.99
1.32182	99.99
1.33848	99.99
1.35515	99.99
1.37182	99.99
1.38848	99.99
1.40515	99.99
1.42182	99.99
1.43848	99.98
1.45515	99.99
1.47182	99.98
1.48848	99.99
1.50515	99.99
1.52182	99.98
1.53848	99.99
1.55515	99.99
1.57182	99.99
1.58848	99.99
1.60515	99.98
1.62182	99.98
1.63848	99.99
1.65515	99.99
1.67182	99.99
1.68848	99.99
1.70515	99.98
1.72182	99.99
1.73848	99.99
1.75515	99.99
1.77182	99.99
1.78848	99.99
1.80515	99.99
1.82182	99.99
1.83848	99.99
1.85515	99.99
1.87182	99.99
1.88848	99.99
1.90515	99.99
1.92182	99.98
1.93848	99.99
1.95515	99.99
1.97182	99.99
1.98848	99.98
2.00515	99.99
2.02182	99.98
2.03848	99.98
2.05515	99.98
2.07182	99.98
2.08848	99.98
2.10515	99.98
2.12182	99.98
2.13848	99.98
2.15515	99.98
2.17182	99.98
2.18848	99.98
2.20515	99.98
2.22182	99.97
2.23848	99.97
2.25515	99.97
2.27182	99.98
2.28848	99.98
2.30515	99.98
2.32182	99.98
2.33848	99.98
2.35515	99.97
2.37182	99.97
2.38848	99.97
2.40515	99.97
2.42182	99.97
2.43848	99.97
2.45515	99.97
2.47182	99.97
2.48848	99.97
2.50515	99.97
2.52182	99.97
2.53848	99.98
2.55515	99.98
2.57182	99.98
2.58848	99.98
2.60515	99.98
2.62182	99.98
2.63848	99.98
2.65515	99.98
2.67182	99.98
2.68848	99.98
2.70515	99.99
2.72182	99.99
2.73848	99.98
2.75515	99.99
2.77182	99.99
2.78848	99.99
2.80515	99.99
2.82182	99.99
2.83848	100.00
2.85515	100.00
2.87182	99.99
2.88848	100.00
2.90515	100.00
2.92182	100.00
2.93848	100.01
2.95515	100.01
2.97182	100.01
2.98848	100.01
3.00515	100.01
3.02182	100.01
3.03848	100.01
3.05515	100.02
3.07182	100.02
3.08848	100.01
3.10515	100.02
3.12182	100.02
3.13848	100.02
3.15515	100.02
3.17182	100.03
3.18848	100.02
3.20515	100.03
3.22182	100.03
3.23848	100.03
3.25515	100.03
3.27182	100.03
3.28848	100.03
3.30515	100.03
3.32182	100.04
3.33848	100.04
3.35515	100.04
3.37182	100.03
3.38848	100.04
3.40515	100.04
3.42182	100.04
3.43848	100.04
3.45515	100.04
3.47182	100.05
3.48848	100.04
3.50515	100.05
3.52182	100.05
3.53848	100.05
3.55515	100.05
3.57182	100.05
3.58848	100.05
3.60515	100.05
3.62182	100.05
3.63848	100.05
3.65515	100.05
3.67182	100.05
3.68848	100.05
3.70515	100.05
3.72182	100.05
3.73848	100.05
3.75515	100.05
3.77182	100.05
3.78848	100.06
3.80515	100.06
3.82182	100.06
3.83848	100.05
3.85515	100.05
3.87182	100.05
3.88848	100.05
3.90515	100.05
3.92182	100.05
3.93848	100.05
3.95515	100.05
3.97182	100.04
3.98848	100.05

[Status Trace (Carrier Gas Pressure)]
Interval(msec)	1000
# of Points	240
Start Time(min)	0.005
End Time(min)	3.988
Intensity Units	
Intensity Multiplier	1
R.Time (min)	Intensity
0.00515	58.00
0.02182	55.81
0.03848	56.73
0.05515	58.85
0.07182	59.73
0.08848	58.16
0.10515	57.97
0.12182	58.01
0.13848	58.01
0.15515	58.00
0.17182	58.00
0.18848	58.00
0.20515	58.00
0.22182	58.00
0.23848	58.00
0.25515	58.00
0.27182	58.00
0.28848	58.00
0.30515	58.00
0.32182	58.00
0.33848	58.00
0.35515	58.00
0.37182	58.00
0.38848	58.00
0.40515	58.00
0.42182	58.00
0.43848	58.00
0.45515	58.00
0.47182	58.00
0.48848	58.00
0.50515	58.00
0.52182	58.00
0.53848	58.00
0.55515	58.00
0.57182	58.00
0.58848	58.00
0.60515	58.00
0.62182	58.00
0.63848	58.00
0.65515	58.00
0.67182	58.00
0.68848	58.00
0.70515	58.00
0.72182	58.00
0.73848	58.00
0.75515	58.00
0.77182	58.00
0.78848	58.00
0.80515	58.00
0.82182	58.00
0.83848	58.00
0.85515	58.00
0.87182	58.00
0.88848	58.00
0.90515	58.00
0.92182	58.00
0.93848	58.00
0.95515	58.00
0.97182	58.00
0.98848	58.00
1.00515	58.00
1.02182	58.00
1.03848	58.00
1.05515	58.00
1.07182	58.00
1.08848	58.00
1.10515	58.00
1.12182	58.00
1.13848	58.00
1.15515	58.00
1.17182	58.00
1.18848	58.00
1.20515	58.00
1.22182	58.00
1.23848	58.00
1.25515	58.00
1.27182	58.00
1.28848	58.00
1.30515	58.00
1.32182	58.00
1.33848	58.00
1.35515	58.00
1.37182	58.00
1.38848	58.00
1.40515	58.00
1.42182	58.00
1.43848	58.00
1.45515	58.00
1.47182	58.00
1.48848	58.00
1.50515	58.00
1.52182	58.00
1.53848	58.00
1.55515	58.00
1.57182	58.00
1.58848	58.00
1.60515	58.00
1.62182	58.00
1.63848	58.00
1.65515	58.00
1.67182	58.01
1.68848	58.00
1.70515	58.00
1.72182	58.00
1.73848	58.00
1.75515	58.00
1.77182	58.00
1.78848	58.00
1.80515	58.00
1.82182	58.00
1.83848	58.00
1.85515	58.00
1.87182	58.00
1.88848	58.00
1.90515	58.00
1.92182	58.00
1.93848	58.00
1.95515	58.00
1.97182	58.00
1.98848	58.00
2.00515	58.00
2.02182	58.00
2.03848	58.00
2.05515	58.00
2.07182	58.00
2.08848	58.00
2.10515	58.00
2.12182	58.00
2.13848	58.00
2.15515	58.00
2.17182	58.00
2.18848	58.00
2.20515	58.00
2.22182	58.00
2.23848	58.00
2.25515	58.00
2.27182	58.00
2.28848	58.00
2.30515	58.00
2.32182	58.00
2.33848	58.00
2.35515	58.00
2.37182	58.00
2.38848	57.99
2.40515	57.99
2.42182	58.00
2.43848	58.00
2.45515	58.00
2.47182	58.00
2.48848	58.00
2.50515	57.99
2.52182	57.99
2.53848	58.00
2.55515	58.00
2.57182	58.00
2.58848	58.00
2.60515	58.00
2.62182	58.00
2.63848	58.00
2.65515	58.00
2.67182	58.00
2.68848	58.00
2.70515	58.00
2.72182	58.00
2.73848	58.00
2.75515	58.00
2.77182	58.00
2.78848	58.00
2.80515	58.00
2.82182	58.00
2.83848	58.00
2.85515	58.00
2.87182	58.00
2.88848	58.00
2.90515	58.00
2.92182	58.00
2.93848	58.00
2.95515	58.00
2.97182	58.00
2.98848	58.00
3.00515	58.00
3.02182	58.00
3.03848	58.00
3.05515	58.00
3.07182	58.00
3.08848	58.00
3.10515	58.00
3.12182	58.00
3.13848	58.00
3.15515	58.00
3.17182	58.00
3.18848	58.00
3.20515	58.00
3.22182	58.00
3.23848	58.00
3.25515	58.00
3.27182	58.00
3.28848	58.00
3.30515	58.00
3.32182	58.00
3.33848	58.00
3.35515	58.00
3.37182	58.00
3.38848	58.00
3.40515	58.00
3.42182	58.00
3.43848	58.00
3.45515	58.00
3.47182	58.00
3.48848	58.00
3.50515	58.00
3.52182	58.00
3.53848	58.00
3.55515	58.00
3.57182	58.00
3.58848	58.00
3.60515	58.00
3.62182	58.00
3.63848	58.00
3.65515	58.00
3.67182	58.00
3.68848	58.00
3.70515	58.00
3.72182	58.00
3.73848	58.00
3.75515	58.00
3.77182	58.00
3.78848	58.00
3.80515	58.00
3.82182	58.00
3.83848	58.00
3.85515	58.00
3.87182	58.00
3.88848	58.00
3.90515	58.00
3.92182	58.00
3.93848	58.00
3.95515	58.00
3.97182	58.00
3.98848	58.00

[Status Trace (Carrier Gas Flow)]
Interval(msec)	1000
# of Points	240
Start Time(min)	0.005
End Time(min)	3.988
Intensity Units	
Intensity Multiplier	1
R.Time (min)	Intensity
0.00515	34.52
0.02182	34.55
0.03848	34.55
0.05515	34.54
0.07182	34.50
0.08848	34.52
0.10515	34.52
0.12182	34.52
0.13848	34.52
0.15515	34.52
0.17182	34.51
0.18848	34.52
0.20515	34.52
0.22182	34.51
0.23848	34.52
0.25515	34.51
0.27182	34.52
0.28848	34.51
0.30515	34.52
0.32182	34.52
0.33848	34.51
0.35515	34.51
0.37182	34.53
0.38848	34.52
0.40515	34.51
0.42182	34.52
0.43848	34.52
0.45515	34.52
0.47182	34.52
0.48848	34.51
0.50515	34.52
0.52182	34.52
0.53848	34.52
0.55515	34.52
0.57182	34.52
0.58848	34.51
0.60515	34.52
0.62182	34.52
0.63848	34.52
0.65515	34.52
0.67182	34.52
0.68848	34.52
0.70515	34.52
0.72182	34.52
0.73848	34.52
0.75515	34.52
0.77182	34.52
0.78848	34.52
0.80515	34.52
0.82182	34.52
0.83848	34.52
0.85515	34.52
0.87182	34.52
0.88848	34.52
0.90515	34.52
0.92182	34.52
0.93848	34.52
0.95515	34.52
0.97182	34.52
0.98848	34.52
1.00515	34.52
1.02182	34.52
1.03848	34.52
1.05515	34.52
1.07182	34.52
1.08848	34.52
1.10515	34.52
1.12182	34.52
1.13848	34.52
1.15515	34.51
1.17182	34.52
1.18848	34.52
1.20515	34.52
1.22182	34.52
1.23848	34.51
1.25515	34.52
1.27182	34.52
1.28848	34.52
1.30515	34.52
1.32182	34.52
1.33848	34.51
1.35515	34.52
1.37182	34.52
1.38848	34.52
1.40515	34.51
1.42182	34.52
1.43848	34.52
1.45515	34.52
1.47182	34.51
1.48848	34.53
1.50515	34.52
1.52182	34.52
1.53848	34.52
1.55515	34.52
1.57182	34.52
1.58848	34.51
1.60515	34.52
1.62182	34.52
1.63848	34.52
1.65515	34.52
1.67182	34.53
1.68848	34.52
1.70515	34.52
1.72182	34.52
1.73848	34.52
1.75515	34.52
1.77182	34.52
1.78848	34.52
1.80515	34.52
1.82182	34.52
1.83848	34.52
1.85515	34.52
1.87182	34.52
1.88848	34.52
1.90515	34.52
1.92182	34.52
1.93848	34.51
1.95515	34.52
1.97182	34.52
1.98848	34.52
2.00515	34.51
2.02182	34.52
2.03848	34.52
2.05515	34.52
2.07182	34.52
2.08848	34.53
2.10515	34.52
2.12182	34.51
2.13848	34.53
2.15515	34.51
2.17182	34.53
2.18848	34.51
2.20515	34.52
2.22182	34.53
2.23848	34.51
2.25515	34.52
2.27182	34.53
2.28848	34.52
2.30515	34.52
2.32182	34.51
2.33848	34.52
2.35515	34.51
2.37182	34.51
2.38848	34.52
2.40515	34.52
2.42182	34.52
2.43848	34.52
2.45515	34.52
2.47182	34.52
2.48848	34.52
2.50515	34.56
2.52182	34.52
2.53848	34.52
2.55515	34.52
2.57182	34.52
2.58848	34.52
2.60515	34.51
2.62182	34.52
2.63848	34.52
2.65515	34.51
2.67182	34.52
2.68848	34.52
2.70515	34.52
2.72182	34.52
2.73848	34.52
2.75515	34.52
2.77182	34.51
2.78848	34.51
2.80515	34.52
2.82182	34.52
2.83848	34.52
2.85515	34.52
2.87182	34.52
2.88848	34.52
2.90515	34.52
2.92182	34.52
2.93848	34.52
2.95515	34.52
2.97182	34.52
2.98848	34.52
3.00515	34.52
3.02182	34.52
3.03848	34.52
3.05515	34.52
3.07182	34.52
3.08848	34.51
3.10515	34.52
3.12182	34.52
3.13848	34.51
3.15515	34.52
3.17182	34.52
3.18848	34.52
3.20515	34.52
3.22182	34.52
3.23848	34.51
3.25515	34.51
3.27182	34.52
3.28848	34.52
3.30515	34.52
3.32182	34.52
3.33848	34.51
3.35515	34.53
3.37182	34.51
3.38848	34.52
3.40515	34.53
3.42182	34.52
3.43848	34.51
3.45515	34.52
3.47182	34.52
3.48848	34.52
3.50515	34.52
3.52182	34.52
3.53848	34.52
3.55515	34.52
3.57182	34.52
3.58848	34.52
3.60515	34.52
3.62182	34.52
3.63848	34.52
3.65515	34.52
3.67182	34.51
3.68848	34.52
3.70515	34.52
3.72182	34.52
3.73848	34.52
3.75515	34.52
3.77182	34.52
3.78848	34.52
3.80515	34.52
3.82182	34.52
3.83848	34.52
3.85515	34.51
3.87182	34.52
3.88848	34.52
3.90515	34.51
3.92182	34.52
3.93848	34.52
3.95515	34.52
3.97182	34.52
3.98848	34.52

[Status Trace (Column Flow)]
Interval(msec)	1000
# of Points	240
Start Time(min)	0.005
End Time(min)	3.988
Intensity Units	
Intensity Multiplier	1
R.Time (min)	Intensity
0.00515	5.50
0.02182	5.24
0.03848	5.35
0.05515	5.59
0.07182	5.70
0.08848	5.51
0.10515	5.49
0.12182	5.50
0.13848	5.50
0.15515	5.50
0.17182	5.50
0.18848	5.50
0.20515	5.50
0.22182	5.50
0.23848	5.50
0.25515	5.50
0.27182	5.50
0.28848	5.50
0.30515	5.50
0.32182	5.50
0.33848	5.50
0.35515	5.50
0.37182	5.50
0.38848	5.50
0.40515	5.50
0.42182	5.50
0.43848	5.50
0.45515	5.50
0.47182	5.50
0.48848	5.50
0.50515	5.50
0.52182	5.50
0.53848	5.50
0.55515	5.50
0.57182	5.50
0.58848	5.50
0.60515	5.50
0.62182	5.50
0.63848	5.50
0.65515	5.50
0.67182	5.50
0.68848	5.50
0.70515	5.50
0.72182	5.50
0.73848	5.50
0.75515	5.50
0.77182	5.50
0.78848	5.50
0.80515	5.50
0.82182	5.50
0.83848	5.50
0.85515	5.50
0.87182	5.50
0.88848	5.50
0.90515	5.50
0.92182	5.50
0.93848	5.50
0.95515	5.50
0.97182	5.50
0.98848	5.50
1.00515	5.50
1.02182	5.50
1.03848	5.50
1.05515	5.50
1.07182	5.50
1.08848	5.50
1.10515	5.50
1.12182	5.50
1.13848	5.50
1.15515	5.50
1.17182	5.50
1.18848	5.50
1.20515	5.50
1.22182	5.50
1.23848	5.50
1.25515	5.50
1.27182	5.50
1.28848	5.50
1.30515	5.50
1.32182	5.50
1.33848	5.50
1.35515	5.50
1.37182	5.50
1.38848	5.50
1.40515	5.50
1.42182	5.50
1.43848	5.50
1.45515	5.50
1.47182	5.50
1.48848	5.50
1.50515	5.50
1.52182	5.50
1.53848	5.50
1.55515	5.50
1.57182	5.50
1.58848	5.50
1.60515	5.50
1.62182	5.49
1.63848	5.49
1.65515	5.48
1.67182	5.47
1.68848	5.46
1.70515	5.45
1.72182	5.44
1.73848	5.43
1.75515	5.42
1.77182	5.41
1.78848	5.40
1.80515	5.39
1.82182	5.38
1.83848	5.37
1.85515	5.36
1.87182	5.35
1.88848	5.34
1.90515	5.33
1.92182	5.32
1.93848	5.31
1.95515	5.30
1.97182	5.29
1.98848	5.28
2.00515	5.27
2.02182	5.26
2.03848	5.25
2.05515	5.24
2.07182	5.23
2.08848	5.22
2.10515	5.21
2.12182	5.20
2.13848	5.19
2.15515	5.18
2.17182	5.17
2.18848	5.16
2.20515	5.16
2.22182	5.15
2.23848	5.14
2.25515	5.13
2.27182	5.12
2.28848	5.11
2.30515	5.10
2.32182	5.09
2.33848	5.08
2.35515	5.07
2.37182	5.07
2.38848	5.06
2.40515	5.06
2.42182	5.06
2.43848	5.06
2.45515	5.06
2.47182	5.06
2.48848	5.06
2.50515	5.06
2.52182	5.06
2.53848	5.06
2.55515	5.06
2.57182	5.06
2.58848	5.06
2.60515	5.06
2.62182	5.06
2.63848	5.06
2.65515	5.06
2.67182	5.06
2.68848	5.06
2.70515	5.06
2.72182	5.06
2.73848	5.06
2.75515	5.06
2.77182	5.06
2.78848	5.06
2.80515	5.06
2.82182	5.06
2.83848	5.06
2.85515	5.06
2.87182	5.06
2.88848	5.06
2.90515	5.06
2.92182	5.06
2.93848	5.06
2.95515	5.06
2.97182	5.06
2.98848	5.06
3.00515	5.06
3.02182	5.06
3.03848	5.06
3.05515	5.06
3.07182	5.06
3.08848	5.06
3.10515	5.05
3.12182	5.05
3.13848	5.05
3.15515	5.05
3.17182	5.05
3.18848	5.05
3.20515	5.05
3.22182	5.05
3.23848	5.05
3.25515	5.05
3.27182	5.05
3.28848	5.05
3.30515	5.05
3.32182	5.05
3.33848	5.05
3.35515	5.05
3.37182	5.05
3.38848	5.05
3.40515	5.05
3.42182	5.05
3.43848	5.05
3.45515	5.06
3.47182	5.06
3.48848	5.06
3.50515	5.06
3.52182	5.05
3.53848	5.05
3.55515	5.05
3.57182	5.05
3.58848	5.05
3.60515	5.05
3.62182	5.05
3.63848	5.05
3.65515	5.05
3.67182	5.05
3.68848	5.05
3.70515	5.05
3.72182	5.05
3.73848	5.05
3.75515	5.05
3.77182	5.05
3.78848	5.05
3.80515	5.05
3.82182	5.05
3.83848	5.05
3.85515	5.05
3.87182	5.05
3.88848	5.05
3.90515	5.05
3.92182	5.05
3.93848	5.05
3.95515	5.05
3.97182	5.05
3.98848	5.05

[Status Trace (Linear Velocity)]
Interval(msec)	1000
# of Points	240
Start Time(min)	0.005
End Time(min)	3.988
Intensity Units	
Intensity Multiplier	1
R.Time (min)	Intensity
0.00515	39.00
0.02182	37.57
0.03848	38.17
0.05515	39.56
0.07182	40.14
0.08848	39.11
0.10515	38.99
0.12182	39.01
0.13848	39.01
0.15515	39.01
0.17182	39.01
0.18848	39.01
0.20515	39.01
0.22182	39.01
0.23848	39.01
0.25515	39.01
0.27182	39.01
0.28848	39.01
0.30515	39.01
0.32182	39.01
0.33848	39.01
0.35515	39.01
0.37182	39.01
0.38848	39.01
0.40515	39.01
0.42182	39.01
0.43848	39.01
0.45515	39.01
0.47182	39.01
0.48848	39.01
0.50515	39.01
0.52182	39.01
0.53848	39.01
0.55515	39.01
0.57182	39.01
0.58848	39.01
0.60515	39.01
0.62182	39.01
0.63848	39.01
0.65515	39.01
0.67182	39.01
0.68848	39.01
0.70515	39.01
0.72182	39.01
0.73848	39.01
0.75515	39.01
0.77182	39.01
0.78848	39.01
0.80515	39.01
0.82182	39.01
0.83848	39.01
0.85515	39.01
0.87182	39.01
0.88848	39.01
0.90515	39.01
0.92182	39.01
0.93848	39.01
0.95515	39.01
0.97182	39.01
0.98848	39.01
1.00515	39.01
1.02182	39.01
1.03848	39.02
1.05515	39.02
1.07182	39.02
1.08848	39.02
1.10515	39.01
1.12182	39.01
1.13848	39.01
1.15515	39.01
1.17182	39.01
1.18848	39.01
1.20515	39.01
1.22182	39.01
1.23848	39.01
1.25515	39.01
1.27182	39.01
1.28848	39.01
1.30515	39.01
1.32182	39.01
1.33848	39.01
1.35515	39.02
1.37182	39.02
1.38848	39.01
1.40515	39.01
1.42182	39.01
1.43848	39.01
1.45515	39.01
1.47182	39.01
1.48848	39.01
1.50515	39.01
1.52182	39.01
1.53848	39.01
1.55515	39.01
1.57182	39.01
1.58848	39.01
1.60515	39.01
1.62182	39.00
1.63848	38.98
1.65515	38.96
1.67182	38.93
1.68848	38.89
1.70515	38.86
1.72182	38.83
1.73848	38.79
1.75515	38.76
1.77182	38.73
1.78848	38.70
1.80515	38.67
1.82182	38.64
1.83848	38.61
1.85515	38.57
1.87182	38.54
1.88848	38.51
1.90515	38.48
1.92182	38.45
1.93848	38.42
1.95515	38.39
1.97182	38.36
1.98848	38.33
2.00515	38.30
2.02182	38.27
2.03848	38.24
2.05515	38.21
2.07182	38.18
2.08848	38.15
2.10515	38.12
2.12182	38.09
2.13848	38.06
2.15515	38.03
2.17182	38.00
2.18848	37.97
2.20515	37.94
2.22182	37.91
2.23848	37.88
2.25515	37.86
2.27182	37.83
2.28848	37.80
2.30515	37.77
2.32182	37.74
2.33848	37.71
2.35515	37.68
2.37182	37.66
2.38848	37.65
2.40515	37.65
2.42182	37.65
2.43848	37.65
2.45515	37.65
2.47182	37.65
2.48848	37.65
2.50515	37.64
2.52182	37.64
2.53848	37.64
2.55515	37.65
2.57182	37.65
2.58848	37.64
2.60515	37.64
2.62182	37.64
2.63848	37.64
2.65515	37.64
2.67182	37.64
2.68848	37.64
2.70515	37.64
2.72182	37.64
2.73848	37.64
2.75515	37.64
2.77182	37.64
2.78848	37.64
2.80515	37.64
2.82182	37.64
2.83848	37.64
2.85515	37.64
2.87182	37.64
2.88848	37.64
2.90515	37.63
2.92182	37.63
2.93848	37.63
2.95515	37.63
2.97182	37.63
2.98848	37.63
3.00515	37.63
3.02182	37.63
3.03848	37.63
3.05515	37.63
3.07182	37.62
3.08848	37.62
3.10515	37.62
3.12182	37.62
3.13848	37.62
3.15515	37.62
3.17182	37.62
3.18848	37.62
3.20515	37.62
3.22182	37.62
3.23848	37.62
3.25515	37.62
3.27182	37.62
3.28848	37.62
3.30515	37.62
3.32182	37.62
3.33848	37.62
3.35515	37.62
3.37182	37.62
3.38848	37.62
3.40515	37.62
3.42182	37.62
3.43848	37.62
3.45515	37.62
3.47182	37.62
3.48848	37.62
3.50515	37.62
3.52182	37.62
3.53848	37.62
3.55515	37.62
3.57182	37.62
3.58848	37.62
3.60515	37.62
3.62182	37.62
3.63848	37.62
3.65515	37.62
3.67182	37.62
3.68848	37.62
3.70515	37.62
3.72182	37.62
3.73848	37.62
3.75515	37.62
3.77182	37.62
3.78848	37.62
3.80515	37.62
3.82182	37.62
3.83848	37.62
3.85515	37.62
3.87182	37.62
3.88848	37.62
3.90515	37.62
3.92182	37.62
3.93848	37.62
3.95515	37.62
3.97182	37.62
3.98848	37.62

