[Header]
Application Name	LabSolutions
Version	5.110
Data File Name	C:\Users\User\Desktop\Junior\UIC Prairie Sampling\6.15.23\06152023_002.gcd
Output Date	6/26/2023
Output Time	12:05:06 PM

[File Information]
Type	Data File
Generated	6/23/2023 10:49:35 AM
Generated by	System Administrator
Modified	6/23/2023 10:56:59 AM
Modified by	System Administrator

[Sample Information]
Operator Name	System Administrator
Acquired	6/23/2023 10:52:56 AM
Sample Type	0:Unknown
Level	0
Sample Name	002
Sample ID	002
ISTD Amount1	1
ISTD Amount2	1
ISTD Amount3	1
ISTD Amount4	1
ISTD Amount5	1
ISTD Amount6	1
ISTD Amount7	1
ISTD Amount8	1
ISTD Amount9	1
ISTD Amount10	1
ISTD Amount11	1
ISTD Amount12	1
ISTD Amount13	1
ISTD Amount14	1
ISTD Amount15	1
ISTD Amount16	1
ISTD Amount17	1
ISTD Amount18	1
ISTD Amount19	1
ISTD Amount20	1
ISTD Amount21	1
ISTD Amount22	1
ISTD Amount23	1
ISTD Amount24	1
ISTD Amount25	1
ISTD Amount26	1
ISTD Amount27	1
ISTD Amount28	1
ISTD Amount29	1
ISTD Amount30	1
ISTD Amount31	1
ISTD Amount32	1
Sample Amount	1
Dilution Factor	1
Vial#	1
Injection Volume	1
Injection Count	1
Bar Code	

[Original Files]
Data File	C:\Users\User\Desktop\Junior\UIC Prairie Sampling\6.15.23\06152023_002.gcd
Method File	C:\LabSolutions\Data\GHG_4min_2022\ghg3_togas_w_acet_4 min_new_int.gcm
Batch File	C:\LabSolutions\Data\AutoSamplerTesting\06152023.gcb
Report Format File	c:\LabSolutions\System\DEFAULT.lsr

[File Description]


[Configuration]
Instrument Name	C0B7VH3-Instrument1
Instrument #	1
Line #	1
# of Detectors	3
Detector ID	DET#1	DET#2	DET#3
Detector Name	FID	PTCD	ECD
# of Channels	1	1	1

[Peak Table(Ch1)]
# of Peaks	3
Peak#	R.Time	I.Time	F.Time	Area	Height	A/H	Conc.	Mark	ID#	Name	k'	Plate #	Plate Ht.	Tailing	Resolution	Sep.Factor	Area Ratio	Height Ratio	Conc. %	Norm Conc.
1	1.498	1.468	1.520	802	335	2.392	0.000	   	1	CO	0.000	2957	50.727	0.000	0.000	0.000	0	0	0.000	0.000
2	1.560	1.520	1.655	19875	9747	2.039	96.895	 V 	2	CH4	0.042	11211	13.380	1.286	0.737	0.000	0	0	20.794	20.794
3	1.989	1.941	2.572	1915086	914851	2.093	369.072	   	3	CO2	0.328	17208	8.717	1.264	7.175	7.882	0	0	79.206	79.206

[Peak Table(Ch2)]
# of Peaks	0

[Peak Table(Ch3)]
# of Peaks	5
Peak#	R.Time	I.Time	F.Time	Area	Height	A/H	Conc.	Mark	ID#	Name	k'	Plate #	Plate Ht.	Tailing	Resolution	Sep.Factor	Area Ratio	Height Ratio	Conc. %	Norm Conc.
1	2.458	2.436	2.499	1005	398	2.528	0.000	   			0.000	13852	10.829	0.000	0.000	0.000	0	0	0.000	0.000
2	2.510	2.499	2.557	579	248	2.335	0.000	 V 			0.021	6291	23.844	0.000	0.489	0.000	0	0	0.000	0.000
3	2.605	2.557	2.664	693	192	3.601	0.000	 V 			0.060	9119	16.449	0.000	0.809	2.857	0	0	0.000	0.000
4	2.788	2.697	2.825	3499	642	5.452	0.052	   	1	N2O	0.134	1354	110.802	0.000	0.889	2.250	0	0	4.944	4.944
5	2.887	2.825	3.694	67263	14391	4.674	0.995	 V 	1	N2O	0.175	12321	12.175	1.673	0.486	1.300	0	0	95.056	95.056

[Compound Results(Ch1)]
# of IDs	6
ID#	Name	R.Time	Area	Height	Conc.	Curve	3rd	2nd	1st	Constant	Area Ratio	Height Ratio	Conc. %	Norm Conc.
1	CO	1.498	802	335	0.000	Linear	0.000000e+00	0.000000e+00	0.000000e+00	0.000000e+00	0	0	0.000	0.000
2	CH4	1.560	19875	9747	96.895	Linear	0.000000e+00	0.000000e+00	2.051179e+002	0.000000e+00	0	0	20.794	20.794
3	CO2	1.989	1915086	914851	369.072	Linear	0.000000e+00	0.000000e+00	5.188919e+003	0.000000e+00	0	0	79.206	79.206
4	Ethylene	0.000	0	0	0.000	Linear	0.000000e+00	0.000000e+00	0.000000e+00	0.000000e+00	0	0	0.000	0.000
5	Acetylene	0.000	0	0	0.000	Linear	0.000000e+00	0.000000e+00	0.000000e+00	0.000000e+00	0	0	0.000	0.000
6	Ethane	0.000	0	0	0.000	Linear	0.000000e+00	0.000000e+00	0.000000e+00	0.000000e+00	0	0	0.000	0.000

[Compound Results(Ch2)]
# of IDs	5
ID#	Name	R.Time	Area	Height	Conc.	Curve	3rd	2nd	1st	Constant	Area Ratio	Height Ratio	Conc. %	Norm Conc.
1	Hydrogen	0.000	0	0	0.000	Linear	0.000000e+00	0.000000e+00	0.000000e+00	0.000000e+00	0	0	0.000	0.000
2	Oxygen	0.000	0	0	0.000	Linear	0.000000e+00	0.000000e+00	0.000000e+00	0.000000e+00	0	0	0.000	0.000
3	Nitrogen	0.000	0	0	0.000	Linear	0.000000e+00	0.000000e+00	0.000000e+00	0.000000e+00	0	0	0.000	0.000
4	Methane	0.000	0	0	0.000	Linear	0.000000e+00	0.000000e+00	0.000000e+00	0.000000e+00	0	0	0.000	0.000
5	Carbon Monoxide	0.000	0	0	0.000	Linear	0.000000e+00	0.000000e+00	0.000000e+00	0.000000e+00	0	0	0.000	0.000

[Compound Results(Ch3)]
# of IDs	2
ID#	Name	R.Time	Area	Height	Conc.	Curve	3rd	2nd	1st	Constant	Area Ratio	Height Ratio	Conc. %	Norm Conc.
1	N2O	2.887	70762	15033	1.047	Linear	0.000000e+00	0.000000e+00	6.759880e+004	0.000000e+00	0	0	100.000	100.000
2	SF6	0.000	0	0	0.000	Linear	0.000000e+00	0.000000e+00	0.000000e+00	0.000000e+00	0	0	0.000	0.000

[Group Results(Ch1)]
# of Groups	0

[Group Results(Ch2)]
# of Groups	0

[Group Results(Ch3)]
# of Groups	0

[Chromatogram (Ch1)]
Interval(msec)	220
# of Points	1091
Start Time(min)	0.002
End Time(min)	3.998
R.Time (min)	Intensity
0.00167	6
0.00533	11
0.00900	15
0.01267	21
0.01633	25
0.02000	25
0.02367	20
0.02733	16
0.03100	14
0.03467	13
0.03833	9
0.04200	3
0.04567	-4
0.04933	-9
0.05300	-11
0.05667	-13
0.06033	-15
0.06400	-14
0.06767	-9
0.07133	-2
0.07500	1
0.07867	1
0.08233	-0
0.08600	-0
0.08967	1
0.09333	6
0.09700	12
0.10067	21
0.10433	26
0.10800	28
0.11167	28
0.11533	31
0.11900	35
0.12267	34
0.12633	30
0.13000	26
0.13367	19
0.13733	9
0.14100	-1
0.14467	-8
0.14833	-12
0.15200	-11
0.15567	-9
0.15933	-8
0.16300	-5
0.16667	-4
0.17033	-4
0.17400	-4
0.17767	-2
0.18133	3
0.18500	11
0.18867	16
0.19233	11
0.19600	4
0.19967	1
0.20333	-4
0.20700	-9
0.21067	-9
0.21433	-7
0.21800	-1
0.22167	4
0.22533	7
0.22900	9
0.23267	10
0.23633	6
0.24000	1
0.24367	-3
0.24733	-4
0.25100	-1
0.25467	4
0.25833	8
0.26200	10
0.26567	7
0.26933	0
0.27300	-7
0.27667	-12
0.28033	-13
0.28400	-7
0.28767	3
0.29133	9
0.29500	8
0.29867	6
0.30233	8
0.30600	11
0.30967	11
0.31333	11
0.31700	12
0.32067	16
0.32433	19
0.32800	20
0.33167	19
0.33533	16
0.33900	13
0.34267	10
0.34633	8
0.35000	9
0.35367	12
0.35733	21
0.36100	30
0.36467	32
0.36833	22
0.37200	5
0.37567	-8
0.37933	-9
0.38300	-5
0.38667	-1
0.39033	-1
0.39400	-3
0.39767	-4
0.40133	-1
0.40500	8
0.40867	18
0.41233	25
0.41600	27
0.41967	28
0.42333	27
0.42700	26
0.43067	26
0.43433	22
0.43800	14
0.44167	3
0.44533	-12
0.44900	-27
0.45267	-39
0.45633	-49
0.46000	-51
0.46367	-50
0.46733	-49
0.47100	-46
0.47467	-44
0.47833	-38
0.48200	-31
0.48567	-25
0.48933	-21
0.49300	-19
0.49667	-15
0.50033	-8
0.50400	-1
0.50767	4
0.51133	7
0.51500	7
0.51867	4
0.52233	2
0.52600	1
0.52967	1
0.53333	-2
0.53700	-2
0.54067	1
0.54433	7
0.54800	14
0.55167	18
0.55533	16
0.55900	13
0.56267	9
0.56633	4
0.57000	3
0.57367	8
0.57733	10
0.58100	8
0.58467	1
0.58833	-5
0.59200	-9
0.59567	-9
0.59933	-7
0.60300	-3
0.60667	2
0.61033	4
0.61400	2
0.61767	-0
0.62133	1
0.62500	2
0.62867	-2
0.63233	-9
0.63600	-16
0.63967	-19
0.64333	-16
0.64700	-9
0.65067	-0
0.65433	6
0.65800	8
0.66167	7
0.66533	4
0.66900	2
0.67267	3
0.67633	5
0.68000	6
0.68367	5
0.68733	1
0.69100	-4
0.69467	-7
0.69833	-5
0.70200	-3
0.70567	-1
0.70933	1
0.71300	5
0.71667	6
0.72033	4
0.72400	3
0.72767	1
0.73133	0
0.73500	-2
0.73867	-3
0.74233	1
0.74600	9
0.74967	15
0.75333	14
0.75700	9
0.76067	1
0.76433	-3
0.76800	-5
0.77167	-3
0.77533	-1
0.77900	5
0.78267	12
0.78633	18
0.79000	21
0.79367	20
0.79733	15
0.80100	8
0.80467	-0
0.80833	-10
0.81200	-15
0.81567	-15
0.81933	-11
0.82300	-5
0.82667	-2
0.83033	-2
0.83400	-4
0.83767	-2
0.84133	1
0.84500	2
0.84867	2
0.85233	0
0.85600	-1
0.85967	-1
0.86333	0
0.86700	2
0.87067	1
0.87433	-1
0.87800	-0
0.88167	4
0.88533	11
0.88900	14
0.89267	13
0.89633	10
0.90000	5
0.90367	-3
0.90733	-11
0.91100	-11
0.91467	-10
0.91833	-12
0.92200	-18
0.92567	-23
0.92933	-27
0.93300	-29
0.93667	-27
0.94033	-24
0.94400	-17
0.94767	-10
0.95133	-8
0.95500	-11
0.95867	-11
0.96233	-8
0.96600	-6
0.96967	-6
0.97333	-8
0.97700	-8
0.98067	-10
0.98433	-13
0.98800	-16
0.99167	-18
0.99533	-17
0.99900	-12
1.00267	-5
1.00633	3
1.01000	9
1.01367	13
1.01733	14
1.02100	12
1.02467	12
1.02833	10
1.03200	6
1.03567	2
1.03933	-5
1.04300	-11
1.04667	-16
1.05033	-21
1.05400	-25
1.05767	-25
1.06133	-23
1.06500	-18
1.06867	-13
1.07233	-13
1.07600	-15
1.07967	-16
1.08333	-18
1.08700	-23
1.09067	-27
1.09433	-27
1.09800	-24
1.10167	-20
1.10533	-15
1.10900	-11
1.11267	-10
1.11633	-7
1.12000	-2
1.12367	2
1.12733	2
1.13100	3
1.13467	4
1.13833	-3
1.14200	-15
1.14567	-27
1.14933	-36
1.15300	-41
1.15667	-44
1.16033	-45
1.16400	-40
1.16767	-32
1.17133	-26
1.17500	-26
1.17867	-30
1.18233	-34
1.18600	-36
1.18967	-35
1.19333	-35
1.19700	-34
1.20067	-33
1.20433	-30
1.20800	-25
1.21167	-18
1.21533	-14
1.21900	-15
1.22267	-14
1.22633	-11
1.23000	-11
1.23367	-11
1.23733	-10
1.24100	-15
1.24467	-23
1.24833	-29
1.25200	-33
1.25567	-36
1.25933	-37
1.26300	-36
1.26667	-33
1.27033	-27
1.27400	-21
1.27767	-16
1.28133	-18
1.28500	-23
1.28867	-30
1.29233	-34
1.29600	-31
1.29967	-25
1.30333	-22
1.30700	-26
1.31067	-31
1.31433	-34
1.31800	-33
1.32167	-28
1.32533	-20
1.32900	-12
1.33267	-8
1.33633	-6
1.34000	-6
1.34367	-9
1.34733	-15
1.35100	-21
1.35467	-23
1.35833	-20
1.36200	-16
1.36567	-17
1.36933	-22
1.37300	-27
1.37667	-32
1.38033	-37
1.38400	-45
1.38767	-53
1.39133	-57
1.39500	-59
1.39867	-52
1.40233	-42
1.40600	-34
1.40967	-31
1.41333	-30
1.41700	-28
1.42067	-27
1.42433	-24
1.42800	-19
1.43167	-14
1.43533	-5
1.43900	11
1.44267	1
1.44633	-62
1.45000	-160
1.45367	-261
1.45733	-349
1.46100	-408
1.46467	-424
1.46833	-394
1.47200	-325
1.47567	-238
1.47933	-158
1.48300	-97
1.48667	-56
1.49033	-29
1.49400	-12
1.49767	-3
1.50133	3
1.50500	2
1.50867	-9
1.51233	-22
1.51600	-30
1.51967	-33
1.52333	-30
1.52700	-19
1.53067	34
1.53433	265
1.53800	951
1.54167	2284
1.54533	4106
1.54900	6011
1.55267	7656
1.55633	8866
1.56000	9526
1.56367	9497
1.56733	8724
1.57100	7379
1.57467	5794
1.57833	4283
1.58200	3027
1.58567	2074
1.58933	1394
1.59300	925
1.59667	607
1.60033	394
1.60400	248
1.60767	148
1.61133	83
1.61500	42
1.61867	20
1.62233	7
1.62600	-0
1.62967	-5
1.63333	-12
1.63700	-20
1.64067	-27
1.64433	-32
1.64800	-38
1.65167	-41
1.65533	-41
1.65900	-41
1.66267	-38
1.66633	-35
1.67000	-33
1.67367	-37
1.67733	-44
1.68100	-47
1.68467	-47
1.68833	-46
1.69200	-46
1.69567	-43
1.69933	-41
1.70300	-41
1.70667	-43
1.71033	-45
1.71400	-42
1.71767	-34
1.72133	-25
1.72500	-22
1.72867	-22
1.73233	-26
1.73600	-28
1.73967	-28
1.74333	-30
1.74700	-32
1.75067	-32
1.75433	-31
1.75800	-33
1.76167	-38
1.76533	-44
1.76900	-47
1.77267	-47
1.77633	-46
1.78000	-47
1.78367	-49
1.78733	-49
1.79100	-50
1.79467	-50
1.79833	-48
1.80200	-46
1.80567	-44
1.80933	-40
1.81300	-33
1.81667	-27
1.82033	-24
1.82400	-27
1.82767	-34
1.83133	-43
1.83500	-52
1.83867	-57
1.84233	-58
1.84600	-54
1.84967	-48
1.85333	-44
1.85700	-42
1.86067	-43
1.86433	-48
1.86800	-54
1.87167	-60
1.87533	-62
1.87900	-60
1.88267	-55
1.88633	-50
1.89000	-47
1.89367	-48
1.89733	-51
1.90100	-51
1.90467	-50
1.90833	-48
1.91200	-44
1.91567	-37
1.91933	-33
1.92300	-35
1.92667	-40
1.93033	-46
1.93400	-49
1.93767	-49
1.94133	-42
1.94500	-13
1.94867	173
1.95233	1264
1.95600	6218
1.95967	23122
1.96333	67050
1.96700	154932
1.97067	292150
1.97433	463548
1.97800	638974
1.98167	786468
1.98533	882767
1.98900	914839
1.99267	880959
1.99633	791479
2.00000	666611
2.00367	530104
2.00733	401877
2.01100	293741
2.01467	209418
2.01833	147254
2.02200	103169
2.02567	72696
2.02933	51950
2.03300	37922
2.03667	28427
2.04033	21952
2.04400	17478
2.04767	14328
2.05133	12060
2.05500	10389
2.05867	9126
2.06233	8149
2.06600	7367
2.06967	6720
2.07333	6175
2.07700	5713
2.08067	5316
2.08433	4970
2.08800	4668
2.09167	4402
2.09533	4166
2.09900	3956
2.10267	3767
2.10633	3599
2.11000	3447
2.11367	3304
2.11733	3163
2.12100	3031
2.12467	2903
2.12833	2784
2.13200	2675
2.13567	2574
2.13933	2482
2.14300	2398
2.14667	2319
2.15033	2246
2.15400	2178
2.15767	2112
2.16133	2049
2.16500	1987
2.16867	1927
2.17233	1873
2.17600	1825
2.17967	1782
2.18333	1739
2.18700	1696
2.19067	1651
2.19433	1609
2.19800	1570
2.20167	1535
2.20533	1502
2.20900	1469
2.21267	1434
2.21633	1401
2.22000	1368
2.22367	1334
2.22733	1297
2.23100	1263
2.23467	1233
2.23833	1205
2.24200	1178
2.24567	1151
2.24933	1124
2.25300	1097
2.25667	1075
2.26033	1056
2.26400	1037
2.26767	1019
2.27133	1003
2.27500	989
2.27867	975
2.28233	960
2.28600	946
2.28967	932
2.29333	919
2.29700	905
2.30067	889
2.30433	870
2.30800	853
2.31167	839
2.31533	825
2.31900	807
2.32267	786
2.32633	766
2.33000	750
2.33367	739
2.33733	730
2.34100	720
2.34467	712
2.34833	709
2.35200	707
2.35567	704
2.35933	700
2.36300	694
2.36667	683
2.37033	671
2.37400	660
2.37767	652
2.38133	644
2.38500	632
2.38867	621
2.39233	614
2.39600	608
2.39967	600
2.40333	589
2.40700	580
2.41067	572
2.41433	566
2.41800	561
2.42167	559
2.42533	560
2.42900	560
2.43267	556
2.43633	546
2.44000	536
2.44367	527
2.44733	518
2.45100	511
2.45467	502
2.45833	491
2.46200	480
2.46567	473
2.46933	469
2.47300	467
2.47667	463
2.48033	458
2.48400	455
2.48767	450
2.49133	443
2.49500	436
2.49867	431
2.50233	429
2.50600	431
2.50967	433
2.51333	433
2.51700	429
2.52067	425
2.52433	421
2.52800	415
2.53167	410
2.53533	402
2.53900	395
2.54267	389
2.54633	383
2.55000	378
2.55367	369
2.55733	361
2.56100	359
2.56467	357
2.56833	356
2.57200	354
2.57567	357
2.57933	360
2.58300	363
2.58667	362
2.59033	361
2.59400	359
2.59767	356
2.60133	351
2.60500	345
2.60867	342
2.61233	343
2.61600	350
2.61967	360
2.62333	367
2.62700	365
2.63067	355
2.63433	345
2.63800	334
2.64167	325
2.64533	315
2.64900	308
2.65267	301
2.65633	296
2.66000	290
2.66367	286
2.66733	280
2.67100	272
2.67467	269
2.67833	272
2.68200	276
2.68567	277
2.68933	275
2.69300	272
2.69667	271
2.70033	274
2.70400	276
2.70767	274
2.71133	274
2.71500	274
2.71867	274
2.72233	272
2.72600	271
2.72967	268
2.73333	262
2.73700	258
2.74067	258
2.74433	262
2.74800	267
2.75167	266
2.75533	264
2.75900	260
2.76267	258
2.76633	258
2.77000	262
2.77367	269
2.77733	274
2.78100	275
2.78467	273
2.78833	267
2.79200	260
2.79567	252
2.79933	245
2.80300	240
2.80667	237
2.81033	235
2.81400	235
2.81767	235
2.82133	232
2.82500	227
2.82867	223
2.83233	219
2.83600	220
2.83967	221
2.84333	219
2.84700	215
2.85067	208
2.85433	206
2.85800	210
2.86167	215
2.86533	220
2.86900	224
2.87267	225
2.87633	224
2.88000	223
2.88367	225
2.88733	226
2.89100	224
2.89467	222
2.89833	220
2.90200	219
2.90567	216
2.90933	210
2.91300	204
2.91667	201
2.92033	199
2.92400	197
2.92767	195
2.93133	197
2.93500	205
2.93867	211
2.94233	212
2.94600	209
2.94967	202
2.95333	193
2.95700	188
2.96067	189
2.96433	191
2.96800	195
2.97167	196
2.97533	194
2.97900	192
2.98267	192
2.98633	196
2.99000	203
2.99367	208
2.99733	211
3.00100	210
3.00467	205
3.00833	200
3.01200	196
3.01567	196
3.01933	195
3.02300	190
3.02667	187
3.03033	183
3.03400	179
3.03767	173
3.04133	171
3.04500	173
3.04867	174
3.05233	177
3.05600	181
3.05967	187
3.06333	191
3.06700	194
3.07067	194
3.07433	190
3.07800	187
3.08167	187
3.08533	187
3.08900	190
3.09267	189
3.09633	188
3.10000	189
3.10367	190
3.10733	189
3.11100	185
3.11467	181
3.11833	179
3.12200	178
3.12567	177
3.12933	177
3.13300	176
3.13667	170
3.14033	162
3.14400	157
3.14767	155
3.15133	152
3.15500	148
3.15867	146
3.16233	151
3.16600	158
3.16967	166
3.17333	172
3.17700	174
3.18067	175
3.18433	173
3.18800	169
3.19167	169
3.19533	171
3.19900	173
3.20267	169
3.20633	169
3.21000	171
3.21367	171
3.21733	167
3.22100	162
3.22467	162
3.22833	165
3.23200	165
3.23567	163
3.23933	159
3.24300	158
3.24667	157
3.25033	155
3.25400	154
3.25767	151
3.26133	147
3.26500	144
3.26867	139
3.27233	135
3.27600	137
3.27967	144
3.28333	150
3.28700	153
3.29067	154
3.29433	155
3.29800	155
3.30167	152
3.30533	146
3.30900	140
3.31267	136
3.31633	136
3.32000	140
3.32367	147
3.32733	157
3.33100	167
3.33467	172
3.33833	174
3.34200	176
3.34567	176
3.34933	173
3.35300	169
3.35667	161
3.36033	149
3.36400	139
3.36767	132
3.37133	131
3.37500	134
3.37867	138
3.38233	141
3.38600	143
3.38967	144
3.39333	144
3.39700	143
3.40067	139
3.40433	135
3.40800	130
3.41167	126
3.41533	121
3.41900	114
3.42267	107
3.42633	103
3.43000	105
3.43367	112
3.43733	120
3.44100	126
3.44467	128
3.44833	129
3.45200	128
3.45567	129
3.45933	133
3.46300	142
3.46667	150
3.47033	150
3.47400	144
3.47767	136
3.48133	128
3.48500	121
3.48867	119
3.49233	120
3.49600	123
3.49967	124
3.50333	119
3.50700	116
3.51067	117
3.51433	117
3.51800	118
3.52167	124
3.52533	129
3.52900	131
3.53267	131
3.53633	129
3.54000	125
3.54367	122
3.54733	120
3.55100	123
3.55467	128
3.55833	132
3.56200	131
3.56567	129
3.56933	124
3.57300	118
3.57667	111
3.58033	105
3.58400	104
3.58767	107
3.59133	110
3.59500	115
3.59867	119
3.60233	121
3.60600	122
3.60967	120
3.61333	119
3.61700	120
3.62067	121
3.62433	121
3.62800	118
3.63167	113
3.63533	106
3.63900	101
3.64267	100
3.64633	105
3.65000	113
3.65367	117
3.65733	115
3.66100	110
3.66467	105
3.66833	98
3.67200	89
3.67567	83
3.67933	81
3.68300	84
3.68667	91
3.69033	97
3.69400	102
3.69767	108
3.70133	115
3.70500	117
3.70867	115
3.71233	113
3.71600	117
3.71967	124
3.72333	129
3.72700	127
3.73067	115
3.73433	101
3.73800	92
3.74167	90
3.74533	90
3.74900	94
3.75267	99
3.75633	104
3.76000	108
3.76367	110
3.76733	110
3.77100	107
3.77467	100
3.77833	92
3.78200	87
3.78567	84
3.78933	86
3.79300	95
3.79667	105
3.80033	109
3.80400	105
3.80767	96
3.81133	85
3.81500	71
3.81867	58
3.82233	45
3.82600	36
3.82967	35
3.83333	40
3.83700	52
3.84067	65
3.84433	77
3.84800	91
3.85167	99
3.85533	98
3.85900	91
3.86267	81
3.86633	72
3.87000	68
3.87367	65
3.87733	63
3.88100	59
3.88467	58
3.88833	61
3.89200	65
3.89567	70
3.89933	75
3.90300	79
3.90667	82
3.91033	83
3.91400	82
3.91767	81
3.92133	83
3.92500	87
3.92867	90
3.93233	93
3.93600	93
3.93967	91
3.94333	89
3.94700	87
3.95067	82
3.95433	80
3.95800	82
3.96167	81
3.96533	81
3.96900	85
3.97267	88
3.97633	91
3.98000	95
3.98367	96
3.98733	91
3.99100	88
3.99467	85
3.99833	85

[Chromatogram (Ch2)]
Interval(msec)	220
# of Points	1091
Start Time(min)	0.002
End Time(min)	3.998
R.Time (min)	Intensity
0.00167	0
0.00533	-0
0.00900	-0
0.01267	-0
0.01633	-0
0.02000	-0
0.02367	-0
0.02733	-0
0.03100	-1
0.03467	-1
0.03833	-0
0.04200	-0
0.04567	-0
0.04933	-0
0.05300	-0
0.05667	0
0.06033	1
0.06400	1
0.06767	0
0.07133	-0
0.07500	-0
0.07867	-1
0.08233	-1
0.08600	-1
0.08967	-1
0.09333	-1
0.09700	-1
0.10067	-1
0.10433	-1
0.10800	-1
0.11167	-1
0.11533	-1
0.11900	-1
0.12267	-1
0.12633	-1
0.13000	-1
0.13367	-1
0.13733	-0
0.14100	-0
0.14467	-0
0.14833	0
0.15200	0
0.15567	0
0.15933	1
0.16300	1
0.16667	1
0.17033	2
0.17400	2
0.17767	2
0.18133	3
0.18500	3
0.18867	3
0.19233	3
0.19600	3
0.19967	3
0.20333	2
0.20700	2
0.21067	1
0.21433	1
0.21800	1
0.22167	1
0.22533	0
0.22900	0
0.23267	0
0.23633	0
0.24000	0
0.24367	0
0.24733	1
0.25100	1
0.25467	1
0.25833	1
0.26200	0
0.26567	-0
0.26933	-1
0.27300	-1
0.27667	-1
0.28033	-1
0.28400	-1
0.28767	-1
0.29133	-1
0.29500	-1
0.29867	-1
0.30233	-1
0.30600	-1
0.30967	-1
0.31333	-1
0.31700	-1
0.32067	-1
0.32433	-1
0.32800	-1
0.33167	-1
0.33533	-1
0.33900	-1
0.34267	-1
0.34633	-1
0.35000	-1
0.35367	-0
0.35733	-0
0.36100	0
0.36467	0
0.36833	1
0.37200	1
0.37567	1
0.37933	1
0.38300	1
0.38667	2
0.39033	2
0.39400	2
0.39767	2
0.40133	2
0.40500	2
0.40867	2
0.41233	2
0.41600	1
0.41967	1
0.42333	1
0.42700	1
0.43067	1
0.43433	1
0.43800	1
0.44167	1
0.44533	1
0.44900	1
0.45267	1
0.45633	0
0.46000	0
0.46367	0
0.46733	0
0.47100	0
0.47467	1
0.47833	1
0.48200	1
0.48567	2
0.48933	2
0.49300	2
0.49667	2
0.50033	2
0.50400	2
0.50767	2
0.51133	2
0.51500	1
0.51867	1
0.52233	-0
0.52600	-1
0.52967	-1
0.53333	-2
0.53700	-3
0.54067	-3
0.54433	-4
0.54800	-4
0.55167	-5
0.55533	-5
0.55900	-6
0.56267	-6
0.56633	-6
0.57000	-5
0.57367	-5
0.57733	-5
0.58100	-4
0.58467	-4
0.58833	-3
0.59200	-3
0.59567	-3
0.59933	-3
0.60300	-3
0.60667	-2
0.61033	-2
0.61400	-2
0.61767	-2
0.62133	-2
0.62500	-2
0.62867	-2
0.63233	-2
0.63600	-1
0.63967	-1
0.64333	-1
0.64700	-1
0.65067	-1
0.65433	-1
0.65800	-1
0.66167	-0
0.66533	-0
0.66900	-0
0.67267	0
0.67633	0
0.68000	0
0.68367	0
0.68733	0
0.69100	0
0.69467	0
0.69833	-0
0.70200	-0
0.70567	-0
0.70933	-1
0.71300	-1
0.71667	-1
0.72033	-1
0.72400	-2
0.72767	-2
0.73133	-2
0.73500	-2
0.73867	-2
0.74233	-2
0.74600	-2
0.74967	-2
0.75333	-2
0.75700	-1
0.76067	-1
0.76433	-1
0.76800	-1
0.77167	-1
0.77533	-1
0.77900	-1
0.78267	-1
0.78633	-1
0.79000	-1
0.79367	-1
0.79733	-1
0.80100	-1
0.80467	-1
0.80833	-2
0.81200	-2
0.81567	-2
0.81933	-2
0.82300	-3
0.82667	-3
0.83033	-3
0.83400	-3
0.83767	-3
0.84133	-3
0.84500	-3
0.84867	-3
0.85233	-3
0.85600	-2
0.85967	-2
0.86333	-1
0.86700	-1
0.87067	-1
0.87433	-1
0.87800	-1
0.88167	-1
0.88533	-1
0.88900	-1
0.89267	-1
0.89633	-1
0.90000	-1
0.90367	-1
0.90733	-1
0.91100	-1
0.91467	-1
0.91833	-1
0.92200	-1
0.92567	-2
0.92933	-2
0.93300	-2
0.93667	-2
0.94033	-2
0.94400	-2
0.94767	-1
0.95133	-1
0.95500	-1
0.95867	-1
0.96233	-1
0.96600	-1
0.96967	-0
0.97333	-0
0.97700	-0
0.98067	-0
0.98433	-1
0.98800	-1
0.99167	-1
0.99533	-1
0.99900	-1
1.00267	-1
1.00633	-1
1.01000	-1
1.01367	-1
1.01733	-1
1.02100	-1
1.02467	-1
1.02833	-1
1.03200	-1
1.03567	-1
1.03933	-1
1.04300	-1
1.04667	-2
1.05033	-2
1.05400	-2
1.05767	-2
1.06133	-3
1.06500	-3
1.06867	-3
1.07233	-3
1.07600	-3
1.07967	-3
1.08333	-3
1.08700	-3
1.09067	-3
1.09433	-3
1.09800	-3
1.10167	-2
1.10533	-2
1.10900	-2
1.11267	-2
1.11633	-2
1.12000	-2
1.12367	-1
1.12733	-1
1.13100	-1
1.13467	-1
1.13833	-1
1.14200	-2
1.14567	-2
1.14933	-2
1.15300	-2
1.15667	-2
1.16033	-1
1.16400	-1
1.16767	-1
1.17133	-1
1.17500	-1
1.17867	-1
1.18233	-1
1.18600	-1
1.18967	-2
1.19333	-2
1.19700	-3
1.20067	-3
1.20433	-4
1.20800	-4
1.21167	-4
1.21533	-4
1.21900	-4
1.22267	-4
1.22633	-4
1.23000	-4
1.23367	-4
1.23733	-3
1.24100	-3
1.24467	-3
1.24833	-3
1.25200	-3
1.25567	-3
1.25933	-3
1.26300	-3
1.26667	-3
1.27033	-3
1.27400	-3
1.27767	-3
1.28133	-3
1.28500	-3
1.28867	-3
1.29233	-3
1.29600	-3
1.29967	-3
1.30333	-3
1.30700	-3
1.31067	-3
1.31433	-4
1.31800	-4
1.32167	-4
1.32533	-4
1.32900	-4
1.33267	-4
1.33633	-4
1.34000	-4
1.34367	-3
1.34733	-3
1.35100	-3
1.35467	-3
1.35833	-3
1.36200	-3
1.36567	-3
1.36933	-2
1.37300	-2
1.37667	-2
1.38033	-2
1.38400	-3
1.38767	-3
1.39133	-3
1.39500	-3
1.39867	-3
1.40233	-3
1.40600	-3
1.40967	-3
1.41333	-3
1.41700	-3
1.42067	-3
1.42433	-3
1.42800	-3
1.43167	-3
1.43533	-3
1.43900	-3
1.44267	-2
1.44633	-2
1.45000	-2
1.45367	-2
1.45733	-2
1.46100	-2
1.46467	-2
1.46833	-2
1.47200	-2
1.47567	-2
1.47933	-2
1.48300	-3
1.48667	-3
1.49033	-3
1.49400	-3
1.49767	-2
1.50133	-2
1.50500	-2
1.50867	-2
1.51233	-2
1.51600	-3
1.51967	-3
1.52333	-3
1.52700	-3
1.53067	-3
1.53433	-3
1.53800	-3
1.54167	-3
1.54533	-3
1.54900	-3
1.55267	-3
1.55633	-3
1.56000	-3
1.56367	-3
1.56733	-3
1.57100	-3
1.57467	-3
1.57833	-3
1.58200	-3
1.58567	-3
1.58933	-4
1.59300	-4
1.59667	-5
1.60033	-6
1.60400	-7
1.60767	-8
1.61133	-9
1.61500	-10
1.61867	-12
1.62233	-15
1.62600	-17
1.62967	-20
1.63333	-23
1.63700	-26
1.64067	-29
1.64433	-32
1.64800	-35
1.65167	-38
1.65533	-41
1.65900	-45
1.66267	-48
1.66633	-52
1.67000	-57
1.67367	-61
1.67733	-65
1.68100	-70
1.68467	-74
1.68833	-78
1.69200	-81
1.69567	-84
1.69933	-87
1.70300	-89
1.70667	-91
1.71033	-93
1.71400	-94
1.71767	-95
1.72133	-96
1.72500	-97
1.72867	-97
1.73233	-98
1.73600	-98
1.73967	-98
1.74333	-99
1.74700	-99
1.75067	-100
1.75433	-100
1.75800	-100
1.76167	-100
1.76533	-100
1.76900	-101
1.77267	-101
1.77633	-101
1.78000	-101
1.78367	-101
1.78733	-101
1.79100	-101
1.79467	-101
1.79833	-101
1.80200	-102
1.80567	-102
1.80933	-103
1.81300	-103
1.81667	-104
1.82033	-103
1.82400	-103
1.82767	-102
1.83133	-101
1.83500	-101
1.83867	-101
1.84233	-101
1.84600	-101
1.84967	-101
1.85333	-101
1.85700	-101
1.86067	-101
1.86433	-101
1.86800	-101
1.87167	-101
1.87533	-101
1.87900	-101
1.88267	-101
1.88633	-100
1.89000	-100
1.89367	-99
1.89733	-99
1.90100	-98
1.90467	-98
1.90833	-98
1.91200	-98
1.91567	-98
1.91933	-98
1.92300	-97
1.92667	-97
1.93033	-97
1.93400	-97
1.93767	-97
1.94133	-97
1.94500	-98
1.94867	-98
1.95233	-97
1.95600	-97
1.95967	-97
1.96333	-97
1.96700	-97
1.97067	-96
1.97433	-97
1.97800	-97
1.98167	-97
1.98533	-97
1.98900	-98
1.99267	-98
1.99633	-98
2.00000	-98
2.00367	-98
2.00733	-97
2.01100	-96
2.01467	-95
2.01833	-94
2.02200	-93
2.02567	-93
2.02933	-92
2.03300	-92
2.03667	-91
2.04033	-91
2.04400	-91
2.04767	-91
2.05133	-91
2.05500	-91
2.05867	-91
2.06233	-91
2.06600	-91
2.06967	-92
2.07333	-92
2.07700	-92
2.08067	-92
2.08433	-92
2.08800	-92
2.09167	-91
2.09533	-90
2.09900	-89
2.10267	-88
2.10633	-87
2.11000	-86
2.11367	-86
2.11733	-86
2.12100	-86
2.12467	-86
2.12833	-86
2.13200	-86
2.13567	-86
2.13933	-86
2.14300	-86
2.14667	-86
2.15033	-85
2.15400	-84
2.15767	-83
2.16133	-83
2.16500	-83
2.16867	-83
2.17233	-83
2.17600	-83
2.17967	-82
2.18333	-81
2.18700	-80
2.19067	-79
2.19433	-78
2.19800	-78
2.20167	-78
2.20533	-78
2.20900	-80
2.21267	-81
2.21633	-82
2.22000	-82
2.22367	-82
2.22733	-82
2.23100	-81
2.23467	-80
2.23833	-80
2.24200	-79
2.24567	-79
2.24933	-78
2.25300	-78
2.25667	-77
2.26033	-77
2.26400	-76
2.26767	-76
2.27133	-76
2.27500	-76
2.27867	-76
2.28233	-76
2.28600	-75
2.28967	-75
2.29333	-75
2.29700	-74
2.30067	-73
2.30433	-73
2.30800	-73
2.31167	-73
2.31533	-73
2.31900	-73
2.32267	-73
2.32633	-73
2.33000	-72
2.33367	-71
2.33733	-70
2.34100	-69
2.34467	-68
2.34833	-67
2.35200	-66
2.35567	-66
2.35933	-65
2.36300	-65
2.36667	-63
2.37033	-61
2.37400	-59
2.37767	-56
2.38133	-53
2.38500	-50
2.38867	-46
2.39233	-42
2.39600	-38
2.39967	-34
2.40333	-30
2.40700	-26
2.41067	-21
2.41433	-18
2.41800	-14
2.42167	-11
2.42533	-8
2.42900	-6
2.43267	-4
2.43633	-2
2.44000	-0
2.44367	1
2.44733	2
2.45100	3
2.45467	5
2.45833	6
2.46200	7
2.46567	7
2.46933	8
2.47300	9
2.47667	11
2.48033	12
2.48400	13
2.48767	14
2.49133	15
2.49500	16
2.49867	17
2.50233	17
2.50600	17
2.50967	17
2.51333	17
2.51700	17
2.52067	17
2.52433	16
2.52800	16
2.53167	15
2.53533	14
2.53900	13
2.54267	12
2.54633	12
2.55000	12
2.55367	12
2.55733	12
2.56100	12
2.56467	13
2.56833	13
2.57200	14
2.57567	15
2.57933	16
2.58300	17
2.58667	18
2.59033	19
2.59400	19
2.59767	20
2.60133	20
2.60500	20
2.60867	19
2.61233	18
2.61600	18
2.61967	18
2.62333	18
2.62700	18
2.63067	19
2.63433	20
2.63800	21
2.64167	22
2.64533	23
2.64900	24
2.65267	25
2.65633	26
2.66000	27
2.66367	28
2.66733	28
2.67100	28
2.67467	28
2.67833	28
2.68200	28
2.68567	27
2.68933	27
2.69300	27
2.69667	27
2.70033	26
2.70400	26
2.70767	26
2.71133	26
2.71500	25
2.71867	25
2.72233	25
2.72600	25
2.72967	25
2.73333	25
2.73700	25
2.74067	25
2.74433	26
2.74800	26
2.75167	27
2.75533	27
2.75900	28
2.76267	28
2.76633	28
2.77000	29
2.77367	29
2.77733	29
2.78100	29
2.78467	29
2.78833	30
2.79200	30
2.79567	30
2.79933	29
2.80300	29
2.80667	29
2.81033	29
2.81400	29
2.81767	29
2.82133	29
2.82500	29
2.82867	28
2.83233	28
2.83600	28
2.83967	28
2.84333	28
2.84700	28
2.85067	28
2.85433	28
2.85800	26
2.86167	24
2.86533	19
2.86900	11
2.87267	-0
2.87633	-17
2.88000	-38
2.88367	-66
2.88733	-100
2.89100	-140
2.89467	-187
2.89833	-241
2.90200	-300
2.90567	-365
2.90933	-436
2.91300	-511
2.91667	-590
2.92033	-674
2.92400	-761
2.92767	-851
2.93133	-944
2.93500	-1040
2.93867	-1137
2.94233	-1236
2.94600	-1337
2.94967	-1432
2.95333	-1509
2.95700	-1554
2.96067	-1563
2.96433	-1534
2.96800	-1472
2.97167	-1386
2.97533	-1284
2.97900	-1173
2.98267	-1059
2.98633	-947
2.99000	-840
2.99367	-739
2.99733	-647
3.00100	-563
3.00467	-488
3.00833	-421
3.01200	-362
3.01567	-310
3.01933	-265
3.02300	-226
3.02667	-192
3.03033	-163
3.03400	-138
3.03767	-116
3.04133	-97
3.04500	-81
3.04867	-68
3.05233	-56
3.05600	-46
3.05967	-38
3.06333	-31
3.06700	-24
3.07067	-19
3.07433	-15
3.07800	-11
3.08167	-8
3.08533	-5
3.08900	-2
3.09267	0
3.09633	2
3.10000	4
3.10367	5
3.10733	6
3.11100	8
3.11467	9
3.11833	10
3.12200	11
3.12567	12
3.12933	12
3.13300	13
3.13667	14
3.14033	15
3.14400	16
3.14767	16
3.15133	17
3.15500	17
3.15867	18
3.16233	18
3.16600	19
3.16967	19
3.17333	19
3.17700	19
3.18067	19
3.18433	20
3.18800	20
3.19167	20
3.19533	20
3.19900	20
3.20267	21
3.20633	21
3.21000	21
3.21367	22
3.21733	22
3.22100	23
3.22467	23
3.22833	23
3.23200	23
3.23567	24
3.23933	24
3.24300	24
3.24667	24
3.25033	24
3.25400	24
3.25767	24
3.26133	24
3.26500	24
3.26867	25
3.27233	25
3.27600	25
3.27967	25
3.28333	26
3.28700	26
3.29067	26
3.29433	26
3.29800	26
3.30167	26
3.30533	26
3.30900	26
3.31267	26
3.31633	26
3.32000	26
3.32367	27
3.32733	27
3.33100	27
3.33467	28
3.33833	28
3.34200	28
3.34567	28
3.34933	28
3.35300	28
3.35667	29
3.36033	29
3.36400	29
3.36767	29
3.37133	29
3.37500	29
3.37867	29
3.38233	29
3.38600	29
3.38967	28
3.39333	28
3.39700	28
3.40067	28
3.40433	28
3.40800	28
3.41167	28
3.41533	29
3.41900	29
3.42267	29
3.42633	30
3.43000	30
3.43367	30
3.43733	30
3.44100	30
3.44467	30
3.44833	30
3.45200	30
3.45567	30
3.45933	30
3.46300	30
3.46667	30
3.47033	30
3.47400	30
3.47767	30
3.48133	30
3.48500	30
3.48867	29
3.49233	29
3.49600	29
3.49967	29
3.50333	28
3.50700	28
3.51067	28
3.51433	28
3.51800	28
3.52167	28
3.52533	28
3.52900	28
3.53267	28
3.53633	29
3.54000	29
3.54367	29
3.54733	29
3.55100	29
3.55467	29
3.55833	29
3.56200	29
3.56567	29
3.56933	29
3.57300	29
3.57667	29
3.58033	29
3.58400	29
3.58767	29
3.59133	29
3.59500	29
3.59867	29
3.60233	29
3.60600	29
3.60967	29
3.61333	30
3.61700	30
3.62067	30
3.62433	31
3.62800	31
3.63167	31
3.63533	31
3.63900	31
3.64267	31
3.64633	31
3.65000	31
3.65367	31
3.65733	31
3.66100	31
3.66467	31
3.66833	31
3.67200	31
3.67567	31
3.67933	31
3.68300	31
3.68667	31
3.69033	31
3.69400	31
3.69767	31
3.70133	31
3.70500	31
3.70867	32
3.71233	32
3.71600	32
3.71967	32
3.72333	32
3.72700	32
3.73067	32
3.73433	31
3.73800	31
3.74167	31
3.74533	31
3.74900	31
3.75267	31
3.75633	31
3.76000	31
3.76367	31
3.76733	30
3.77100	30
3.77467	30
3.77833	30
3.78200	30
3.78567	29
3.78933	29
3.79300	29
3.79667	29
3.80033	29
3.80400	29
3.80767	29
3.81133	29
3.81500	29
3.81867	28
3.82233	28
3.82600	28
3.82967	28
3.83333	28
3.83700	28
3.84067	28
3.84433	28
3.84800	28
3.85167	28
3.85533	28
3.85900	28
3.86267	28
3.86633	28
3.87000	28
3.87367	28
3.87733	28
3.88100	28
3.88467	28
3.88833	29
3.89200	29
3.89567	29
3.89933	29
3.90300	30
3.90667	30
3.91033	30
3.91400	30
3.91767	30
3.92133	29
3.92500	29
3.92867	29
3.93233	29
3.93600	29
3.93967	30
3.94333	30
3.94700	30
3.95067	30
3.95433	30
3.95800	30
3.96167	30
3.96533	30
3.96900	29
3.97267	29
3.97633	29
3.98000	29
3.98367	29
3.98733	29
3.99100	29
3.99467	29
3.99833	29

[Chromatogram (Ch3)]
Interval(msec)	220
# of Points	1091
Start Time(min)	0.002
End Time(min)	3.998
R.Time (min)	Intensity
0.00167	-0
0.00533	-0
0.00900	-1
0.01267	-1
0.01633	2
0.02000	5
0.02367	5
0.02733	4
0.03100	3
0.03467	1
0.03833	2
0.04200	1
0.04567	0
0.04933	-2
0.05300	-4
0.05667	-2
0.06033	-3
0.06400	-5
0.06767	-4
0.07133	-2
0.07500	-2
0.07867	-1
0.08233	-1
0.08600	-2
0.08967	-2
0.09333	0
0.09700	2
0.10067	2
0.10433	1
0.10800	1
0.11167	-2
0.11533	-3
0.11900	-2
0.12267	-1
0.12633	3
0.13000	5
0.13367	5
0.13733	4
0.14100	4
0.14467	2
0.14833	2
0.15200	2
0.15567	1
0.15933	1
0.16300	3
0.16667	2
0.17033	2
0.17400	3
0.17767	4
0.18133	5
0.18500	4
0.18867	4
0.19233	7
0.19600	10
0.19967	12
0.20333	11
0.20700	10
0.21067	8
0.21433	7
0.21800	7
0.22167	6
0.22533	6
0.22900	7
0.23267	8
0.23633	10
0.24000	11
0.24367	9
0.24733	8
0.25100	8
0.25467	8
0.25833	8
0.26200	8
0.26567	8
0.26933	7
0.27300	5
0.27667	5
0.28033	5
0.28400	4
0.28767	3
0.29133	4
0.29500	3
0.29867	5
0.30233	7
0.30600	8
0.30967	9
0.31333	9
0.31700	7
0.32067	6
0.32433	7
0.32800	6
0.33167	7
0.33533	7
0.33900	7
0.34267	8
0.34633	7
0.35000	8
0.35367	9
0.35733	8
0.36100	7
0.36467	4
0.36833	3
0.37200	2
0.37567	2
0.37933	2
0.38300	3
0.38667	5
0.39033	5
0.39400	5
0.39767	6
0.40133	6
0.40500	6
0.40867	7
0.41233	7
0.41600	6
0.41967	8
0.42333	9
0.42700	11
0.43067	11
0.43433	10
0.43800	7
0.44167	6
0.44533	5
0.44900	5
0.45267	5
0.45633	6
0.46000	6
0.46367	5
0.46733	6
0.47100	7
0.47467	8
0.47833	9
0.48200	8
0.48567	7
0.48933	6
0.49300	5
0.49667	6
0.50033	6
0.50400	5
0.50767	5
0.51133	6
0.51500	5
0.51867	6
0.52233	9
0.52600	10
0.52967	10
0.53333	11
0.53700	11
0.54067	8
0.54433	6
0.54800	8
0.55167	10
0.55533	10
0.55900	9
0.56267	8
0.56633	8
0.57000	6
0.57367	7
0.57733	8
0.58100	6
0.58467	7
0.58833	7
0.59200	5
0.59567	5
0.59933	6
0.60300	6
0.60667	6
0.61033	5
0.61400	6
0.61767	5
0.62133	5
0.62500	4
0.62867	5
0.63233	5
0.63600	5
0.63967	4
0.64333	4
0.64700	4
0.65067	6
0.65433	8
0.65800	10
0.66167	9
0.66533	8
0.66900	9
0.67267	9
0.67633	10
0.68000	11
0.68367	9
0.68733	7
0.69100	6
0.69467	5
0.69833	6
0.70200	8
0.70567	8
0.70933	9
0.71300	9
0.71667	7
0.72033	7
0.72400	7
0.72767	6
0.73133	7
0.73500	8
0.73867	7
0.74233	7
0.74600	5
0.74967	5
0.75333	6
0.75700	6
0.76067	7
0.76433	7
0.76800	5
0.77167	6
0.77533	7
0.77900	7
0.78267	8
0.78633	8
0.79000	8
0.79367	8
0.79733	8
0.80100	6
0.80467	7
0.80833	8
0.81200	6
0.81567	5
0.81933	6
0.82300	8
0.82667	9
0.83033	9
0.83400	8
0.83767	7
0.84133	7
0.84500	8
0.84867	9
0.85233	10
0.85600	10
0.85967	9
0.86333	8
0.86700	7
0.87067	6
0.87433	6
0.87800	6
0.88167	5
0.88533	4
0.88900	3
0.89267	3
0.89633	2
0.90000	3
0.90367	4
0.90733	4
0.91100	5
0.91467	8
0.91833	9
0.92200	9
0.92567	9
0.92933	10
0.93300	9
0.93667	8
0.94033	8
0.94400	9
0.94767	10
0.95133	12
0.95500	13
0.95867	13
0.96233	12
0.96600	10
0.96967	5
0.97333	3
0.97700	4
0.98067	5
0.98433	5
0.98800	4
0.99167	4
0.99533	6
0.99900	8
1.00267	8
1.00633	7
1.01000	6
1.01367	6
1.01733	6
1.02100	5
1.02467	3
1.02833	2
1.03200	1
1.03567	1
1.03933	1
1.04300	2
1.04667	2
1.05033	5
1.05400	7
1.05767	8
1.06133	9
1.06500	9
1.06867	10
1.07233	10
1.07600	10
1.07967	11
1.08333	11
1.08700	9
1.09067	6
1.09433	5
1.09800	4
1.10167	3
1.10533	2
1.10900	3
1.11267	2
1.11633	3
1.12000	4
1.12367	4
1.12733	5
1.13100	5
1.13467	4
1.13833	4
1.14200	2
1.14567	2
1.14933	1
1.15300	-2
1.15667	-2
1.16033	-2
1.16400	-2
1.16767	-1
1.17133	-1
1.17500	-1
1.17867	-1
1.18233	-3
1.18600	-3
1.18967	-2
1.19333	-2
1.19700	-2
1.20067	-2
1.20433	-2
1.20800	-1
1.21167	-0
1.21533	-1
1.21900	-2
1.22267	-1
1.22633	0
1.23000	1
1.23367	1
1.23733	1
1.24100	1
1.24467	0
1.24833	-0
1.25200	-2
1.25567	-3
1.25933	-3
1.26300	-2
1.26667	-0
1.27033	1
1.27400	1
1.27767	1
1.28133	1
1.28500	1
1.28867	0
1.29233	-1
1.29600	-1
1.29967	0
1.30333	1
1.30700	1
1.31067	2
1.31433	3
1.31800	4
1.32167	3
1.32533	2
1.32900	2
1.33267	1
1.33633	1
1.34000	0
1.34367	-1
1.34733	-4
1.35100	-5
1.35467	-5
1.35833	-4
1.36200	-2
1.36567	-2
1.36933	-1
1.37300	-2
1.37667	-3
1.38033	-2
1.38400	-2
1.38767	-2
1.39133	-2
1.39500	-1
1.39867	1
1.40233	-1
1.40600	-2
1.40967	-3
1.41333	-5
1.41700	-5
1.42067	-3
1.42433	-2
1.42800	-2
1.43167	-2
1.43533	-2
1.43900	-3
1.44267	-4
1.44633	-3
1.45000	-0
1.45367	-0
1.45733	-2
1.46100	-2
1.46467	-4
1.46833	-4
1.47200	-1
1.47567	1
1.47933	0
1.48300	-0
1.48667	-0
1.49033	1
1.49400	2
1.49767	3
1.50133	2
1.50500	1
1.50867	-2
1.51233	-4
1.51600	-3
1.51967	-3
1.52333	-2
1.52700	-1
1.53067	-0
1.53433	-1
1.53800	-3
1.54167	-5
1.54533	-5
1.54900	-3
1.55267	-3
1.55633	-3
1.56000	-3
1.56367	-2
1.56733	-3
1.57100	-5
1.57467	-4
1.57833	-3
1.58200	-2
1.58567	-1
1.58933	0
1.59300	2
1.59667	4
1.60033	4
1.60400	3
1.60767	1
1.61133	-0
1.61500	2
1.61867	2
1.62233	1
1.62600	-0
1.62967	-2
1.63333	-3
1.63700	-5
1.64067	-5
1.64433	-4
1.64800	-2
1.65167	-1
1.65533	1
1.65900	3
1.66267	4
1.66633	3
1.67000	2
1.67367	3
1.67733	3
1.68100	6
1.68467	9
1.68833	10
1.69200	10
1.69567	10
1.69933	9
1.70300	6
1.70667	5
1.71033	4
1.71400	1
1.71767	-2
1.72133	-1
1.72500	1
1.72867	4
1.73233	5
1.73600	6
1.73967	6
1.74333	6
1.74700	5
1.75067	7
1.75433	8
1.75800	10
1.76167	9
1.76533	9
1.76900	10
1.77267	9
1.77633	8
1.78000	9
1.78367	11
1.78733	14
1.79100	15
1.79467	16
1.79833	15
1.80200	13
1.80567	13
1.80933	13
1.81300	12
1.81667	11
1.82033	11
1.82400	12
1.82767	13
1.83133	12
1.83500	12
1.83867	13
1.84233	14
1.84600	15
1.84967	16
1.85333	18
1.85700	18
1.86067	17
1.86433	18
1.86800	18
1.87167	17
1.87533	17
1.87900	18
1.88267	21
1.88633	20
1.89000	18
1.89367	18
1.89733	20
1.90100	22
1.90467	22
1.90833	22
1.91200	21
1.91567	20
1.91933	21
1.92300	22
1.92667	23
1.93033	24
1.93400	25
1.93767	25
1.94133	26
1.94500	29
1.94867	32
1.95233	33
1.95600	35
1.95967	38
1.96333	40
1.96700	39
1.97067	38
1.97433	38
1.97800	38
1.98167	39
1.98533	40
1.98900	42
1.99267	44
1.99633	44
2.00000	43
2.00367	42
2.00733	40
2.01100	41
2.01467	41
2.01833	40
2.02200	39
2.02567	40
2.02933	39
2.03300	41
2.03667	44
2.04033	47
2.04400	46
2.04767	45
2.05133	44
2.05500	44
2.05867	44
2.06233	44
2.06600	46
2.06967	47
2.07333	45
2.07700	45
2.08067	46
2.08433	46
2.08800	48
2.09167	49
2.09533	49
2.09900	50
2.10267	49
2.10633	49
2.11000	48
2.11367	46
2.11733	45
2.12100	45
2.12467	47
2.12833	49
2.13200	51
2.13567	53
2.13933	54
2.14300	54
2.14667	54
2.15033	53
2.15400	53
2.15767	54
2.16133	55
2.16500	57
2.16867	58
2.17233	58
2.17600	58
2.17967	59
2.18333	61
2.18700	63
2.19067	63
2.19433	61
2.19800	61
2.20167	64
2.20533	66
2.20900	66
2.21267	66
2.21633	63
2.22000	61
2.22367	60
2.22733	61
2.23100	64
2.23467	64
2.23833	64
2.24200	63
2.24567	63
2.24933	64
2.25300	66
2.25667	67
2.26033	68
2.26400	67
2.26767	67
2.27133	66
2.27500	66
2.27867	65
2.28233	66
2.28600	67
2.28967	67
2.29333	69
2.29700	70
2.30067	71
2.30433	71
2.30800	70
2.31167	70
2.31533	70
2.31900	72
2.32267	73
2.32633	75
2.33000	76
2.33367	75
2.33733	74
2.34100	73
2.34467	71
2.34833	71
2.35200	72
2.35567	71
2.35933	69
2.36300	69
2.36667	69
2.37033	70
2.37400	71
2.37767	74
2.38133	74
2.38500	70
2.38867	67
2.39233	69
2.39600	76
2.39967	82
2.40333	86
2.40700	87
2.41067	88
2.41433	89
2.41800	88
2.42167	89
2.42533	90
2.42900	89
2.43267	90
2.43633	90
2.44000	97
2.44367	160
2.44733	270
2.45100	382
2.45467	457
2.45833	486
2.46200	485
2.46567	483
2.46933	479
2.47300	462
2.47667	432
2.48033	393
2.48400	354
2.48767	323
2.49133	303
2.49500	295
2.49867	297
2.50233	308
2.50600	323
2.50967	332
2.51333	332
2.51700	320
2.52067	300
2.52433	276
2.52800	250
2.53167	227
2.53533	206
2.53900	190
2.54267	178
2.54633	170
2.55000	164
2.55367	159
2.55733	157
2.56100	157
2.56467	160
2.56833	165
2.57200	173
2.57567	183
2.57933	194
2.58300	207
2.58667	221
2.59033	235
2.59400	247
2.59767	257
2.60133	267
2.60500	270
2.60867	267
2.61233	259
2.61600	249
2.61967	235
2.62333	217
2.62700	200
2.63067	182
2.63433	163
2.63800	146
2.64167	132
2.64533	118
2.64900	109
2.65267	97
2.65633	85
2.66000	77
2.66367	73
2.66733	71
2.67100	70
2.67467	69
2.67833	69
2.68200	69
2.68567	72
2.68933	71
2.69300	70
2.69667	82
2.70033	107
2.70400	140
2.70767	178
2.71133	221
2.71500	264
2.71867	310
2.72233	351
2.72600	390
2.72967	426
2.73333	461
2.73700	495
2.74067	525
2.74433	553
2.74800	580
2.75167	604
2.75533	628
2.75900	652
2.76267	674
2.76633	696
2.77000	717
2.77367	733
2.77733	745
2.78100	752
2.78467	754
2.78833	756
2.79200	753
2.79567	749
2.79933	741
2.80300	732
2.80667	721
2.81033	710
2.81400	699
2.81767	689
2.82133	680
2.82500	673
2.82867	675
2.83233	699
2.83600	768
2.83967	928
2.84333	1243
2.84700	1772
2.85067	2566
2.85433	3655
2.85800	5019
2.86167	6604
2.86533	8315
2.86900	10024
2.87267	11599
2.87633	12909
2.88000	13859
2.88367	14403
2.88733	14541
2.89100	14314
2.89467	13788
2.89833	13043
2.90200	12155
2.90567	11192
2.90933	10208
2.91300	9237
2.91667	8310
2.92033	7444
2.92400	6652
2.92767	5933
2.93133	5284
2.93500	4699
2.93867	4181
2.94233	3724
2.94600	3319
2.94967	2961
2.95333	2651
2.95700	2379
2.96067	2141
2.96433	1934
2.96800	1755
2.97167	1600
2.97533	1466
2.97900	1351
2.98267	1251
2.98633	1166
2.99000	1093
2.99367	1031
2.99733	978
3.00100	934
3.00467	897
3.00833	866
3.01200	839
3.01567	814
3.01933	791
3.02300	772
3.02667	757
3.03033	747
3.03400	738
3.03767	730
3.04133	725
3.04500	722
3.04867	717
3.05233	712
3.05600	709
3.05967	709
3.06333	709
3.06700	710
3.07067	710
3.07433	709
3.07800	706
3.08167	703
3.08533	700
3.08900	699
3.09267	700
3.09633	701
3.10000	702
3.10367	701
3.10733	697
3.11100	696
3.11467	694
3.11833	694
3.12200	692
3.12567	690
3.12933	687
3.13300	683
3.13667	679
3.14033	674
3.14400	672
3.14767	670
3.15133	667
3.15500	664
3.15867	664
3.16233	661
3.16600	656
3.16967	651
3.17333	645
3.17700	642
3.18067	638
3.18433	635
3.18800	631
3.19167	629
3.19533	625
3.19900	622
3.20267	619
3.20633	616
3.21000	614
3.21367	612
3.21733	610
3.22100	608
3.22467	604
3.22833	601
3.23200	600
3.23567	597
3.23933	594
3.24300	592
3.24667	590
3.25033	589
3.25400	586
3.25767	584
3.26133	582
3.26500	578
3.26867	575
3.27233	571
3.27600	569
3.27967	569
3.28333	569
3.28700	567
3.29067	564
3.29433	563
3.29800	562
3.30167	560
3.30533	557
3.30900	553
3.31267	551
3.31633	546
3.32000	542
3.32367	539
3.32733	536
3.33100	533
3.33467	530
3.33833	528
3.34200	526
3.34567	526
3.34933	527
3.35300	526
3.35667	524
3.36033	525
3.36400	523
3.36767	519
3.37133	516
3.37500	513
3.37867	509
3.38233	507
3.38600	508
3.38967	505
3.39333	503
3.39700	502
3.40067	500
3.40433	499
3.40800	498
3.41167	497
3.41533	493
3.41900	491
3.42267	490
3.42633	486
3.43000	481
3.43367	477
3.43733	474
3.44100	472
3.44467	471
3.44833	471
3.45200	469
3.45567	467
3.45933	465
3.46300	465
3.46667	464
3.47033	462
3.47400	460
3.47767	460
3.48133	461
3.48500	460
3.48867	459
3.49233	459
3.49600	460
3.49967	461
3.50333	460
3.50700	459
3.51067	456
3.51433	454
3.51800	453
3.52167	452
3.52533	453
3.52900	452
3.53267	451
3.53633	450
3.54000	450
3.54367	450
3.54733	451
3.55100	453
3.55467	454
3.55833	454
3.56200	454
3.56567	454
3.56933	453
3.57300	451
3.57667	449
3.58033	448
3.58400	448
3.58767	448
3.59133	449
3.59500	448
3.59867	446
3.60233	444
3.60600	444
3.60967	446
3.61333	445
3.61700	443
3.62067	441
3.62433	440
3.62800	439
3.63167	440
3.63533	440
3.63900	440
3.64267	440
3.64633	441
3.65000	441
3.65367	440
3.65733	440
3.66100	440
3.66467	439
3.66833	440
3.67200	442
3.67567	443
3.67933	443
3.68300	443
3.68667	444
3.69033	443
3.69400	439
3.69767	438
3.70133	437
3.70500	437
3.70867	438
3.71233	436
3.71600	435
3.71967	435
3.72333	437
3.72700	439
3.73067	440
3.73433	442
3.73800	443
3.74167	444
3.74533	445
3.74900	445
3.75267	443
3.75633	442
3.76000	442
3.76367	439
3.76733	437
3.77100	438
3.77467	440
3.77833	441
3.78200	439
3.78567	436
3.78933	434
3.79300	434
3.79667	435
3.80033	435
3.80400	433
3.80767	432
3.81133	431
3.81500	431
3.81867	429
3.82233	427
3.82600	425
3.82967	422
3.83333	421
3.83700	421
3.84067	420
3.84433	419
3.84800	419
3.85167	419
3.85533	420
3.85900	420
3.86267	420
3.86633	420
3.87000	420
3.87367	420
3.87733	420
3.88100	418
3.88467	416
3.88833	415
3.89200	415
3.89567	416
3.89933	415
3.90300	412
3.90667	409
3.91033	406
3.91400	404
3.91767	403
3.92133	405
3.92500	407
3.92867	407
3.93233	405
3.93600	402
3.93967	400
3.94333	398
3.94700	398
3.95067	397
3.95433	395
3.95800	394
3.96167	394
3.96533	396
3.96900	396
3.97267	394
3.97633	393
3.98000	389
3.98367	386
3.98733	385
3.99100	385
3.99467	386
3.99833	384

[Status Trace (Column Oven Temperature)]
Interval(msec)	1000
# of Points	240
Start Time(min)	0.011
End Time(min)	3.994
Intensity Units	
Intensity Multiplier	1
R.Time (min)	Intensity
0.01082	35.04
0.02748	35.05
0.04415	35.05
0.06082	35.05
0.07748	35.06
0.09415	35.06
0.11082	35.07
0.12748	35.07
0.14415	35.06
0.16082	35.05
0.17748	35.04
0.19415	35.03
0.21082	35.03
0.22748	35.02
0.24415	35.01
0.26082	35.02
0.27748	35.02
0.29415	35.03
0.31082	35.03
0.32748	35.04
0.34415	35.05
0.36082	35.04
0.37748	35.03
0.39415	35.02
0.41082	35.02
0.42748	35.01
0.44415	35.00
0.46082	35.00
0.47748	34.99
0.49415	34.98
0.51082	34.98
0.52748	34.99
0.54415	35.01
0.56082	35.03
0.57748	35.03
0.59415	35.03
0.61082	35.03
0.62748	35.03
0.64415	35.03
0.66082	35.03
0.67748	35.02
0.69415	35.02
0.71082	35.02
0.72748	35.02
0.74415	35.01
0.76082	35.00
0.77748	35.00
0.79415	35.00
0.81082	35.01
0.82748	35.02
0.84415	35.01
0.86082	35.01
0.87748	35.00
0.89415	35.00
0.91082	34.99
0.92748	34.99
0.94415	35.00
0.96082	34.98
0.97748	34.98
0.99415	34.98
1.01082	34.98
1.02748	34.98
1.04415	34.98
1.06082	34.98
1.07748	34.99
1.09415	34.99
1.11082	34.99
1.12748	34.99
1.14415	34.99
1.16082	34.98
1.17748	34.98
1.19415	34.99
1.21082	35.00
1.22748	35.02
1.24415	35.03
1.26082	35.02
1.27748	35.01
1.29415	35.01
1.31082	35.02
1.32748	35.03
1.34415	35.03
1.36082	35.04
1.37748	35.04
1.39415	35.04
1.41082	35.04
1.42748	35.03
1.44415	35.03
1.46082	35.02
1.47748	35.02
1.49415	35.02
1.51082	35.02
1.52748	35.02
1.54415	35.03
1.56082	35.03
1.57748	35.03
1.59415	35.04
1.61082	35.10
1.62748	35.22
1.64415	35.40
1.66082	35.65
1.67748	35.99
1.69415	36.35
1.71082	36.70
1.72748	37.04
1.74415	37.38
1.76082	37.71
1.77748	38.04
1.79415	38.36
1.81082	38.71
1.82748	39.03
1.84415	39.36
1.86082	39.69
1.87748	40.03
1.89415	40.33
1.91082	40.66
1.92748	40.99
1.94415	41.30
1.96082	41.62
1.97748	41.94
1.99415	42.28
2.01082	42.60
2.02748	42.92
2.04415	43.24
2.06082	43.56
2.07748	43.91
2.09415	44.25
2.11082	44.56
2.12748	44.89
2.14415	45.22
2.16082	45.55
2.17748	45.88
2.19415	46.16
2.21082	46.55
2.22748	46.88
2.24415	47.21
2.26082	47.53
2.27748	47.87
2.29415	48.19
2.31082	48.54
2.32748	48.87
2.34415	49.18
2.36082	49.48
2.37748	49.68
2.39415	49.72
2.41082	49.72
2.42748	49.72
2.44415	49.72
2.46082	49.74
2.47748	49.76
2.49415	49.75
2.51082	49.75
2.52748	49.77
2.54415	49.79
2.56082	49.80
2.57748	49.81
2.59415	49.80
2.61082	49.86
2.62748	49.88
2.64415	49.86
2.66082	49.83
2.67748	49.83
2.69415	49.85
2.71082	49.86
2.72748	49.88
2.74415	49.88
2.76082	49.87
2.77748	49.86
2.79415	49.87
2.81082	49.87
2.82748	49.87
2.84415	49.88
2.86082	49.88
2.87748	49.89
2.89415	49.91
2.91082	49.92
2.92748	49.93
2.94415	49.95
2.96082	49.98
2.97748	50.00
2.99415	50.00
3.01082	50.01
3.02748	50.01
3.04415	50.01
3.06082	50.02
3.07748	50.04
3.09415	50.05
3.11082	50.06
3.12748	50.06
3.14415	50.06
3.16082	50.07
3.17748	50.08
3.19415	50.08
3.21082	50.08
3.22748	50.08
3.24415	50.08
3.26082	50.09
3.27748	50.10
3.29415	50.10
3.31082	50.10
3.32748	50.09
3.34415	50.09
3.36082	50.09
3.37748	50.09
3.39415	50.09
3.41082	50.09
3.42748	50.08
3.44415	50.07
3.46082	50.07
3.47748	50.07
3.49415	50.08
3.51082	50.09
3.52748	50.10
3.54415	50.10
3.56082	50.09
3.57748	50.10
3.59415	50.11
3.61082	50.09
3.62748	50.07
3.64415	50.07
3.66082	50.07
3.67748	50.06
3.69415	50.05
3.71082	50.04
3.72748	50.03
3.74415	50.03
3.76082	50.02
3.77748	50.03
3.79415	50.02
3.81082	50.02
3.82748	50.03
3.84415	50.03
3.86082	50.04
3.87748	50.04
3.89415	50.04
3.91082	50.04
3.92748	50.04
3.94415	50.03
3.96082	50.03
3.97748	50.03
3.99415	50.04

[Status Trace (Injection Unit Temperature)]
Interval(msec)	1000
# of Points	240
Start Time(min)	0.011
End Time(min)	3.994
Intensity Units	
Intensity Multiplier	1
R.Time (min)	Intensity
0.01082	99.97
0.02748	99.97
0.04415	99.98
0.06082	99.98
0.07748	99.98
0.09415	99.98
0.11082	99.98
0.12748	99.98
0.14415	99.98
0.16082	99.98
0.17748	99.98
0.19415	99.98
0.21082	99.98
0.22748	99.98
0.24415	99.98
0.26082	99.98
0.27748	99.98
0.29415	99.98
0.31082	99.98
0.32748	99.99
0.34415	99.98
0.36082	99.98
0.37748	99.99
0.39415	99.99
0.41082	99.99
0.42748	99.99
0.44415	99.99
0.46082	99.99
0.47748	99.99
0.49415	99.99
0.51082	99.99
0.52748	99.99
0.54415	99.99
0.56082	99.99
0.57748	99.99
0.59415	99.99
0.61082	99.99
0.62748	99.99
0.64415	99.99
0.66082	99.99
0.67748	99.99
0.69415	99.99
0.71082	99.98
0.72748	99.99
0.74415	99.99
0.76082	99.99
0.77748	99.99
0.79415	99.99
0.81082	99.98
0.82748	99.98
0.84415	99.99
0.86082	99.98
0.87748	99.98
0.89415	99.99
0.91082	99.99
0.92748	99.99
0.94415	99.99
0.96082	99.98
0.97748	99.99
0.99415	99.99
1.01082	99.99
1.02748	99.99
1.04415	99.99
1.06082	99.99
1.07748	99.99
1.09415	99.99
1.11082	99.99
1.12748	99.99
1.14415	99.99
1.16082	99.99
1.17748	99.98
1.19415	99.99
1.21082	99.99
1.22748	99.99
1.24415	99.99
1.26082	99.98
1.27748	99.97
1.29415	99.99
1.31082	99.99
1.32748	99.98
1.34415	99.99
1.36082	99.99
1.37748	99.99
1.39415	99.99
1.41082	99.98
1.42748	99.98
1.44415	99.99
1.46082	99.99
1.47748	99.99
1.49415	99.99
1.51082	99.99
1.52748	99.99
1.54415	99.99
1.56082	99.99
1.57748	99.99
1.59415	99.99
1.61082	99.98
1.62748	99.99
1.64415	99.98
1.66082	99.99
1.67748	99.99
1.69415	99.99
1.71082	99.99
1.72748	99.99
1.74415	99.99
1.76082	99.99
1.77748	99.98
1.79415	99.99
1.81082	99.99
1.82748	99.99
1.84415	99.99
1.86082	99.98
1.87748	99.98
1.89415	99.98
1.91082	99.98
1.92748	99.98
1.94415	99.99
1.96082	99.98
1.97748	99.98
1.99415	99.98
2.01082	99.98
2.02748	99.98
2.04415	99.98
2.06082	99.97
2.07748	99.98
2.09415	99.97
2.11082	99.98
2.12748	99.98
2.14415	99.97
2.16082	99.97
2.17748	99.97
2.19415	99.98
2.21082	99.97
2.22748	99.97
2.24415	99.97
2.26082	99.97
2.27748	99.97
2.29415	99.97
2.31082	99.97
2.32748	99.96
2.34415	99.97
2.36082	99.97
2.37748	99.98
2.39415	99.97
2.41082	99.97
2.42748	99.97
2.44415	99.97
2.46082	99.97
2.47748	99.97
2.49415	99.97
2.51082	99.97
2.52748	99.97
2.54415	99.97
2.56082	99.98
2.57748	99.97
2.59415	99.98
2.61082	99.98
2.62748	99.98
2.64415	99.98
2.66082	99.98
2.67748	99.98
2.69415	99.99
2.71082	99.99
2.72748	99.99
2.74415	99.99
2.76082	99.99
2.77748	99.99
2.79415	99.99
2.81082	99.99
2.82748	100.00
2.84415	100.00
2.86082	100.00
2.87748	100.00
2.89415	100.00
2.91082	100.01
2.92748	100.01
2.94415	100.00
2.96082	100.01
2.97748	100.01
2.99415	100.01
3.01082	100.01
3.02748	100.01
3.04415	100.02
3.06082	100.02
3.07748	100.02
3.09415	100.01
3.11082	100.02
3.12748	100.02
3.14415	100.02
3.16082	100.02
3.17748	100.02
3.19415	100.03
3.21082	100.03
3.22748	100.02
3.24415	100.03
3.26082	100.03
3.27748	100.03
3.29415	100.03
3.31082	100.03
3.32748	100.03
3.34415	100.03
3.36082	100.04
3.37748	100.04
3.39415	100.04
3.41082	100.04
3.42748	100.04
3.44415	100.04
3.46082	100.04
3.47748	100.04
3.49415	100.04
3.51082	100.04
3.52748	100.05
3.54415	100.04
3.56082	100.05
3.57748	100.05
3.59415	100.05
3.61082	100.04
3.62748	100.05
3.64415	100.05
3.66082	100.05
3.67748	100.05
3.69415	100.05
3.71082	100.05
3.72748	100.05
3.74415	100.05
3.76082	100.05
3.77748	100.05
3.79415	100.04
3.81082	100.04
3.82748	100.05
3.84415	100.05
3.86082	100.05
3.87748	100.05
3.89415	100.05
3.91082	100.05
3.92748	100.05
3.94415	100.05
3.96082	100.05
3.97748	100.05
3.99415	100.05

[Status Trace (Carrier Gas Pressure)]
Interval(msec)	1000
# of Points	240
Start Time(min)	0.011
End Time(min)	3.994
Intensity Units	
Intensity Multiplier	1
R.Time (min)	Intensity
0.01082	58.00
0.02748	55.07
0.04415	57.47
0.06082	59.58
0.07748	59.17
0.09415	58.02
0.11082	57.99
0.12748	58.01
0.14415	58.01
0.16082	58.00
0.17748	58.00
0.19415	58.00
0.21082	58.00
0.22748	58.00
0.24415	58.00
0.26082	58.00
0.27748	58.00
0.29415	58.00
0.31082	58.00
0.32748	58.00
0.34415	58.00
0.36082	58.00
0.37748	58.00
0.39415	58.00
0.41082	58.00
0.42748	58.00
0.44415	58.00
0.46082	58.00
0.47748	58.00
0.49415	58.00
0.51082	58.00
0.52748	58.00
0.54415	58.00
0.56082	58.00
0.57748	58.00
0.59415	58.00
0.61082	58.00
0.62748	58.00
0.64415	58.00
0.66082	58.00
0.67748	58.00
0.69415	58.00
0.71082	58.00
0.72748	58.00
0.74415	58.00
0.76082	58.00
0.77748	58.00
0.79415	58.00
0.81082	58.00
0.82748	58.00
0.84415	58.00
0.86082	58.00
0.87748	58.00
0.89415	58.00
0.91082	58.00
0.92748	58.00
0.94415	58.00
0.96082	58.00
0.97748	58.00
0.99415	58.00
1.01082	58.00
1.02748	58.00
1.04415	58.00
1.06082	58.00
1.07748	58.00
1.09415	58.00
1.11082	58.00
1.12748	58.00
1.14415	58.00
1.16082	58.00
1.17748	58.00
1.19415	58.00
1.21082	58.00
1.22748	58.00
1.24415	58.00
1.26082	58.00
1.27748	58.00
1.29415	58.00
1.31082	58.00
1.32748	58.00
1.34415	58.00
1.36082	58.00
1.37748	58.00
1.39415	58.00
1.41082	58.00
1.42748	58.00
1.44415	58.00
1.46082	58.00
1.47748	58.00
1.49415	58.00
1.51082	58.00
1.52748	58.00
1.54415	58.00
1.56082	58.00
1.57748	58.00
1.59415	58.00
1.61082	58.00
1.62748	58.00
1.64415	58.01
1.66082	58.00
1.67748	58.01
1.69415	58.00
1.71082	58.00
1.72748	58.00
1.74415	58.00
1.76082	58.00
1.77748	58.00
1.79415	58.00
1.81082	58.00
1.82748	58.00
1.84415	58.00
1.86082	58.00
1.87748	58.00
1.89415	58.00
1.91082	58.00
1.92748	58.00
1.94415	58.00
1.96082	58.00
1.97748	58.00
1.99415	58.00
2.01082	58.00
2.02748	58.00
2.04415	58.00
2.06082	58.00
2.07748	58.00
2.09415	58.00
2.11082	58.00
2.12748	58.00
2.14415	58.00
2.16082	58.00
2.17748	58.00
2.19415	58.00
2.21082	58.00
2.22748	58.00
2.24415	58.00
2.26082	58.00
2.27748	58.00
2.29415	58.00
2.31082	58.00
2.32748	58.00
2.34415	58.00
2.36082	58.00
2.37748	57.99
2.39415	57.99
2.41082	57.99
2.42748	58.00
2.44415	58.00
2.46082	58.00
2.47748	58.00
2.49415	58.00
2.51082	57.99
2.52748	57.98
2.54415	58.00
2.56082	58.00
2.57748	58.00
2.59415	58.00
2.61082	58.00
2.62748	58.00
2.64415	58.00
2.66082	58.00
2.67748	58.00
2.69415	58.00
2.71082	58.00
2.72748	58.00
2.74415	58.00
2.76082	58.00
2.77748	58.00
2.79415	58.00
2.81082	58.00
2.82748	58.00
2.84415	58.00
2.86082	58.00
2.87748	58.00
2.89415	58.00
2.91082	58.00
2.92748	58.00
2.94415	58.00
2.96082	58.00
2.97748	58.00
2.99415	58.00
3.01082	58.00
3.02748	58.00
3.04415	58.00
3.06082	58.00
3.07748	58.00
3.09415	58.00
3.11082	58.00
3.12748	58.00
3.14415	58.00
3.16082	58.00
3.17748	58.00
3.19415	58.00
3.21082	58.00
3.22748	58.00
3.24415	58.00
3.26082	58.00
3.27748	58.00
3.29415	58.00
3.31082	58.00
3.32748	58.00
3.34415	58.00
3.36082	58.00
3.37748	58.00
3.39415	58.00
3.41082	58.00
3.42748	58.00
3.44415	58.00
3.46082	58.00
3.47748	58.00
3.49415	58.00
3.51082	58.00
3.52748	58.00
3.54415	58.00
3.56082	58.00
3.57748	58.00
3.59415	58.00
3.61082	58.00
3.62748	58.00
3.64415	58.00
3.66082	58.00
3.67748	58.00
3.69415	58.00
3.71082	58.00
3.72748	58.00
3.74415	58.00
3.76082	58.00
3.77748	58.00
3.79415	58.00
3.81082	58.00
3.82748	58.00
3.84415	58.00
3.86082	58.00
3.87748	58.00
3.89415	58.00
3.91082	58.00
3.92748	58.00
3.94415	58.00
3.96082	58.00
3.97748	58.00
3.99415	58.00

[Status Trace (Carrier Gas Flow)]
Interval(msec)	1000
# of Points	240
Start Time(min)	0.011
End Time(min)	3.994
Intensity Units	
Intensity Multiplier	1
R.Time (min)	Intensity
0.01082	34.53
0.02748	34.54
0.04415	34.55
0.06082	34.55
0.07748	34.50
0.09415	34.51
0.11082	34.52
0.12748	34.52
0.14415	34.51
0.16082	34.52
0.17748	34.52
0.19415	34.52
0.21082	34.52
0.22748	34.52
0.24415	34.52
0.26082	34.52
0.27748	34.52
0.29415	34.52
0.31082	34.51
0.32748	34.52
0.34415	34.52
0.36082	34.52
0.37748	34.52
0.39415	34.52
0.41082	34.52
0.42748	34.52
0.44415	34.52
0.46082	34.52
0.47748	34.52
0.49415	34.52
0.51082	34.52
0.52748	34.52
0.54415	34.52
0.56082	34.52
0.57748	34.52
0.59415	34.52
0.61082	34.52
0.62748	34.52
0.64415	34.52
0.66082	34.52
0.67748	34.52
0.69415	34.53
0.71082	34.52
0.72748	34.52
0.74415	34.52
0.76082	34.52
0.77748	34.52
0.79415	34.52
0.81082	34.52
0.82748	34.52
0.84415	34.52
0.86082	34.52
0.87748	34.52
0.89415	34.52
0.91082	34.51
0.92748	34.52
0.94415	34.51
0.96082	34.52
0.97748	34.52
0.99415	34.53
1.01082	34.52
1.02748	34.52
1.04415	34.52
1.06082	34.52
1.07748	34.52
1.09415	34.52
1.11082	34.52
1.12748	34.52
1.14415	34.52
1.16082	34.52
1.17748	34.52
1.19415	34.52
1.21082	34.52
1.22748	34.52
1.24415	34.52
1.26082	34.52
1.27748	34.52
1.29415	34.52
1.31082	34.52
1.32748	34.52
1.34415	34.52
1.36082	34.52
1.37748	34.52
1.39415	34.52
1.41082	34.52
1.42748	34.52
1.44415	34.52
1.46082	34.52
1.47748	34.52
1.49415	34.52
1.51082	34.52
1.52748	34.52
1.54415	34.52
1.56082	34.52
1.57748	34.52
1.59415	34.52
1.61082	34.52
1.62748	34.52
1.64415	34.52
1.66082	34.51
1.67748	34.52
1.69415	34.52
1.71082	34.52
1.72748	34.51
1.74415	34.51
1.76082	34.52
1.77748	34.52
1.79415	34.51
1.81082	34.52
1.82748	34.52
1.84415	34.51
1.86082	34.52
1.87748	34.52
1.89415	34.52
1.91082	34.52
1.92748	34.52
1.94415	34.52
1.96082	34.52
1.97748	34.52
1.99415	34.52
2.01082	34.52
2.02748	34.51
2.04415	34.51
2.06082	34.52
2.07748	34.52
2.09415	34.51
2.11082	34.52
2.12748	34.52
2.14415	34.52
2.16082	34.52
2.17748	34.52
2.19415	34.52
2.21082	34.52
2.22748	34.52
2.24415	34.52
2.26082	34.52
2.27748	34.51
2.29415	34.52
2.31082	34.52
2.32748	34.52
2.34415	34.52
2.36082	34.52
2.37748	34.52
2.39415	34.52
2.41082	34.52
2.42748	34.52
2.44415	34.52
2.46082	34.52
2.47748	34.52
2.49415	34.52
2.51082	34.52
2.52748	34.52
2.54415	34.53
2.56082	34.52
2.57748	34.52
2.59415	34.52
2.61082	34.53
2.62748	34.52
2.64415	34.52
2.66082	34.52
2.67748	34.52
2.69415	34.52
2.71082	34.51
2.72748	34.53
2.74415	34.51
2.76082	34.52
2.77748	34.52
2.79415	34.53
2.81082	34.51
2.82748	34.51
2.84415	34.52
2.86082	34.52
2.87748	34.52
2.89415	34.52
2.91082	34.52
2.92748	34.51
2.94415	34.52
2.96082	34.52
2.97748	34.51
2.99415	34.52
3.01082	34.52
3.02748	34.52
3.04415	34.52
3.06082	34.52
3.07748	34.53
3.09415	34.52
3.11082	34.52
3.12748	34.52
3.14415	34.52
3.16082	34.52
3.17748	34.52
3.19415	34.53
3.21082	34.52
3.22748	34.51
3.24415	34.52
3.26082	34.52
3.27748	34.52
3.29415	34.52
3.31082	34.52
3.32748	34.52
3.34415	34.52
3.36082	34.52
3.37748	34.52
3.39415	34.52
3.41082	34.51
3.42748	34.52
3.44415	34.52
3.46082	34.52
3.47748	34.51
3.49415	34.51
3.51082	34.51
3.52748	34.52
3.54415	34.52
3.56082	34.51
3.57748	34.52
3.59415	34.52
3.61082	34.51
3.62748	34.51
3.64415	34.52
3.66082	34.52
3.67748	34.52
3.69415	34.52
3.71082	34.52
3.72748	34.51
3.74415	34.52
3.76082	34.52
3.77748	34.52
3.79415	34.52
3.81082	34.52
3.82748	34.52
3.84415	34.51
3.86082	34.52
3.87748	34.52
3.89415	34.52
3.91082	34.52
3.92748	34.52
3.94415	34.51
3.96082	34.51
3.97748	34.52
3.99415	34.52

[Status Trace (Column Flow)]
Interval(msec)	1000
# of Points	240
Start Time(min)	0.011
End Time(min)	3.994
Intensity Units	
Intensity Multiplier	1
R.Time (min)	Intensity
0.01082	5.50
0.02748	5.16
0.04415	5.44
0.06082	5.68
0.07748	5.64
0.09415	5.50
0.11082	5.50
0.12748	5.50
0.14415	5.50
0.16082	5.50
0.17748	5.50
0.19415	5.50
0.21082	5.50
0.22748	5.50
0.24415	5.50
0.26082	5.50
0.27748	5.50
0.29415	5.50
0.31082	5.50
0.32748	5.50
0.34415	5.50
0.36082	5.50
0.37748	5.50
0.39415	5.50
0.41082	5.50
0.42748	5.50
0.44415	5.50
0.46082	5.50
0.47748	5.50
0.49415	5.50
0.51082	5.50
0.52748	5.50
0.54415	5.50
0.56082	5.50
0.57748	5.50
0.59415	5.50
0.61082	5.50
0.62748	5.50
0.64415	5.50
0.66082	5.50
0.67748	5.50
0.69415	5.50
0.71082	5.50
0.72748	5.50
0.74415	5.50
0.76082	5.50
0.77748	5.50
0.79415	5.50
0.81082	5.50
0.82748	5.50
0.84415	5.50
0.86082	5.50
0.87748	5.50
0.89415	5.50
0.91082	5.50
0.92748	5.50
0.94415	5.50
0.96082	5.50
0.97748	5.50
0.99415	5.50
1.01082	5.50
1.02748	5.50
1.04415	5.50
1.06082	5.50
1.07748	5.50
1.09415	5.50
1.11082	5.50
1.12748	5.50
1.14415	5.50
1.16082	5.50
1.17748	5.50
1.19415	5.50
1.21082	5.50
1.22748	5.50
1.24415	5.50
1.26082	5.50
1.27748	5.50
1.29415	5.50
1.31082	5.50
1.32748	5.50
1.34415	5.50
1.36082	5.50
1.37748	5.50
1.39415	5.50
1.41082	5.50
1.42748	5.50
1.44415	5.50
1.46082	5.50
1.47748	5.50
1.49415	5.50
1.51082	5.50
1.52748	5.50
1.54415	5.50
1.56082	5.50
1.57748	5.50
1.59415	5.50
1.61082	5.50
1.62748	5.49
1.64415	5.49
1.66082	5.48
1.67748	5.47
1.69415	5.46
1.71082	5.45
1.72748	5.44
1.74415	5.43
1.76082	5.42
1.77748	5.41
1.79415	5.40
1.81082	5.39
1.82748	5.38
1.84415	5.37
1.86082	5.36
1.87748	5.35
1.89415	5.34
1.91082	5.33
1.92748	5.32
1.94415	5.31
1.96082	5.30
1.97748	5.29
1.99415	5.28
2.01082	5.27
2.02748	5.26
2.04415	5.25
2.06082	5.24
2.07748	5.23
2.09415	5.22
2.11082	5.21
2.12748	5.20
2.14415	5.19
2.16082	5.18
2.17748	5.17
2.19415	5.17
2.21082	5.16
2.22748	5.15
2.24415	5.14
2.26082	5.13
2.27748	5.12
2.29415	5.11
2.31082	5.10
2.32748	5.09
2.34415	5.08
2.36082	5.07
2.37748	5.07
2.39415	5.07
2.41082	5.07
2.42748	5.07
2.44415	5.07
2.46082	5.07
2.47748	5.07
2.49415	5.07
2.51082	5.06
2.52748	5.06
2.54415	5.06
2.56082	5.06
2.57748	5.06
2.59415	5.06
2.61082	5.06
2.62748	5.06
2.64415	5.06
2.66082	5.06
2.67748	5.06
2.69415	5.06
2.71082	5.06
2.72748	5.06
2.74415	5.06
2.76082	5.06
2.77748	5.06
2.79415	5.06
2.81082	5.06
2.82748	5.06
2.84415	5.06
2.86082	5.06
2.87748	5.06
2.89415	5.06
2.91082	5.06
2.92748	5.06
2.94415	5.06
2.96082	5.06
2.97748	5.06
2.99415	5.06
3.01082	5.06
3.02748	5.06
3.04415	5.06
3.06082	5.06
3.07748	5.06
3.09415	5.06
3.11082	5.06
3.12748	5.06
3.14415	5.06
3.16082	5.06
3.17748	5.06
3.19415	5.06
3.21082	5.06
3.22748	5.06
3.24415	5.06
3.26082	5.06
3.27748	5.06
3.29415	5.06
3.31082	5.06
3.32748	5.06
3.34415	5.06
3.36082	5.06
3.37748	5.06
3.39415	5.06
3.41082	5.06
3.42748	5.06
3.44415	5.06
3.46082	5.06
3.47748	5.06
3.49415	5.06
3.51082	5.06
3.52748	5.06
3.54415	5.06
3.56082	5.06
3.57748	5.06
3.59415	5.06
3.61082	5.06
3.62748	5.06
3.64415	5.06
3.66082	5.06
3.67748	5.06
3.69415	5.06
3.71082	5.06
3.72748	5.06
3.74415	5.06
3.76082	5.06
3.77748	5.06
3.79415	5.06
3.81082	5.06
3.82748	5.06
3.84415	5.06
3.86082	5.06
3.87748	5.06
3.89415	5.06
3.91082	5.06
3.92748	5.06
3.94415	5.06
3.96082	5.06
3.97748	5.06
3.99415	5.06

[Status Trace (Linear Velocity)]
Interval(msec)	1000
# of Points	240
Start Time(min)	0.011
End Time(min)	3.994
Intensity Units	
Intensity Multiplier	1
R.Time (min)	Intensity
0.01082	39.01
0.02748	37.08
0.04415	38.66
0.06082	40.04
0.07748	39.77
0.09415	39.02
0.11082	39.00
0.12748	39.01
0.14415	39.01
0.16082	39.01
0.17748	39.01
0.19415	39.01
0.21082	39.01
0.22748	39.01
0.24415	39.01
0.26082	39.01
0.27748	39.01
0.29415	39.01
0.31082	39.01
0.32748	39.01
0.34415	39.01
0.36082	39.01
0.37748	39.01
0.39415	39.01
0.41082	39.01
0.42748	39.01
0.44415	39.01
0.46082	39.01
0.47748	39.01
0.49415	39.01
0.51082	39.01
0.52748	39.01
0.54415	39.01
0.56082	39.01
0.57748	39.01
0.59415	39.01
0.61082	39.01
0.62748	39.01
0.64415	39.01
0.66082	39.01
0.67748	39.01
0.69415	39.01
0.71082	39.01
0.72748	39.01
0.74415	39.01
0.76082	39.01
0.77748	39.01
0.79415	39.01
0.81082	39.01
0.82748	39.01
0.84415	39.01
0.86082	39.01
0.87748	39.01
0.89415	39.01
0.91082	39.01
0.92748	39.01
0.94415	39.01
0.96082	39.01
0.97748	39.01
0.99415	39.01
1.01082	39.01
1.02748	39.01
1.04415	39.01
1.06082	39.01
1.07748	39.01
1.09415	39.01
1.11082	39.01
1.12748	39.01
1.14415	39.01
1.16082	39.01
1.17748	39.01
1.19415	39.01
1.21082	39.01
1.22748	39.01
1.24415	39.01
1.26082	39.01
1.27748	39.01
1.29415	39.01
1.31082	39.01
1.32748	39.01
1.34415	39.01
1.36082	39.01
1.37748	39.01
1.39415	39.01
1.41082	39.01
1.42748	39.01
1.44415	39.01
1.46082	39.01
1.47748	39.01
1.49415	39.01
1.51082	39.01
1.52748	39.01
1.54415	39.01
1.56082	39.01
1.57748	39.01
1.59415	39.01
1.61082	39.00
1.62748	38.99
1.64415	38.98
1.66082	38.95
1.67748	38.92
1.69415	38.89
1.71082	38.85
1.72748	38.82
1.74415	38.78
1.76082	38.75
1.77748	38.72
1.79415	38.69
1.81082	38.66
1.82748	38.63
1.84415	38.60
1.86082	38.57
1.87748	38.53
1.89415	38.51
1.91082	38.48
1.92748	38.44
1.94415	38.42
1.96082	38.39
1.97748	38.36
1.99415	38.33
2.01082	38.29
2.02748	38.27
2.04415	38.24
2.06082	38.21
2.07748	38.18
2.09415	38.14
2.11082	38.12
2.12748	38.09
2.14415	38.06
2.16082	38.03
2.17748	38.00
2.19415	37.97
2.21082	37.94
2.22748	37.90
2.24415	37.88
2.26082	37.85
2.27748	37.82
2.29415	37.79
2.31082	37.76
2.32748	37.73
2.34415	37.70
2.36082	37.67
2.37748	37.65
2.39415	37.65
2.41082	37.65
2.42748	37.65
2.44415	37.65
2.46082	37.65
2.47748	37.65
2.49415	37.65
2.51082	37.65
2.52748	37.64
2.54415	37.65
2.56082	37.65
2.57748	37.64
2.59415	37.65
2.61082	37.64
2.62748	37.64
2.64415	37.64
2.66082	37.64
2.67748	37.64
2.69415	37.64
2.71082	37.64
2.72748	37.64
2.74415	37.64
2.76082	37.64
2.77748	37.64
2.79415	37.64
2.81082	37.64
2.82748	37.64
2.84415	37.64
2.86082	37.64
2.87748	37.64
2.89415	37.64
2.91082	37.63
2.92748	37.63
2.94415	37.63
2.96082	37.63
2.97748	37.63
2.99415	37.63
3.01082	37.63
3.02748	37.63
3.04415	37.63
3.06082	37.63
3.07748	37.62
3.09415	37.62
3.11082	37.62
3.12748	37.62
3.14415	37.62
3.16082	37.62
3.17748	37.62
3.19415	37.62
3.21082	37.62
3.22748	37.62
3.24415	37.62
3.26082	37.62
3.27748	37.62
3.29415	37.62
3.31082	37.62
3.32748	37.62
3.34415	37.62
3.36082	37.62
3.37748	37.62
3.39415	37.62
3.41082	37.62
3.42748	37.62
3.44415	37.62
3.46082	37.62
3.47748	37.62
3.49415	37.62
3.51082	37.62
3.52748	37.62
3.54415	37.62
3.56082	37.62
3.57748	37.62
3.59415	37.62
3.61082	37.62
3.62748	37.62
3.64415	37.62
3.66082	37.62
3.67748	37.62
3.69415	37.62
3.71082	37.62
3.72748	37.63
3.74415	37.62
3.76082	37.63
3.77748	37.63
3.79415	37.63
3.81082	37.63
3.82748	37.62
3.84415	37.62
3.86082	37.62
3.87748	37.62
3.89415	37.62
3.91082	37.62
3.92748	37.62
3.94415	37.63
3.96082	37.62
3.97748	37.63
3.99415	37.63

