[Header]
Application Name	LabSolutions
Version	5.110
Data File Name	C:\Users\User\Desktop\Junior\UIC Prairie Sampling\6.15.23\06152023_004.gcd
Output Date	6/26/2023
Output Time	12:05:06 PM

[File Information]
Type	Data File
Generated	6/23/2023 11:04:40 AM
Generated by	System Administrator
Modified	6/23/2023 11:12:06 AM
Modified by	System Administrator

[Sample Information]
Operator Name	System Administrator
Acquired	6/23/2023 11:08:06 AM
Sample Type	0:Unknown
Level	0
Sample Name	004
Sample ID	004
ISTD Amount1	1
ISTD Amount2	1
ISTD Amount3	1
ISTD Amount4	1
ISTD Amount5	1
ISTD Amount6	1
ISTD Amount7	1
ISTD Amount8	1
ISTD Amount9	1
ISTD Amount10	1
ISTD Amount11	1
ISTD Amount12	1
ISTD Amount13	1
ISTD Amount14	1
ISTD Amount15	1
ISTD Amount16	1
ISTD Amount17	1
ISTD Amount18	1
ISTD Amount19	1
ISTD Amount20	1
ISTD Amount21	1
ISTD Amount22	1
ISTD Amount23	1
ISTD Amount24	1
ISTD Amount25	1
ISTD Amount26	1
ISTD Amount27	1
ISTD Amount28	1
ISTD Amount29	1
ISTD Amount30	1
ISTD Amount31	1
ISTD Amount32	1
Sample Amount	1
Dilution Factor	1
Vial#	3
Injection Volume	1
Injection Count	1
Bar Code	

[Original Files]
Data File	C:\Users\User\Desktop\Junior\UIC Prairie Sampling\6.15.23\06152023_004.gcd
Method File	C:\LabSolutions\Data\GHG_4min_2022\ghg3_togas_w_acet_4 min_new_int.gcm
Batch File	C:\LabSolutions\Data\AutoSamplerTesting\06152023.gcb
Report Format File	c:\LabSolutions\System\DEFAULT.lsr

[File Description]


[Configuration]
Instrument Name	C0B7VH3-Instrument1
Instrument #	1
Line #	1
# of Detectors	3
Detector ID	DET#1	DET#2	DET#3
Detector Name	FID	PTCD	ECD
# of Channels	1	1	1

[Peak Table(Ch1)]
# of Peaks	3
Peak#	R.Time	I.Time	F.Time	Area	Height	A/H	Conc.	Mark	ID#	Name	k'	Plate #	Plate Ht.	Tailing	Resolution	Sep.Factor	Area Ratio	Height Ratio	Conc. %	Norm Conc.
1	1.490	1.468	1.520	624	259	2.407	0.000	   	1	CO	0.000	1668	89.931	0.000	0.000	0.000	0	0	0.000	0.000
2	1.560	1.520	1.655	20357	10069	2.022	99.246	 V 	2	CH4	0.047	11345	13.221	1.289	0.681	0.000	0	0	20.898	20.898
3	1.989	1.945	2.422	1949245	932493	2.090	375.655	   	3	CO2	0.335	17265	8.688	1.280	7.202	7.158	0	0	79.102	79.102

[Peak Table(Ch2)]
# of Peaks	0

[Peak Table(Ch3)]
# of Peaks	5
Peak#	R.Time	I.Time	F.Time	Area	Height	A/H	Conc.	Mark	ID#	Name	k'	Plate #	Plate Ht.	Tailing	Resolution	Sep.Factor	Area Ratio	Height Ratio	Conc. %	Norm Conc.
1	2.462	2.403	2.499	1071	409	2.616	0.000	   			0.000	13032	11.510	0.000	0.000	0.000	0	0	0.000	0.000
2	2.513	2.499	2.557	586	238	2.464	0.000	 V 			0.021	3556	42.179	0.000	0.403	0.000	0	0	0.000	0.000
3	2.609	2.557	2.686	710	188	3.772	0.000	 V 			0.060	8138	18.431	0.000	0.671	2.857	0	0	0.000	0.000
4	2.887	2.700	3.085	58103	14246	4.079	0.860	   	1	N2O	0.173	12549	11.953	1.752	2.548	2.900	0	0	100.000	100.000
5	3.162	3.085	3.819	8827	411	21.452	0.000	 V 	2	SF6	0.284	37	4100.634	0.000	0.251	1.647	0	0	0.000	0.000

[Compound Results(Ch1)]
# of IDs	6
ID#	Name	R.Time	Area	Height	Conc.	Curve	3rd	2nd	1st	Constant	Area Ratio	Height Ratio	Conc. %	Norm Conc.
1	CO	1.490	624	259	0.000	Linear	0.000000e+00	0.000000e+00	0.000000e+00	0.000000e+00	0	0	0.000	0.000
2	CH4	1.560	20357	10069	99.246	Linear	0.000000e+00	0.000000e+00	2.051179e+002	0.000000e+00	0	0	20.898	20.898
3	CO2	1.989	1949245	932493	375.655	Linear	0.000000e+00	0.000000e+00	5.188919e+003	0.000000e+00	0	0	79.102	79.102
4	Ethylene	0.000	0	0	0.000	Linear	0.000000e+00	0.000000e+00	0.000000e+00	0.000000e+00	0	0	0.000	0.000
5	Acetylene	0.000	0	0	0.000	Linear	0.000000e+00	0.000000e+00	0.000000e+00	0.000000e+00	0	0	0.000	0.000
6	Ethane	0.000	0	0	0.000	Linear	0.000000e+00	0.000000e+00	0.000000e+00	0.000000e+00	0	0	0.000	0.000

[Compound Results(Ch2)]
# of IDs	5
ID#	Name	R.Time	Area	Height	Conc.	Curve	3rd	2nd	1st	Constant	Area Ratio	Height Ratio	Conc. %	Norm Conc.
1	Hydrogen	0.000	0	0	0.000	Linear	0.000000e+00	0.000000e+00	0.000000e+00	0.000000e+00	0	0	0.000	0.000
2	Oxygen	0.000	0	0	0.000	Linear	0.000000e+00	0.000000e+00	0.000000e+00	0.000000e+00	0	0	0.000	0.000
3	Nitrogen	0.000	0	0	0.000	Linear	0.000000e+00	0.000000e+00	0.000000e+00	0.000000e+00	0	0	0.000	0.000
4	Methane	0.000	0	0	0.000	Linear	0.000000e+00	0.000000e+00	0.000000e+00	0.000000e+00	0	0	0.000	0.000
5	Carbon Monoxide	0.000	0	0	0.000	Linear	0.000000e+00	0.000000e+00	0.000000e+00	0.000000e+00	0	0	0.000	0.000

[Compound Results(Ch3)]
# of IDs	2
ID#	Name	R.Time	Area	Height	Conc.	Curve	3rd	2nd	1st	Constant	Area Ratio	Height Ratio	Conc. %	Norm Conc.
1	N2O	2.887	58103	14246	0.860	Linear	0.000000e+00	0.000000e+00	6.759880e+004	0.000000e+00	0	0	100.000	100.000
2	SF6	3.162	8827	411	0.000	Linear	0.000000e+00	0.000000e+00	0.000000e+00	0.000000e+00	0	0	0.000	0.000

[Group Results(Ch1)]
# of Groups	0

[Group Results(Ch2)]
# of Groups	0

[Group Results(Ch3)]
# of Groups	0

[Chromatogram (Ch1)]
Interval(msec)	220
# of Points	1091
Start Time(min)	0.002
End Time(min)	3.998
R.Time (min)	Intensity
0.00167	10
0.00533	7
0.00900	1
0.01267	-3
0.01633	-2
0.02000	2
0.02367	7
0.02733	11
0.03100	16
0.03467	23
0.03833	31
0.04200	39
0.04567	44
0.04933	43
0.05300	37
0.05667	29
0.06033	24
0.06400	19
0.06767	15
0.07133	12
0.07500	13
0.07867	14
0.08233	16
0.08600	17
0.08967	17
0.09333	16
0.09700	13
0.10067	9
0.10433	7
0.10800	7
0.11167	10
0.11533	14
0.11900	16
0.12267	18
0.12633	20
0.13000	22
0.13367	23
0.13733	27
0.14100	32
0.14467	37
0.14833	41
0.15200	44
0.15567	40
0.15933	32
0.16300	25
0.16667	15
0.17033	6
0.17400	0
0.17767	-1
0.18133	1
0.18500	4
0.18867	12
0.19233	23
0.19600	30
0.19967	31
0.20333	29
0.20700	25
0.21067	25
0.21433	29
0.21800	31
0.22167	32
0.22533	33
0.22900	34
0.23267	31
0.23633	26
0.24000	22
0.24367	22
0.24733	24
0.25100	26
0.25467	25
0.25833	23
0.26200	22
0.26567	22
0.26933	24
0.27300	27
0.27667	28
0.28033	28
0.28400	24
0.28767	19
0.29133	15
0.29500	12
0.29867	8
0.30233	7
0.30600	10
0.30967	13
0.31333	14
0.31700	20
0.32067	30
0.32433	41
0.32800	47
0.33167	42
0.33533	31
0.33900	21
0.34267	18
0.34633	19
0.35000	18
0.35367	13
0.35733	7
0.36100	5
0.36467	6
0.36833	7
0.37200	7
0.37567	6
0.37933	9
0.38300	12
0.38667	11
0.39033	9
0.39400	7
0.39767	5
0.40133	2
0.40500	2
0.40867	3
0.41233	3
0.41600	4
0.41967	9
0.42333	17
0.42700	23
0.43067	24
0.43433	22
0.43800	18
0.44167	17
0.44533	19
0.44900	25
0.45267	31
0.45633	32
0.46000	26
0.46367	18
0.46733	11
0.47100	10
0.47467	11
0.47833	4
0.48200	-9
0.48567	-24
0.48933	-34
0.49300	-37
0.49667	-37
0.50033	-34
0.50400	-26
0.50767	-17
0.51133	-10
0.51500	-6
0.51867	-4
0.52233	-4
0.52600	-5
0.52967	-7
0.53333	-13
0.53700	-18
0.54067	-20
0.54433	-21
0.54800	-19
0.55167	-15
0.55533	-11
0.55900	-10
0.56267	-10
0.56633	-9
0.57000	-4
0.57367	-0
0.57733	3
0.58100	4
0.58467	4
0.58833	2
0.59200	4
0.59567	9
0.59933	12
0.60300	10
0.60667	3
0.61033	-12
0.61400	-28
0.61767	-39
0.62133	-44
0.62500	-46
0.62867	-45
0.63233	-41
0.63600	-33
0.63967	-26
0.64333	-21
0.64700	-21
0.65067	-23
0.65433	-24
0.65800	-22
0.66167	-19
0.66533	-18
0.66900	-19
0.67267	-21
0.67633	-23
0.68000	-22
0.68367	-19
0.68733	-18
0.69100	-18
0.69467	-19
0.69833	-19
0.70200	-18
0.70567	-15
0.70933	-11
0.71300	-6
0.71667	-5
0.72033	-6
0.72400	-7
0.72767	-10
0.73133	-16
0.73500	-20
0.73867	-21
0.74233	-19
0.74600	-17
0.74967	-14
0.75333	-10
0.75700	-8
0.76067	-7
0.76433	-6
0.76800	-4
0.77167	-1
0.77533	-0
0.77900	-2
0.78267	0
0.78633	3
0.79000	2
0.79367	-4
0.79733	-12
0.80100	-16
0.80467	-14
0.80833	-12
0.81200	-11
0.81567	-11
0.81933	-13
0.82300	-17
0.82667	-21
0.83033	-23
0.83400	-24
0.83767	-24
0.84133	-22
0.84500	-21
0.84867	-23
0.85233	-24
0.85600	-25
0.85967	-26
0.86333	-24
0.86700	-18
0.87067	-10
0.87433	-3
0.87800	5
0.88167	10
0.88533	13
0.88900	12
0.89267	7
0.89633	-2
0.90000	-12
0.90367	-20
0.90733	-25
0.91100	-27
0.91467	-28
0.91833	-30
0.92200	-31
0.92567	-32
0.92933	-30
0.93300	-27
0.93667	-22
0.94033	-17
0.94400	-12
0.94767	-10
0.95133	-6
0.95500	-1
0.95867	1
0.96233	-5
0.96600	-16
0.96967	-25
0.97333	-32
0.97700	-39
0.98067	-45
0.98433	-47
0.98800	-44
0.99167	-36
0.99533	-24
0.99900	-15
1.00267	-10
1.00633	-8
1.01000	-7
1.01367	-8
1.01733	-13
1.02100	-23
1.02467	-34
1.02833	-46
1.03200	-56
1.03567	-64
1.03933	-69
1.04300	-73
1.04667	-72
1.05033	-63
1.05400	-50
1.05767	-35
1.06133	-24
1.06500	-20
1.06867	-21
1.07233	-21
1.07600	-20
1.07967	-19
1.08333	-20
1.08700	-21
1.09067	-21
1.09433	-23
1.09800	-32
1.10167	-44
1.10533	-53
1.10900	-54
1.11267	-52
1.11633	-47
1.12000	-41
1.12367	-35
1.12733	-32
1.13100	-29
1.13467	-29
1.13833	-32
1.14200	-37
1.14567	-41
1.14933	-43
1.15300	-46
1.15667	-51
1.16033	-53
1.16400	-52
1.16767	-51
1.17133	-51
1.17500	-52
1.17867	-55
1.18233	-60
1.18600	-62
1.18967	-59
1.19333	-54
1.19700	-48
1.20067	-43
1.20433	-40
1.20800	-39
1.21167	-38
1.21533	-36
1.21900	-39
1.22267	-48
1.22633	-58
1.23000	-68
1.23367	-75
1.23733	-79
1.24100	-79
1.24467	-79
1.24833	-76
1.25200	-72
1.25567	-63
1.25933	-52
1.26300	-40
1.26667	-35
1.27033	-34
1.27400	-35
1.27767	-38
1.28133	-44
1.28500	-49
1.28867	-50
1.29233	-45
1.29600	-41
1.29967	-42
1.30333	-44
1.30700	-48
1.31067	-53
1.31433	-60
1.31800	-68
1.32167	-75
1.32533	-83
1.32900	-91
1.33267	-93
1.33633	-90
1.34000	-86
1.34367	-82
1.34733	-78
1.35100	-76
1.35467	-75
1.35833	-70
1.36200	-60
1.36567	-47
1.36933	-36
1.37300	-30
1.37667	-27
1.38033	-30
1.38400	-37
1.38767	-43
1.39133	-47
1.39500	-47
1.39867	-45
1.40233	-43
1.40600	-42
1.40967	-41
1.41333	-43
1.41700	-44
1.42067	-41
1.42433	-42
1.42800	-52
1.43167	-62
1.43533	-59
1.43900	-47
1.44267	-64
1.44633	-128
1.45000	-209
1.45367	-280
1.45733	-335
1.46100	-364
1.46467	-358
1.46833	-318
1.47200	-253
1.47567	-180
1.47933	-116
1.48300	-71
1.48667	-44
1.49033	-32
1.49400	-30
1.49767	-34
1.50133	-39
1.50500	-43
1.50867	-45
1.51233	-48
1.51600	-53
1.51967	-53
1.52333	-47
1.52700	-29
1.53067	29
1.53433	262
1.53800	955
1.54167	2317
1.54533	4192
1.54900	6169
1.55267	7888
1.55633	9163
1.56000	9865
1.56367	9850
1.56733	9066
1.57100	7680
1.57467	6032
1.57833	4450
1.58200	3130
1.58567	2125
1.58933	1404
1.59300	906
1.59667	573
1.60033	353
1.60400	211
1.60767	122
1.61133	69
1.61500	41
1.61867	29
1.62233	15
1.62600	-7
1.62967	-29
1.63333	-51
1.63700	-71
1.64067	-84
1.64433	-89
1.64800	-89
1.65167	-86
1.65533	-85
1.65900	-89
1.66267	-96
1.66633	-97
1.67000	-95
1.67367	-93
1.67733	-89
1.68100	-84
1.68467	-80
1.68833	-80
1.69200	-79
1.69567	-80
1.69933	-82
1.70300	-82
1.70667	-79
1.71033	-75
1.71400	-72
1.71767	-73
1.72133	-72
1.72500	-68
1.72867	-64
1.73233	-64
1.73600	-66
1.73967	-68
1.74333	-71
1.74700	-78
1.75067	-83
1.75433	-85
1.75800	-87
1.76167	-86
1.76533	-88
1.76900	-89
1.77267	-87
1.77633	-85
1.78000	-83
1.78367	-82
1.78733	-80
1.79100	-75
1.79467	-66
1.79833	-60
1.80200	-61
1.80567	-64
1.80933	-71
1.81300	-77
1.81667	-80
1.82033	-82
1.82400	-81
1.82767	-78
1.83133	-77
1.83500	-78
1.83867	-79
1.84233	-76
1.84600	-70
1.84967	-68
1.85333	-70
1.85700	-72
1.86067	-69
1.86433	-66
1.86800	-67
1.87167	-69
1.87533	-73
1.87900	-81
1.88267	-90
1.88633	-96
1.89000	-97
1.89367	-94
1.89733	-88
1.90100	-84
1.90467	-84
1.90833	-88
1.91200	-93
1.91567	-99
1.91933	-100
1.92300	-95
1.92667	-88
1.93033	-82
1.93400	-81
1.93767	-82
1.94133	-80
1.94500	-57
1.94867	105
1.95233	1081
1.95600	5626
1.95967	21458
1.96333	63443
1.96700	148964
1.97067	284988
1.97433	457792
1.97800	637343
1.98167	791082
1.98533	894094
1.98900	932492
1.99267	903557
1.99633	816747
2.00000	691871
2.00367	553063
2.00733	421128
2.01100	308871
2.01467	220739
2.01833	155435
2.02200	108957
2.02567	76748
2.02933	54780
2.03300	39907
2.03667	29837
2.04033	22974
2.04400	18235
2.04767	14906
2.05133	12517
2.05500	10760
2.05867	9439
2.06233	8419
2.06600	7611
2.06967	6950
2.07333	6395
2.07700	5915
2.08067	5492
2.08433	5121
2.08800	4794
2.09167	4508
2.09533	4258
2.09900	4039
2.10267	3843
2.10633	3665
2.11000	3495
2.11367	3335
2.11733	3185
2.12100	3048
2.12467	2925
2.12833	2814
2.13200	2709
2.13567	2609
2.13933	2517
2.14300	2431
2.14667	2352
2.15033	2280
2.15400	2212
2.15767	2145
2.16133	2078
2.16500	2013
2.16867	1953
2.17233	1903
2.17600	1857
2.17967	1812
2.18333	1769
2.18700	1727
2.19067	1684
2.19433	1639
2.19800	1592
2.20167	1544
2.20533	1496
2.20900	1452
2.21267	1413
2.21633	1379
2.22000	1350
2.22367	1321
2.22733	1291
2.23100	1261
2.23467	1229
2.23833	1197
2.24200	1168
2.24567	1144
2.24933	1121
2.25300	1103
2.25667	1088
2.26033	1071
2.26400	1052
2.26767	1032
2.27133	1013
2.27500	994
2.27867	973
2.28233	952
2.28600	935
2.28967	920
2.29333	903
2.29700	883
2.30067	863
2.30433	847
2.30800	834
2.31167	823
2.31533	813
2.31900	804
2.32267	796
2.32633	789
2.33000	782
2.33367	775
2.33733	765
2.34100	754
2.34467	738
2.34833	719
2.35200	701
2.35567	683
2.35933	668
2.36300	653
2.36667	640
2.37033	629
2.37400	618
2.37767	606
2.38133	591
2.38500	578
2.38867	571
2.39233	567
2.39600	564
2.39967	560
2.40333	556
2.40700	549
2.41067	544
2.41433	542
2.41800	543
2.42167	546
2.42533	549
2.42900	549
2.43267	546
2.43633	540
2.44000	532
2.44367	518
2.44733	498
2.45100	472
2.45467	447
2.45833	430
2.46200	419
2.46567	415
2.46933	414
2.47300	412
2.47667	410
2.48033	407
2.48400	403
2.48767	397
2.49133	394
2.49500	395
2.49867	396
2.50233	398
2.50600	401
2.50967	399
2.51333	392
2.51700	381
2.52067	371
2.52433	365
2.52800	362
2.53167	361
2.53533	365
2.53900	371
2.54267	368
2.54633	358
2.55000	349
2.55367	340
2.55733	333
2.56100	328
2.56467	325
2.56833	325
2.57200	327
2.57567	329
2.57933	329
2.58300	326
2.58667	320
2.59033	312
2.59400	303
2.59767	297
2.60133	293
2.60500	291
2.60867	292
2.61233	295
2.61600	295
2.61967	294
2.62333	292
2.62700	291
2.63067	290
2.63433	291
2.63800	292
2.64167	289
2.64533	284
2.64900	277
2.65267	268
2.65633	259
2.66000	255
2.66367	253
2.66733	254
2.67100	258
2.67467	261
2.67833	261
2.68200	258
2.68567	252
2.68933	247
2.69300	243
2.69667	236
2.70033	230
2.70400	228
2.70767	227
2.71133	228
2.71500	229
2.71867	228
2.72233	227
2.72600	222
2.72967	218
2.73333	218
2.73700	219
2.74067	222
2.74433	226
2.74800	226
2.75167	222
2.75533	215
2.75900	209
2.76267	210
2.76633	215
2.77000	217
2.77367	215
2.77733	209
2.78100	199
2.78467	187
2.78833	179
2.79200	173
2.79567	171
2.79933	171
2.80300	170
2.80667	170
2.81033	173
2.81400	179
2.81767	186
2.82133	191
2.82500	191
2.82867	188
2.83233	185
2.83600	182
2.83967	181
2.84333	186
2.84700	193
2.85067	197
2.85433	195
2.85800	189
2.86167	181
2.86533	174
2.86900	168
2.87267	163
2.87633	156
2.88000	148
2.88367	144
2.88733	142
2.89100	142
2.89467	146
2.89833	149
2.90200	150
2.90567	150
2.90933	152
2.91300	152
2.91667	152
2.92033	154
2.92400	153
2.92767	150
2.93133	146
2.93500	145
2.93867	139
2.94233	131
2.94600	128
2.94967	131
2.95333	136
2.95700	139
2.96067	138
2.96433	135
2.96800	133
2.97167	137
2.97533	142
2.97900	143
2.98267	140
2.98633	137
2.99000	137
2.99367	141
2.99733	147
3.00100	154
3.00467	157
3.00833	157
3.01200	151
3.01567	142
3.01933	133
3.02300	126
3.02667	121
3.03033	121
3.03400	124
3.03767	124
3.04133	120
3.04500	118
3.04867	117
3.05233	116
3.05600	112
3.05967	108
3.06333	108
3.06700	110
3.07067	115
3.07433	122
3.07800	121
3.08167	115
3.08533	110
3.08900	110
3.09267	114
3.09633	117
3.10000	120
3.10367	121
3.10733	120
3.11100	117
3.11467	116
3.11833	117
3.12200	116
3.12567	114
3.12933	113
3.13300	112
3.13667	112
3.14033	112
3.14400	111
3.14767	108
3.15133	107
3.15500	105
3.15867	101
3.16233	100
3.16600	104
3.16967	112
3.17333	118
3.17700	115
3.18067	103
3.18433	90
3.18800	78
3.19167	69
3.19533	63
3.19900	58
3.20267	56
3.20633	56
3.21000	59
3.21367	66
3.21733	80
3.22100	99
3.22467	115
3.22833	123
3.23200	119
3.23567	106
3.23933	91
3.24300	80
3.24667	72
3.25033	66
3.25400	63
3.25767	62
3.26133	61
3.26500	58
3.26867	55
3.27233	54
3.27600	55
3.27967	58
3.28333	63
3.28700	66
3.29067	66
3.29433	67
3.29800	72
3.30167	79
3.30533	86
3.30900	89
3.31267	90
3.31633	85
3.32000	75
3.32367	64
3.32733	58
3.33100	57
3.33467	58
3.33833	56
3.34200	51
3.34567	47
3.34933	45
3.35300	42
3.35667	42
3.36033	47
3.36400	52
3.36767	57
3.37133	59
3.37500	58
3.37867	55
3.38233	52
3.38600	50
3.38967	51
3.39333	54
3.39700	55
3.40067	58
3.40433	59
3.40800	58
3.41167	54
3.41533	50
3.41900	49
3.42267	51
3.42633	54
3.43000	56
3.43367	56
3.43733	55
3.44100	53
3.44467	47
3.44833	44
3.45200	46
3.45567	50
3.45933	54
3.46300	57
3.46667	57
3.47033	57
3.47400	57
3.47767	56
3.48133	56
3.48500	55
3.48867	50
3.49233	40
3.49600	30
3.49967	20
3.50333	11
3.50700	5
3.51067	6
3.51433	11
3.51800	15
3.52167	15
3.52533	17
3.52900	21
3.53267	26
3.53633	35
3.54000	44
3.54367	50
3.54733	53
3.55100	50
3.55467	42
3.55833	34
3.56200	30
3.56567	27
3.56933	23
3.57300	23
3.57667	26
3.58033	31
3.58400	32
3.58767	32
3.59133	33
3.59500	36
3.59867	38
3.60233	39
3.60600	39
3.60967	41
3.61333	45
3.61700	52
3.62067	54
3.62433	50
3.62800	41
3.63167	27
3.63533	15
3.63900	7
3.64267	3
3.64633	5
3.65000	10
3.65367	14
3.65733	17
3.66100	20
3.66467	20
3.66833	20
3.67200	20
3.67567	22
3.67933	23
3.68300	22
3.68667	20
3.69033	19
3.69400	18
3.69767	18
3.70133	20
3.70500	20
3.70867	18
3.71233	18
3.71600	17
3.71967	18
3.72333	24
3.72700	26
3.73067	25
3.73433	22
3.73800	20
3.74167	22
3.74533	29
3.74900	38
3.75267	42
3.75633	38
3.76000	29
3.76367	21
3.76733	13
3.77100	6
3.77467	7
3.77833	8
3.78200	5
3.78567	-2
3.78933	-8
3.79300	-12
3.79667	-16
3.80033	-16
3.80400	-12
3.80767	-9
3.81133	-7
3.81500	-6
3.81867	-2
3.82233	5
3.82600	12
3.82967	15
3.83333	11
3.83700	3
3.84067	-4
3.84433	-7
3.84800	-6
3.85167	-8
3.85533	-14
3.85900	-20
3.86267	-25
3.86633	-25
3.87000	-20
3.87367	-11
3.87733	-6
3.88100	-5
3.88467	-6
3.88833	-8
3.89200	-11
3.89567	-14
3.89933	-18
3.90300	-21
3.90667	-20
3.91033	-18
3.91400	-14
3.91767	-11
3.92133	-9
3.92500	-6
3.92867	-2
3.93233	3
3.93600	4
3.93967	0
3.94333	-4
3.94700	-4
3.95067	-1
3.95433	2
3.95800	4
3.96167	3
3.96533	-2
3.96900	-8
3.97267	-16
3.97633	-26
3.98000	-33
3.98367	-37
3.98733	-38
3.99100	-37
3.99467	-34
3.99833	-31

[Chromatogram (Ch2)]
Interval(msec)	220
# of Points	1091
Start Time(min)	0.002
End Time(min)	3.998
R.Time (min)	Intensity
0.00167	1
0.00533	1
0.00900	1
0.01267	1
0.01633	1
0.02000	1
0.02367	1
0.02733	1
0.03100	1
0.03467	1
0.03833	1
0.04200	1
0.04567	1
0.04933	1
0.05300	1
0.05667	1
0.06033	1
0.06400	1
0.06767	2
0.07133	2
0.07500	2
0.07867	2
0.08233	2
0.08600	2
0.08967	2
0.09333	2
0.09700	2
0.10067	2
0.10433	2
0.10800	2
0.11167	2
0.11533	2
0.11900	2
0.12267	1
0.12633	1
0.13000	1
0.13367	1
0.13733	1
0.14100	0
0.14467	0
0.14833	0
0.15200	0
0.15567	-0
0.15933	-0
0.16300	-0
0.16667	-0
0.17033	-0
0.17400	-0
0.17767	-0
0.18133	-1
0.18500	-1
0.18867	-1
0.19233	-1
0.19600	-1
0.19967	-1
0.20333	-1
0.20700	-1
0.21067	-1
0.21433	-1
0.21800	-1
0.22167	-1
0.22533	-1
0.22900	-1
0.23267	-2
0.23633	-2
0.24000	-2
0.24367	-2
0.24733	-2
0.25100	-2
0.25467	-2
0.25833	-2
0.26200	-2
0.26567	-2
0.26933	-2
0.27300	-3
0.27667	-3
0.28033	-2
0.28400	-2
0.28767	-2
0.29133	-2
0.29500	-2
0.29867	-2
0.30233	-2
0.30600	-1
0.30967	-1
0.31333	-1
0.31700	-1
0.32067	-1
0.32433	-1
0.32800	-1
0.33167	-1
0.33533	-1
0.33900	-1
0.34267	-1
0.34633	-1
0.35000	-1
0.35367	-1
0.35733	-1
0.36100	-1
0.36467	-2
0.36833	-2
0.37200	-2
0.37567	-2
0.37933	-2
0.38300	-3
0.38667	-3
0.39033	-3
0.39400	-3
0.39767	-3
0.40133	-3
0.40500	-3
0.40867	-3
0.41233	-2
0.41600	-2
0.41967	-2
0.42333	-2
0.42700	-2
0.43067	-2
0.43433	-2
0.43800	-2
0.44167	-2
0.44533	-2
0.44900	-2
0.45267	-2
0.45633	-3
0.46000	-3
0.46367	-3
0.46733	-3
0.47100	-3
0.47467	-3
0.47833	-3
0.48200	-3
0.48567	-3
0.48933	-3
0.49300	-3
0.49667	-3
0.50033	-3
0.50400	-3
0.50767	-3
0.51133	-3
0.51500	-3
0.51867	-3
0.52233	-3
0.52600	-3
0.52967	-3
0.53333	-3
0.53700	-3
0.54067	-3
0.54433	-2
0.54800	-2
0.55167	-2
0.55533	-2
0.55900	-2
0.56267	-1
0.56633	-1
0.57000	-0
0.57367	-0
0.57733	-0
0.58100	-0
0.58467	-0
0.58833	-0
0.59200	-0
0.59567	-0
0.59933	0
0.60300	0
0.60667	0
0.61033	0
0.61400	0
0.61767	1
0.62133	1
0.62500	1
0.62867	1
0.63233	1
0.63600	0
0.63967	0
0.64333	-0
0.64700	-0
0.65067	-1
0.65433	-1
0.65800	-1
0.66167	-1
0.66533	-2
0.66900	-2
0.67267	-2
0.67633	-2
0.68000	-3
0.68367	-3
0.68733	-3
0.69100	-3
0.69467	-3
0.69833	-4
0.70200	-4
0.70567	-3
0.70933	-3
0.71300	-3
0.71667	-3
0.72033	-2
0.72400	-2
0.72767	-1
0.73133	-1
0.73500	-1
0.73867	-0
0.74233	-0
0.74600	0
0.74967	0
0.75333	0
0.75700	0
0.76067	0
0.76433	0
0.76800	0
0.77167	0
0.77533	0
0.77900	0
0.78267	1
0.78633	1
0.79000	1
0.79367	1
0.79733	1
0.80100	1
0.80467	1
0.80833	1
0.81200	0
0.81567	-0
0.81933	-1
0.82300	-1
0.82667	-1
0.83033	-1
0.83400	-2
0.83767	-2
0.84133	-2
0.84500	-2
0.84867	-2
0.85233	-2
0.85600	-2
0.85967	-2
0.86333	-3
0.86700	-3
0.87067	-3
0.87433	-3
0.87800	-3
0.88167	-3
0.88533	-4
0.88900	-4
0.89267	-4
0.89633	-4
0.90000	-4
0.90367	-4
0.90733	-4
0.91100	-5
0.91467	-5
0.91833	-5
0.92200	-5
0.92567	-5
0.92933	-5
0.93300	-5
0.93667	-5
0.94033	-6
0.94400	-6
0.94767	-6
0.95133	-6
0.95500	-6
0.95867	-6
0.96233	-6
0.96600	-6
0.96967	-6
0.97333	-6
0.97700	-6
0.98067	-5
0.98433	-5
0.98800	-4
0.99167	-4
0.99533	-4
0.99900	-4
1.00267	-3
1.00633	-4
1.01000	-3
1.01367	-3
1.01733	-3
1.02100	-3
1.02467	-3
1.02833	-2
1.03200	-2
1.03567	-2
1.03933	-1
1.04300	-1
1.04667	-1
1.05033	-1
1.05400	-1
1.05767	-1
1.06133	-1
1.06500	-1
1.06867	-1
1.07233	-1
1.07600	-1
1.07967	-1
1.08333	-1
1.08700	-1
1.09067	-1
1.09433	-1
1.09800	-1
1.10167	-1
1.10533	-1
1.10900	-2
1.11267	-2
1.11633	-2
1.12000	-2
1.12367	-2
1.12733	-2
1.13100	-3
1.13467	-3
1.13833	-3
1.14200	-3
1.14567	-4
1.14933	-4
1.15300	-4
1.15667	-4
1.16033	-4
1.16400	-4
1.16767	-4
1.17133	-3
1.17500	-3
1.17867	-3
1.18233	-2
1.18600	-2
1.18967	-2
1.19333	-1
1.19700	-1
1.20067	-1
1.20433	-1
1.20800	-2
1.21167	-2
1.21533	-3
1.21900	-3
1.22267	-3
1.22633	-3
1.23000	-3
1.23367	-4
1.23733	-4
1.24100	-4
1.24467	-4
1.24833	-4
1.25200	-4
1.25567	-4
1.25933	-4
1.26300	-4
1.26667	-4
1.27033	-4
1.27400	-4
1.27767	-4
1.28133	-5
1.28500	-5
1.28867	-5
1.29233	-5
1.29600	-5
1.29967	-5
1.30333	-5
1.30700	-5
1.31067	-5
1.31433	-5
1.31800	-5
1.32167	-5
1.32533	-5
1.32900	-4
1.33267	-4
1.33633	-4
1.34000	-3
1.34367	-3
1.34733	-3
1.35100	-3
1.35467	-3
1.35833	-3
1.36200	-3
1.36567	-3
1.36933	-3
1.37300	-4
1.37667	-4
1.38033	-4
1.38400	-5
1.38767	-5
1.39133	-5
1.39500	-5
1.39867	-6
1.40233	-6
1.40600	-6
1.40967	-7
1.41333	-7
1.41700	-7
1.42067	-7
1.42433	-7
1.42800	-8
1.43167	-8
1.43533	-8
1.43900	-8
1.44267	-7
1.44633	-7
1.45000	-7
1.45367	-6
1.45733	-6
1.46100	-6
1.46467	-6
1.46833	-6
1.47200	-5
1.47567	-5
1.47933	-5
1.48300	-5
1.48667	-5
1.49033	-5
1.49400	-5
1.49767	-5
1.50133	-5
1.50500	-5
1.50867	-5
1.51233	-5
1.51600	-5
1.51967	-5
1.52333	-5
1.52700	-5
1.53067	-5
1.53433	-5
1.53800	-5
1.54167	-5
1.54533	-5
1.54900	-6
1.55267	-6
1.55633	-6
1.56000	-7
1.56367	-7
1.56733	-7
1.57100	-7
1.57467	-7
1.57833	-7
1.58200	-7
1.58567	-7
1.58933	-7
1.59300	-7
1.59667	-7
1.60033	-8
1.60400	-8
1.60767	-9
1.61133	-10
1.61500	-12
1.61867	-14
1.62233	-16
1.62600	-19
1.62967	-22
1.63333	-25
1.63700	-28
1.64067	-31
1.64433	-34
1.64800	-37
1.65167	-41
1.65533	-44
1.65900	-47
1.66267	-50
1.66633	-54
1.67000	-58
1.67367	-62
1.67733	-66
1.68100	-71
1.68467	-75
1.68833	-79
1.69200	-83
1.69567	-86
1.69933	-89
1.70300	-92
1.70667	-94
1.71033	-95
1.71400	-97
1.71767	-98
1.72133	-100
1.72500	-100
1.72867	-101
1.73233	-101
1.73600	-101
1.73967	-101
1.74333	-101
1.74700	-102
1.75067	-102
1.75433	-102
1.75800	-102
1.76167	-103
1.76533	-104
1.76900	-104
1.77267	-105
1.77633	-106
1.78000	-106
1.78367	-106
1.78733	-106
1.79100	-106
1.79467	-106
1.79833	-106
1.80200	-106
1.80567	-106
1.80933	-106
1.81300	-106
1.81667	-106
1.82033	-105
1.82400	-105
1.82767	-105
1.83133	-104
1.83500	-104
1.83867	-103
1.84233	-103
1.84600	-103
1.84967	-103
1.85333	-104
1.85700	-104
1.86067	-104
1.86433	-104
1.86800	-104
1.87167	-105
1.87533	-105
1.87900	-105
1.88267	-104
1.88633	-104
1.89000	-104
1.89367	-103
1.89733	-103
1.90100	-103
1.90467	-103
1.90833	-103
1.91200	-103
1.91567	-103
1.91933	-103
1.92300	-103
1.92667	-103
1.93033	-102
1.93400	-102
1.93767	-102
1.94133	-101
1.94500	-101
1.94867	-101
1.95233	-101
1.95600	-101
1.95967	-101
1.96333	-101
1.96700	-101
1.97067	-100
1.97433	-100
1.97800	-99
1.98167	-99
1.98533	-98
1.98900	-98
1.99267	-97
1.99633	-97
2.00000	-97
2.00367	-97
2.00733	-97
2.01100	-97
2.01467	-97
2.01833	-96
2.02200	-96
2.02567	-95
2.02933	-95
2.03300	-95
2.03667	-94
2.04033	-94
2.04400	-93
2.04767	-93
2.05133	-93
2.05500	-92
2.05867	-92
2.06233	-93
2.06600	-93
2.06967	-93
2.07333	-93
2.07700	-93
2.08067	-93
2.08433	-93
2.08800	-92
2.09167	-92
2.09533	-91
2.09900	-90
2.10267	-90
2.10633	-90
2.11000	-90
2.11367	-91
2.11733	-91
2.12100	-91
2.12467	-91
2.12833	-90
2.13200	-89
2.13567	-89
2.13933	-89
2.14300	-89
2.14667	-90
2.15033	-91
2.15400	-92
2.15767	-92
2.16133	-92
2.16500	-91
2.16867	-91
2.17233	-90
2.17600	-89
2.17967	-88
2.18333	-88
2.18700	-87
2.19067	-86
2.19433	-86
2.19800	-85
2.20167	-84
2.20533	-84
2.20900	-83
2.21267	-82
2.21633	-81
2.22000	-81
2.22367	-80
2.22733	-80
2.23100	-80
2.23467	-80
2.23833	-79
2.24200	-79
2.24567	-78
2.24933	-78
2.25300	-78
2.25667	-78
2.26033	-78
2.26400	-79
2.26767	-80
2.27133	-81
2.27500	-81
2.27867	-80
2.28233	-80
2.28600	-79
2.28967	-79
2.29333	-78
2.29700	-77
2.30067	-77
2.30433	-76
2.30800	-75
2.31167	-75
2.31533	-74
2.31900	-73
2.32267	-72
2.32633	-71
2.33000	-71
2.33367	-72
2.33733	-72
2.34100	-72
2.34467	-72
2.34833	-71
2.35200	-71
2.35567	-70
2.35933	-69
2.36300	-68
2.36667	-67
2.37033	-65
2.37400	-62
2.37767	-59
2.38133	-56
2.38500	-52
2.38867	-48
2.39233	-44
2.39600	-40
2.39967	-36
2.40333	-32
2.40700	-28
2.41067	-24
2.41433	-20
2.41800	-17
2.42167	-14
2.42533	-11
2.42900	-9
2.43267	-7
2.43633	-5
2.44000	-3
2.44367	-1
2.44733	0
2.45100	2
2.45467	3
2.45833	4
2.46200	6
2.46567	7
2.46933	9
2.47300	10
2.47667	11
2.48033	12
2.48400	12
2.48767	13
2.49133	14
2.49500	14
2.49867	15
2.50233	14
2.50600	14
2.50967	14
2.51333	14
2.51700	14
2.52067	14
2.52433	13
2.52800	13
2.53167	12
2.53533	11
2.53900	10
2.54267	9
2.54633	8
2.55000	8
2.55367	8
2.55733	8
2.56100	8
2.56467	9
2.56833	10
2.57200	11
2.57567	12
2.57933	13
2.58300	14
2.58667	14
2.59033	14
2.59400	14
2.59767	14
2.60133	15
2.60500	16
2.60867	16
2.61233	17
2.61600	18
2.61967	19
2.62333	19
2.62700	20
2.63067	20
2.63433	20
2.63800	20
2.64167	20
2.64533	20
2.64900	20
2.65267	21
2.65633	21
2.66000	21
2.66367	21
2.66733	21
2.67100	21
2.67467	21
2.67833	21
2.68200	21
2.68567	21
2.68933	21
2.69300	22
2.69667	22
2.70033	23
2.70400	23
2.70767	23
2.71133	23
2.71500	24
2.71867	24
2.72233	24
2.72600	24
2.72967	24
2.73333	24
2.73700	24
2.74067	24
2.74433	24
2.74800	24
2.75167	24
2.75533	24
2.75900	25
2.76267	25
2.76633	25
2.77000	26
2.77367	26
2.77733	26
2.78100	27
2.78467	27
2.78833	28
2.79200	28
2.79567	28
2.79933	28
2.80300	27
2.80667	27
2.81033	26
2.81400	26
2.81767	25
2.82133	24
2.82500	24
2.82867	24
2.83233	24
2.83600	24
2.83967	25
2.84333	25
2.84700	25
2.85067	25
2.85433	25
2.85800	24
2.86167	21
2.86533	16
2.86900	9
2.87267	-3
2.87633	-20
2.88000	-41
2.88367	-69
2.88733	-103
2.89100	-144
2.89467	-191
2.89833	-244
2.90200	-303
2.90567	-368
2.90933	-439
2.91300	-514
2.91667	-593
2.92033	-677
2.92400	-764
2.92767	-855
2.93133	-948
2.93500	-1044
2.93867	-1143
2.94233	-1243
2.94600	-1345
2.94967	-1443
2.95333	-1524
2.95700	-1574
2.96067	-1588
2.96433	-1563
2.96800	-1504
2.97167	-1420
2.97533	-1319
2.97900	-1207
2.98267	-1092
2.98633	-978
2.99000	-869
2.99367	-766
2.99733	-671
3.00100	-585
3.00467	-508
3.00833	-439
3.01200	-379
3.01567	-325
3.01933	-279
3.02300	-239
3.02667	-204
3.03033	-174
3.03400	-148
3.03767	-126
3.04133	-106
3.04500	-90
3.04867	-76
3.05233	-63
3.05600	-53
3.05967	-43
3.06333	-36
3.06700	-29
3.07067	-23
3.07433	-18
3.07800	-13
3.08167	-9
3.08533	-6
3.08900	-3
3.09267	-1
3.09633	1
3.10000	3
3.10367	5
3.10733	6
3.11100	8
3.11467	9
3.11833	10
3.12200	11
3.12567	11
3.12933	12
3.13300	12
3.13667	13
3.14033	13
3.14400	14
3.14767	14
3.15133	14
3.15500	14
3.15867	15
3.16233	15
3.16600	15
3.16967	15
3.17333	16
3.17700	16
3.18067	16
3.18433	16
3.18800	16
3.19167	16
3.19533	16
3.19900	16
3.20267	17
3.20633	17
3.21000	17
3.21367	17
3.21733	17
3.22100	18
3.22467	18
3.22833	19
3.23200	19
3.23567	20
3.23933	20
3.24300	20
3.24667	21
3.25033	21
3.25400	21
3.25767	21
3.26133	21
3.26500	21
3.26867	21
3.27233	21
3.27600	22
3.27967	22
3.28333	22
3.28700	22
3.29067	22
3.29433	22
3.29800	22
3.30167	23
3.30533	23
3.30900	23
3.31267	23
3.31633	23
3.32000	23
3.32367	23
3.32733	23
3.33100	24
3.33467	24
3.33833	24
3.34200	24
3.34567	24
3.34933	24
3.35300	24
3.35667	24
3.36033	25
3.36400	25
3.36767	26
3.37133	26
3.37500	26
3.37867	26
3.38233	26
3.38600	26
3.38967	26
3.39333	26
3.39700	26
3.40067	26
3.40433	26
3.40800	27
3.41167	27
3.41533	27
3.41900	28
3.42267	28
3.42633	28
3.43000	28
3.43367	28
3.43733	28
3.44100	28
3.44467	28
3.44833	29
3.45200	29
3.45567	29
3.45933	29
3.46300	29
3.46667	28
3.47033	28
3.47400	28
3.47767	28
3.48133	28
3.48500	28
3.48867	28
3.49233	28
3.49600	28
3.49967	28
3.50333	28
3.50700	27
3.51067	27
3.51433	27
3.51800	27
3.52167	27
3.52533	27
3.52900	27
3.53267	26
3.53633	26
3.54000	26
3.54367	26
3.54733	25
3.55100	25
3.55467	25
3.55833	25
3.56200	25
3.56567	26
3.56933	26
3.57300	26
3.57667	26
3.58033	26
3.58400	27
3.58767	27
3.59133	27
3.59500	27
3.59867	27
3.60233	27
3.60600	27
3.60967	27
3.61333	27
3.61700	27
3.62067	27
3.62433	27
3.62800	27
3.63167	27
3.63533	27
3.63900	26
3.64267	26
3.64633	26
3.65000	26
3.65367	26
3.65733	26
3.66100	26
3.66467	26
3.66833	26
3.67200	26
3.67567	26
3.67933	26
3.68300	26
3.68667	26
3.69033	25
3.69400	25
3.69767	25
3.70133	25
3.70500	26
3.70867	26
3.71233	26
3.71600	27
3.71967	27
3.72333	27
3.72700	27
3.73067	27
3.73433	28
3.73800	28
3.74167	28
3.74533	28
3.74900	27
3.75267	27
3.75633	27
3.76000	27
3.76367	27
3.76733	27
3.77100	27
3.77467	27
3.77833	26
3.78200	26
3.78567	26
3.78933	26
3.79300	26
3.79667	26
3.80033	26
3.80400	26
3.80767	26
3.81133	26
3.81500	26
3.81867	26
3.82233	26
3.82600	26
3.82967	26
3.83333	25
3.83700	25
3.84067	25
3.84433	25
3.84800	25
3.85167	25
3.85533	25
3.85900	25
3.86267	26
3.86633	26
3.87000	26
3.87367	26
3.87733	26
3.88100	26
3.88467	26
3.88833	26
3.89200	26
3.89567	26
3.89933	26
3.90300	27
3.90667	27
3.91033	27
3.91400	27
3.91767	27
3.92133	27
3.92500	27
3.92867	28
3.93233	28
3.93600	28
3.93967	28
3.94333	28
3.94700	28
3.95067	28
3.95433	28
3.95800	28
3.96167	28
3.96533	28
3.96900	27
3.97267	27
3.97633	27
3.98000	27
3.98367	27
3.98733	27
3.99100	28
3.99467	28
3.99833	28

[Chromatogram (Ch3)]
Interval(msec)	220
# of Points	1091
Start Time(min)	0.002
End Time(min)	3.998
R.Time (min)	Intensity
0.00167	0
0.00533	2
0.00900	3
0.01267	3
0.01633	4
0.02000	2
0.02367	2
0.02733	2
0.03100	1
0.03467	1
0.03833	-1
0.04200	-1
0.04567	-3
0.04933	-5
0.05300	-6
0.05667	-6
0.06033	-6
0.06400	-6
0.06767	-6
0.07133	-7
0.07500	-5
0.07867	-2
0.08233	2
0.08600	4
0.08967	2
0.09333	-0
0.09700	-1
0.10067	-0
0.10433	0
0.10800	-0
0.11167	0
0.11533	1
0.11900	2
0.12267	2
0.12633	2
0.13000	2
0.13367	2
0.13733	1
0.14100	3
0.14467	2
0.14833	0
0.15200	1
0.15567	3
0.15933	1
0.16300	-0
0.16667	-2
0.17033	-1
0.17400	-0
0.17767	3
0.18133	5
0.18500	3
0.18867	2
0.19233	1
0.19600	1
0.19967	1
0.20333	-1
0.20700	0
0.21067	2
0.21433	3
0.21800	2
0.22167	1
0.22533	1
0.22900	1
0.23267	2
0.23633	4
0.24000	6
0.24367	7
0.24733	8
0.25100	7
0.25467	6
0.25833	5
0.26200	3
0.26567	2
0.26933	1
0.27300	2
0.27667	3
0.28033	4
0.28400	3
0.28767	0
0.29133	-1
0.29500	-1
0.29867	-1
0.30233	-0
0.30600	1
0.30967	2
0.31333	4
0.31700	5
0.32067	5
0.32433	4
0.32800	5
0.33167	5
0.33533	6
0.33900	6
0.34267	7
0.34633	6
0.35000	6
0.35367	7
0.35733	6
0.36100	6
0.36467	7
0.36833	7
0.37200	6
0.37567	4
0.37933	3
0.38300	3
0.38667	3
0.39033	2
0.39400	2
0.39767	2
0.40133	1
0.40500	1
0.40867	1
0.41233	2
0.41600	2
0.41967	2
0.42333	2
0.42700	3
0.43067	4
0.43433	5
0.43800	6
0.44167	6
0.44533	4
0.44900	3
0.45267	3
0.45633	3
0.46000	4
0.46367	5
0.46733	4
0.47100	3
0.47467	2
0.47833	2
0.48200	3
0.48567	4
0.48933	3
0.49300	4
0.49667	5
0.50033	5
0.50400	5
0.50767	4
0.51133	1
0.51500	-0
0.51867	0
0.52233	3
0.52600	5
0.52967	7
0.53333	7
0.53700	3
0.54067	2
0.54433	2
0.54800	3
0.55167	4
0.55533	3
0.55900	2
0.56267	-0
0.56633	1
0.57000	2
0.57367	2
0.57733	2
0.58100	4
0.58467	3
0.58833	3
0.59200	3
0.59567	2
0.59933	2
0.60300	0
0.60667	-1
0.61033	-1
0.61400	-2
0.61767	-2
0.62133	-0
0.62500	1
0.62867	1
0.63233	2
0.63600	5
0.63967	5
0.64333	3
0.64700	4
0.65067	7
0.65433	7
0.65800	5
0.66167	5
0.66533	8
0.66900	9
0.67267	8
0.67633	7
0.68000	5
0.68367	5
0.68733	7
0.69100	7
0.69467	7
0.69833	8
0.70200	8
0.70567	7
0.70933	5
0.71300	2
0.71667	1
0.72033	2
0.72400	1
0.72767	-1
0.73133	-4
0.73500	-5
0.73867	-3
0.74233	-3
0.74600	-2
0.74967	-1
0.75333	-1
0.75700	0
0.76067	2
0.76433	0
0.76800	-0
0.77167	-2
0.77533	-3
0.77900	-3
0.78267	-1
0.78633	0
0.79000	2
0.79367	1
0.79733	2
0.80100	3
0.80467	4
0.80833	5
0.81200	3
0.81567	1
0.81933	1
0.82300	3
0.82667	5
0.83033	6
0.83400	6
0.83767	5
0.84133	5
0.84500	4
0.84867	3
0.85233	1
0.85600	0
0.85967	1
0.86333	0
0.86700	1
0.87067	2
0.87433	4
0.87800	3
0.88167	3
0.88533	3
0.88900	3
0.89267	5
0.89633	5
0.90000	4
0.90367	3
0.90733	2
0.91100	0
0.91467	-1
0.91833	-0
0.92200	1
0.92567	2
0.92933	4
0.93300	5
0.93667	6
0.94033	4
0.94400	2
0.94767	2
0.95133	1
0.95500	-1
0.95867	-2
0.96233	1
0.96600	3
0.96967	4
0.97333	6
0.97700	7
0.98067	5
0.98433	3
0.98800	1
0.99167	-0
0.99533	0
0.99900	0
1.00267	0
1.00633	1
1.01000	1
1.01367	-0
1.01733	-0
1.02100	-0
1.02467	-2
1.02833	-2
1.03200	-2
1.03567	-1
1.03933	-1
1.04300	-3
1.04667	-4
1.05033	-4
1.05400	-2
1.05767	0
1.06133	1
1.06500	2
1.06867	1
1.07233	0
1.07600	-1
1.07967	-1
1.08333	0
1.08700	-1
1.09067	-3
1.09433	-2
1.09800	-1
1.10167	0
1.10533	2
1.10900	2
1.11267	1
1.11633	-3
1.12000	-4
1.12367	-3
1.12733	-3
1.13100	-3
1.13467	-1
1.13833	-1
1.14200	-0
1.14567	2
1.14933	4
1.15300	4
1.15667	4
1.16033	5
1.16400	4
1.16767	1
1.17133	1
1.17500	1
1.17867	1
1.18233	0
1.18600	-1
1.18967	-0
1.19333	-0
1.19700	-2
1.20067	-3
1.20433	-2
1.20800	-2
1.21167	-2
1.21533	1
1.21900	4
1.22267	4
1.22633	4
1.23000	3
1.23367	2
1.23733	-0
1.24100	-2
1.24467	-4
1.24833	-6
1.25200	-8
1.25567	-7
1.25933	-8
1.26300	-6
1.26667	-3
1.27033	-1
1.27400	0
1.27767	1
1.28133	1
1.28500	2
1.28867	3
1.29233	5
1.29600	4
1.29967	4
1.30333	3
1.30700	3
1.31067	1
1.31433	-1
1.31800	-3
1.32167	-6
1.32533	-6
1.32900	-5
1.33267	-6
1.33633	-6
1.34000	-5
1.34367	-5
1.34733	-6
1.35100	-5
1.35467	-4
1.35833	-3
1.36200	-4
1.36567	-6
1.36933	-5
1.37300	-4
1.37667	-3
1.38033	-5
1.38400	-5
1.38767	-4
1.39133	-5
1.39500	-5
1.39867	-4
1.40233	-3
1.40600	-1
1.40967	0
1.41333	-1
1.41700	-1
1.42067	-0
1.42433	-2
1.42800	-2
1.43167	-2
1.43533	-3
1.43900	-3
1.44267	-4
1.44633	-6
1.45000	-7
1.45367	-4
1.45733	-1
1.46100	0
1.46467	1
1.46833	-0
1.47200	-2
1.47567	1
1.47933	2
1.48300	1
1.48667	0
1.49033	1
1.49400	3
1.49767	3
1.50133	2
1.50500	2
1.50867	-1
1.51233	-4
1.51600	-6
1.51967	-4
1.52333	-2
1.52700	1
1.53067	4
1.53433	3
1.53800	2
1.54167	0
1.54533	-0
1.54900	0
1.55267	0
1.55633	-0
1.56000	-2
1.56367	-3
1.56733	-4
1.57100	-5
1.57467	-5
1.57833	-2
1.58200	-1
1.58567	-1
1.58933	-0
1.59300	0
1.59667	1
1.60033	-0
1.60400	0
1.60767	1
1.61133	2
1.61500	2
1.61867	3
1.62233	1
1.62600	-1
1.62967	-2
1.63333	-1
1.63700	1
1.64067	2
1.64433	2
1.64800	1
1.65167	1
1.65533	1
1.65900	2
1.66267	3
1.66633	4
1.67000	3
1.67367	4
1.67733	6
1.68100	8
1.68467	10
1.68833	10
1.69200	8
1.69567	7
1.69933	10
1.70300	12
1.70667	13
1.71033	14
1.71400	13
1.71767	14
1.72133	15
1.72500	15
1.72867	14
1.73233	13
1.73600	14
1.73967	14
1.74333	12
1.74700	11
1.75067	8
1.75433	9
1.75800	11
1.76167	12
1.76533	13
1.76900	15
1.77267	18
1.77633	18
1.78000	17
1.78367	16
1.78733	14
1.79100	14
1.79467	14
1.79833	14
1.80200	16
1.80567	18
1.80933	19
1.81300	16
1.81667	14
1.82033	15
1.82400	16
1.82767	17
1.83133	19
1.83500	20
1.83867	19
1.84233	18
1.84600	18
1.84967	19
1.85333	20
1.85700	20
1.86067	21
1.86433	21
1.86800	22
1.87167	23
1.87533	25
1.87900	27
1.88267	29
1.88633	31
1.89000	31
1.89367	30
1.89733	30
1.90100	30
1.90467	29
1.90833	28
1.91200	28
1.91567	29
1.91933	32
1.92300	33
1.92667	33
1.93033	31
1.93400	28
1.93767	26
1.94133	24
1.94500	26
1.94867	27
1.95233	29
1.95600	30
1.95967	31
1.96333	33
1.96700	35
1.97067	36
1.97433	37
1.97800	38
1.98167	39
1.98533	38
1.98900	36
1.99267	37
1.99633	39
2.00000	43
2.00367	47
2.00733	47
2.01100	49
2.01467	49
2.01833	46
2.02200	43
2.02567	44
2.02933	45
2.03300	46
2.03667	47
2.04033	48
2.04400	50
2.04767	53
2.05133	53
2.05500	52
2.05867	52
2.06233	53
2.06600	54
2.06967	55
2.07333	55
2.07700	54
2.08067	52
2.08433	54
2.08800	56
2.09167	57
2.09533	59
2.09900	60
2.10267	61
2.10633	60
2.11000	60
2.11367	61
2.11733	61
2.12100	63
2.12467	65
2.12833	66
2.13200	67
2.13567	67
2.13933	64
2.14300	62
2.14667	61
2.15033	62
2.15400	64
2.15767	65
2.16133	67
2.16500	68
2.16867	68
2.17233	70
2.17600	71
2.17967	71
2.18333	69
2.18700	68
2.19067	67
2.19433	67
2.19800	68
2.20167	70
2.20533	71
2.20900	71
2.21267	73
2.21633	77
2.22000	78
2.22367	77
2.22733	76
2.23100	76
2.23467	78
2.23833	79
2.24200	80
2.24567	80
2.24933	80
2.25300	78
2.25667	77
2.26033	78
2.26400	78
2.26767	78
2.27133	80
2.27500	81
2.27867	81
2.28233	81
2.28600	82
2.28967	83
2.29333	85
2.29700	86
2.30067	88
2.30433	90
2.30800	92
2.31167	93
2.31533	93
2.31900	91
2.32267	91
2.32633	94
2.33000	95
2.33367	96
2.33733	97
2.34100	97
2.34467	97
2.34833	98
2.35200	98
2.35567	98
2.35933	97
2.36300	96
2.36667	97
2.37033	97
2.37400	96
2.37767	96
2.38133	95
2.38500	94
2.38867	92
2.39233	93
2.39600	96
2.39967	99
2.40333	101
2.40700	106
2.41067	109
2.41433	112
2.41800	114
2.42167	115
2.42533	118
2.42900	120
2.43267	120
2.43633	120
2.44000	128
2.44367	189
2.44733	298
2.45100	406
2.45467	482
2.45833	512
2.46200	513
2.46567	510
2.46933	507
2.47300	492
2.47667	462
2.48033	424
2.48400	385
2.48767	352
2.49133	328
2.49500	318
2.49867	318
2.50233	325
2.50600	333
2.50967	341
2.51333	343
2.51700	338
2.52067	325
2.52433	306
2.52800	282
2.53167	260
2.53533	240
2.53900	223
2.54267	209
2.54633	199
2.55000	194
2.55367	191
2.55733	188
2.56100	189
2.56467	194
2.56833	201
2.57200	208
2.57567	217
2.57933	226
2.58300	236
2.58667	248
2.59033	261
2.59400	274
2.59767	283
2.60133	291
2.60500	295
2.60867	298
2.61233	294
2.61600	284
2.61967	270
2.62333	253
2.62700	236
2.63067	219
2.63433	201
2.63800	185
2.64167	169
2.64533	154
2.64900	145
2.65267	138
2.65633	130
2.66000	123
2.66367	119
2.66733	118
2.67100	118
2.67467	116
2.67833	115
2.68200	113
2.68567	112
2.68933	111
2.69300	110
2.69667	111
2.70033	115
2.70400	117
2.70767	117
2.71133	118
2.71500	120
2.71867	123
2.72233	127
2.72600	132
2.72967	136
2.73333	141
2.73700	144
2.74067	148
2.74433	152
2.74800	155
2.75167	160
2.75533	165
2.75900	169
2.76267	174
2.76633	180
2.77000	187
2.77367	194
2.77733	200
2.78100	206
2.78467	210
2.78833	213
2.79200	215
2.79567	217
2.79933	221
2.80300	225
2.80667	227
2.81033	232
2.81400	233
2.81767	233
2.82133	235
2.82500	239
2.82867	251
2.83233	281
2.83600	359
2.83967	528
2.84333	849
2.84700	1384
2.85067	2190
2.85433	3293
2.85800	4678
2.86167	6288
2.86533	8030
2.86900	9774
2.87267	11376
2.87633	12713
2.88000	13689
2.88367	14253
2.88733	14412
2.89100	14207
2.89467	13704
2.89833	12979
2.90200	12106
2.90567	11150
2.90933	10168
2.91300	9201
2.91667	8277
2.92033	7413
2.92400	6617
2.92767	5896
2.93133	5246
2.93500	4665
2.93867	4146
2.94233	3688
2.94600	3283
2.94967	2927
2.95333	2613
2.95700	2337
2.96067	2095
2.96433	1882
2.96800	1697
2.97167	1541
2.97533	1405
2.97900	1288
2.98267	1187
2.98633	1100
2.99000	1026
2.99367	963
2.99733	907
3.00100	859
3.00467	817
3.00833	781
3.01200	750
3.01567	726
3.01933	704
3.02300	685
3.02667	670
3.03033	657
3.03400	647
3.03767	635
3.04133	625
3.04500	618
3.04867	614
3.05233	611
3.05600	611
3.05967	610
3.06333	607
3.06700	605
3.07067	605
3.07433	601
3.07800	598
3.08167	599
3.08533	602
3.08900	602
3.09267	602
3.09633	605
3.10000	609
3.10367	611
3.10733	613
3.11100	614
3.11467	615
3.11833	619
3.12200	623
3.12567	627
3.12933	632
3.13300	635
3.13667	636
3.14033	639
3.14400	643
3.14767	645
3.15133	647
3.15500	648
3.15867	650
3.16233	653
3.16600	654
3.16967	652
3.17333	651
3.17700	651
3.18067	652
3.18433	655
3.18800	657
3.19167	658
3.19533	657
3.19900	654
3.20267	650
3.20633	648
3.21000	646
3.21367	644
3.21733	643
3.22100	642
3.22467	639
3.22833	636
3.23200	634
3.23567	633
3.23933	629
3.24300	623
3.24667	619
3.25033	618
3.25400	617
3.25767	615
3.26133	612
3.26500	609
3.26867	606
3.27233	606
3.27600	604
3.27967	601
3.28333	600
3.28700	597
3.29067	594
3.29433	590
3.29800	587
3.30167	585
3.30533	585
3.30900	583
3.31267	581
3.31633	580
3.32000	578
3.32367	574
3.32733	572
3.33100	570
3.33467	567
3.33833	565
3.34200	560
3.34567	558
3.34933	557
3.35300	554
3.35667	552
3.36033	551
3.36400	551
3.36767	549
3.37133	545
3.37500	544
3.37867	543
3.38233	540
3.38600	538
3.38967	537
3.39333	535
3.39700	535
3.40067	532
3.40433	531
3.40800	528
3.41167	524
3.41533	521
3.41900	520
3.42267	520
3.42633	519
3.43000	519
3.43367	518
3.43733	516
3.44100	514
3.44467	510
3.44833	510
3.45200	509
3.45567	507
3.45933	505
3.46300	503
3.46667	501
3.47033	500
3.47400	497
3.47767	495
3.48133	495
3.48500	495
3.48867	492
3.49233	489
3.49600	487
3.49967	484
3.50333	481
3.50700	478
3.51067	476
3.51433	475
3.51800	475
3.52167	475
3.52533	473
3.52900	470
3.53267	469
3.53633	469
3.54000	470
3.54367	469
3.54733	469
3.55100	468
3.55467	468
3.55833	468
3.56200	467
3.56567	466
3.56933	465
3.57300	464
3.57667	462
3.58033	458
3.58400	459
3.58767	459
3.59133	458
3.59500	456
3.59867	452
3.60233	450
3.60600	450
3.60967	451
3.61333	450
3.61700	447
3.62067	445
3.62433	444
3.62800	445
3.63167	446
3.63533	448
3.63900	450
3.64267	450
3.64633	445
3.65000	443
3.65367	441
3.65733	441
3.66100	441
3.66467	441
3.66833	440
3.67200	439
3.67567	439
3.67933	437
3.68300	437
3.68667	436
3.69033	433
3.69400	431
3.69767	430
3.70133	426
3.70500	423
3.70867	423
3.71233	425
3.71600	425
3.71967	423
3.72333	422
3.72700	424
3.73067	427
3.73433	429
3.73800	429
3.74167	428
3.74533	427
3.74900	425
3.75267	424
3.75633	423
3.76000	424
3.76367	423
3.76733	424
3.77100	425
3.77467	426
3.77833	426
3.78200	426
3.78567	427
3.78933	425
3.79300	424
3.79667	424
3.80033	423
3.80400	422
3.80767	423
3.81133	422
3.81500	422
3.81867	423
3.82233	422
3.82600	420
3.82967	418
3.83333	418
3.83700	417
3.84067	417
3.84433	416
3.84800	416
3.85167	417
3.85533	416
3.85900	414
3.86267	413
3.86633	412
3.87000	412
3.87367	410
3.87733	409
3.88100	411
3.88467	410
3.88833	408
3.89200	407
3.89567	407
3.89933	409
3.90300	410
3.90667	409
3.91033	409
3.91400	408
3.91767	407
3.92133	405
3.92500	403
3.92867	402
3.93233	401
3.93600	399
3.93967	396
3.94333	395
3.94700	395
3.95067	395
3.95433	397
3.95800	398
3.96167	398
3.96533	398
3.96900	396
3.97267	396
3.97633	395
3.98000	393
3.98367	390
3.98733	387
3.99100	384
3.99467	381
3.99833	379

[Status Trace (Column Oven Temperature)]
Interval(msec)	1000
# of Points	240
Start Time(min)	0.007
End Time(min)	3.991
Intensity Units	
Intensity Multiplier	1
R.Time (min)	Intensity
0.00732	35.06
0.02398	35.05
0.04065	35.05
0.05732	35.05
0.07398	35.04
0.09065	35.03
0.10732	35.03
0.12398	35.03
0.14065	35.03
0.15732	35.04
0.17398	35.03
0.19065	35.03
0.20732	35.04
0.22398	35.03
0.24065	35.04
0.25732	35.04
0.27398	35.03
0.29065	35.03
0.30732	35.02
0.32398	35.02
0.34065	35.02
0.35732	35.01
0.37398	35.01
0.39065	35.00
0.40732	35.01
0.42398	35.01
0.44065	35.02
0.45732	35.03
0.47398	35.03
0.49065	35.05
0.50732	35.04
0.52398	35.04
0.54065	35.04
0.55732	35.03
0.57398	35.02
0.59065	35.01
0.60732	35.01
0.62398	35.00
0.64065	35.00
0.65732	35.01
0.67398	35.01
0.69065	35.01
0.70732	35.02
0.72398	35.02
0.74065	35.00
0.75732	34.98
0.77398	34.98
0.79065	34.97
0.80732	34.96
0.82398	34.96
0.84065	34.96
0.85732	34.95
0.87398	34.96
0.89065	34.97
0.90732	34.98
0.92398	35.00
0.94065	35.01
0.95732	35.02
0.97398	35.02
0.99065	35.02
1.00732	35.02
1.02398	35.01
1.04065	34.99
1.05732	34.99
1.07398	34.98
1.09065	34.97
1.10732	34.97
1.12398	34.98
1.14065	34.99
1.15732	34.98
1.17398	34.98
1.19065	34.97
1.20732	34.96
1.22398	34.97
1.24065	34.96
1.25732	34.97
1.27398	34.97
1.29065	34.98
1.30732	34.98
1.32398	34.98
1.34065	34.97
1.35732	34.98
1.37398	34.97
1.39065	34.98
1.40732	34.99
1.42398	35.00
1.44065	35.01
1.45732	35.01
1.47398	35.00
1.49065	35.00
1.50732	35.00
1.52398	35.01
1.54065	35.00
1.55732	35.00
1.57398	35.01
1.59065	35.03
1.60732	35.08
1.62398	35.20
1.64065	35.37
1.65732	35.60
1.67398	35.90
1.69065	36.27
1.70732	36.62
1.72398	36.96
1.74065	37.30
1.75732	37.63
1.77398	37.97
1.79065	38.30
1.80732	38.64
1.82398	38.96
1.84065	39.28
1.85732	39.61
1.87398	39.95
1.89065	40.27
1.90732	40.60
1.92398	40.93
1.94065	41.24
1.95732	41.58
1.97398	41.89
1.99065	42.20
2.00732	42.53
2.02398	42.86
2.04065	43.17
2.05732	43.49
2.07398	43.83
2.09065	44.13
2.10732	44.46
2.12398	44.78
2.14065	45.14
2.15732	45.49
2.17398	45.83
2.19065	46.15
2.20732	46.46
2.22398	46.79
2.24065	47.11
2.25732	47.44
2.27398	47.79
2.29065	48.13
2.30732	48.46
2.32398	48.77
2.34065	49.12
2.35732	49.42
2.37398	49.62
2.39065	49.70
2.40732	49.70
2.42398	49.70
2.44065	49.70
2.45732	49.72
2.47398	49.71
2.49065	49.70
2.50732	49.72
2.52398	49.73
2.54065	49.75
2.55732	49.77
2.57398	49.76
2.59065	49.81
2.60732	49.81
2.62398	49.81
2.64065	49.83
2.65732	49.82
2.67398	49.84
2.69065	49.85
2.70732	49.85
2.72398	49.85
2.74065	49.86
2.75732	49.87
2.77398	49.86
2.79065	49.84
2.80732	49.87
2.82398	49.89
2.84065	49.90
2.85732	49.89
2.87398	49.88
2.89065	49.88
2.90732	49.88
2.92398	49.89
2.94065	49.91
2.95732	49.93
2.97398	49.95
2.99065	49.97
3.00732	49.97
3.02398	50.00
3.04065	50.01
3.05732	50.01
3.07398	50.01
3.09065	50.01
3.10732	50.00
3.12398	50.00
3.14065	50.00
3.15732	50.01
3.17398	50.03
3.19065	50.04
3.20732	50.06
3.22398	50.07
3.24065	50.07
3.25732	50.06
3.27398	50.07
3.29065	50.08
3.30732	50.09
3.32398	50.09
3.34065	50.10
3.35732	50.10
3.37398	50.10
3.39065	50.10
3.40732	50.10
3.42398	50.08
3.44065	50.07
3.45732	50.05
3.47398	50.05
3.49065	50.05
3.50732	50.04
3.52398	50.04
3.54065	50.05
3.55732	50.06
3.57398	50.05
3.59065	50.05
3.60732	50.06
3.62398	50.05
3.64065	50.06
3.65732	50.07
3.67398	50.07
3.69065	50.07
3.70732	50.07
3.72398	50.06
3.74065	50.06
3.75732	50.05
3.77398	50.07
3.79065	50.08
3.80732	50.08
3.82398	50.08
3.84065	50.09
3.85732	50.09
3.87398	50.09
3.89065	50.09
3.90732	50.08
3.92398	50.07
3.94065	50.07
3.95732	50.06
3.97398	50.07
3.99065	50.06

[Status Trace (Injection Unit Temperature)]
Interval(msec)	1000
# of Points	240
Start Time(min)	0.007
End Time(min)	3.991
Intensity Units	
Intensity Multiplier	1
R.Time (min)	Intensity
0.00732	99.97
0.02398	99.97
0.04065	99.97
0.05732	99.97
0.07398	99.97
0.09065	99.98
0.10732	99.97
0.12398	99.98
0.14065	99.97
0.15732	99.98
0.17398	99.98
0.19065	99.98
0.20732	99.98
0.22398	99.98
0.24065	99.98
0.25732	99.98
0.27398	99.98
0.29065	99.98
0.30732	99.98
0.32398	99.98
0.34065	99.98
0.35732	99.98
0.37398	99.98
0.39065	99.98
0.40732	99.98
0.42398	99.98
0.44065	99.99
0.45732	99.98
0.47398	99.98
0.49065	99.98
0.50732	99.98
0.52398	99.98
0.54065	99.99
0.55732	99.98
0.57398	99.98
0.59065	99.98
0.60732	99.98
0.62398	99.98
0.64065	99.98
0.65732	99.99
0.67398	99.98
0.69065	99.98
0.70732	99.98
0.72398	99.98
0.74065	99.98
0.75732	99.98
0.77398	99.98
0.79065	99.98
0.80732	99.98
0.82398	99.98
0.84065	99.98
0.85732	99.98
0.87398	99.98
0.89065	99.99
0.90732	99.98
0.92398	99.98
0.94065	99.98
0.95732	99.98
0.97398	99.98
0.99065	99.98
1.00732	99.98
1.02398	99.98
1.04065	99.98
1.05732	99.98
1.07398	99.98
1.09065	99.99
1.10732	99.98
1.12398	99.98
1.14065	99.99
1.15732	99.99
1.17398	99.99
1.19065	99.99
1.20732	99.99
1.22398	99.98
1.24065	99.99
1.25732	99.98
1.27398	99.99
1.29065	99.99
1.30732	99.99
1.32398	99.99
1.34065	99.99
1.35732	99.99
1.37398	99.99
1.39065	99.98
1.40732	99.99
1.42398	99.99
1.44065	99.98
1.45732	99.99
1.47398	99.98
1.49065	99.99
1.50732	99.98
1.52398	99.98
1.54065	99.98
1.55732	99.98
1.57398	99.98
1.59065	99.98
1.60732	99.98
1.62398	99.98
1.64065	99.99
1.65732	99.99
1.67398	99.99
1.69065	99.98
1.70732	99.99
1.72398	99.99
1.74065	99.99
1.75732	99.99
1.77398	99.99
1.79065	99.99
1.80732	99.99
1.82398	99.99
1.84065	99.98
1.85732	99.98
1.87398	99.99
1.89065	99.99
1.90732	99.98
1.92398	99.98
1.94065	99.99
1.95732	99.98
1.97398	99.98
1.99065	99.98
2.00732	99.98
2.02398	99.98
2.04065	99.98
2.05732	99.98
2.07398	99.98
2.09065	99.98
2.10732	99.97
2.12398	99.98
2.14065	99.97
2.15732	99.98
2.17398	99.97
2.19065	99.98
2.20732	99.98
2.22398	99.98
2.24065	99.97
2.25732	99.98
2.27398	99.97
2.29065	99.97
2.30732	99.97
2.32398	99.97
2.34065	99.97
2.35732	99.97
2.37398	99.97
2.39065	99.97
2.40732	99.97
2.42398	99.97
2.44065	99.97
2.45732	99.97
2.47398	99.97
2.49065	99.97
2.50732	99.97
2.52398	99.97
2.54065	99.97
2.55732	99.98
2.57398	99.97
2.59065	99.97
2.60732	99.97
2.62398	99.98
2.64065	99.98
2.65732	99.98
2.67398	99.98
2.69065	99.99
2.70732	99.98
2.72398	99.99
2.74065	99.98
2.75732	99.99
2.77398	99.99
2.79065	99.98
2.80732	99.99
2.82398	100.00
2.84065	100.00
2.85732	100.00
2.87398	100.00
2.89065	100.00
2.90732	100.00
2.92398	100.01
2.94065	100.01
2.95732	100.00
2.97398	100.01
2.99065	100.01
3.00732	100.01
3.02398	100.01
3.04065	100.01
3.05732	100.01
3.07398	100.01
3.09065	100.01
3.10732	100.02
3.12398	100.02
3.14065	100.02
3.15732	100.02
3.17398	100.02
3.19065	100.02
3.20732	100.02
3.22398	100.02
3.24065	100.03
3.25732	100.02
3.27398	100.03
3.29065	100.03
3.30732	100.03
3.32398	100.02
3.34065	100.03
3.35732	100.03
3.37398	100.03
3.39065	100.03
3.40732	100.03
3.42398	100.03
3.44065	100.03
3.45732	100.03
3.47398	100.03
3.49065	100.03
3.50732	100.03
3.52398	100.04
3.54065	100.04
3.55732	100.04
3.57398	100.04
3.59065	100.04
3.60732	100.04
3.62398	100.04
3.64065	100.04
3.65732	100.04
3.67398	100.04
3.69065	100.04
3.70732	100.05
3.72398	100.04
3.74065	100.05
3.75732	100.04
3.77398	100.05
3.79065	100.05
3.80732	100.05
3.82398	100.05
3.84065	100.05
3.85732	100.05
3.87398	100.05
3.89065	100.05
3.90732	100.05
3.92398	100.05
3.94065	100.05
3.95732	100.05
3.97398	100.05
3.99065	100.05

[Status Trace (Carrier Gas Pressure)]
Interval(msec)	1000
# of Points	240
Start Time(min)	0.007
End Time(min)	3.991
Intensity Units	
Intensity Multiplier	1
R.Time (min)	Intensity
0.00732	58.00
0.02398	55.42
0.04065	56.94
0.05732	59.14
0.07398	59.51
0.09065	58.11
0.10732	57.98
0.12398	58.01
0.14065	58.01
0.15732	58.01
0.17398	58.00
0.19065	58.00
0.20732	58.00
0.22398	58.00
0.24065	58.00
0.25732	58.00
0.27398	58.00
0.29065	58.00
0.30732	58.00
0.32398	58.00
0.34065	58.00
0.35732	58.00
0.37398	58.00
0.39065	58.00
0.40732	58.00
0.42398	58.00
0.44065	58.00
0.45732	58.00
0.47398	58.00
0.49065	58.00
0.50732	58.00
0.52398	58.00
0.54065	58.00
0.55732	58.00
0.57398	58.00
0.59065	58.00
0.60732	58.00
0.62398	58.00
0.64065	58.00
0.65732	58.00
0.67398	58.00
0.69065	58.00
0.70732	58.00
0.72398	58.00
0.74065	58.00
0.75732	58.00
0.77398	58.00
0.79065	58.00
0.80732	58.00
0.82398	58.00
0.84065	58.00
0.85732	58.00
0.87398	58.00
0.89065	58.00
0.90732	58.00
0.92398	58.00
0.94065	58.00
0.95732	58.00
0.97398	58.00
0.99065	58.00
1.00732	58.00
1.02398	58.00
1.04065	58.00
1.05732	58.00
1.07398	58.00
1.09065	58.00
1.10732	58.00
1.12398	58.00
1.14065	58.00
1.15732	58.00
1.17398	58.00
1.19065	58.00
1.20732	58.00
1.22398	58.00
1.24065	58.00
1.25732	58.00
1.27398	58.00
1.29065	58.00
1.30732	58.00
1.32398	58.00
1.34065	58.00
1.35732	58.00
1.37398	58.00
1.39065	58.00
1.40732	58.00
1.42398	58.00
1.44065	58.00
1.45732	58.00
1.47398	58.00
1.49065	58.00
1.50732	58.00
1.52398	58.00
1.54065	58.00
1.55732	58.00
1.57398	58.00
1.59065	58.00
1.60732	58.00
1.62398	58.00
1.64065	58.00
1.65732	58.00
1.67398	58.01
1.69065	58.01
1.70732	58.00
1.72398	58.00
1.74065	58.00
1.75732	58.00
1.77398	58.00
1.79065	58.00
1.80732	58.00
1.82398	58.00
1.84065	58.00
1.85732	58.00
1.87398	58.00
1.89065	58.00
1.90732	58.00
1.92398	58.00
1.94065	58.00
1.95732	58.00
1.97398	58.00
1.99065	58.00
2.00732	58.00
2.02398	58.00
2.04065	58.00
2.05732	58.00
2.07398	58.00
2.09065	58.00
2.10732	58.00
2.12398	58.00
2.14065	58.00
2.15732	58.00
2.17398	58.00
2.19065	58.00
2.20732	58.00
2.22398	58.00
2.24065	58.00
2.25732	58.00
2.27398	58.00
2.29065	58.00
2.30732	58.00
2.32398	58.00
2.34065	58.00
2.35732	58.00
2.37398	58.00
2.39065	57.99
2.40732	58.00
2.42398	58.00
2.44065	58.00
2.45732	58.00
2.47398	58.00
2.49065	58.00
2.50732	58.00
2.52398	57.98
2.54065	58.00
2.55732	58.00
2.57398	58.00
2.59065	58.00
2.60732	58.00
2.62398	58.00
2.64065	58.00
2.65732	58.00
2.67398	58.00
2.69065	58.00
2.70732	58.00
2.72398	58.00
2.74065	58.00
2.75732	58.00
2.77398	58.00
2.79065	58.00
2.80732	58.00
2.82398	58.00
2.84065	58.00
2.85732	58.00
2.87398	58.00
2.89065	58.00
2.90732	58.00
2.92398	58.00
2.94065	58.00
2.95732	58.00
2.97398	58.00
2.99065	58.00
3.00732	58.00
3.02398	58.00
3.04065	58.00
3.05732	58.00
3.07398	58.00
3.09065	58.00
3.10732	58.00
3.12398	58.00
3.14065	58.00
3.15732	58.00
3.17398	58.00
3.19065	58.00
3.20732	58.00
3.22398	58.00
3.24065	58.00
3.25732	58.00
3.27398	58.00
3.29065	58.00
3.30732	58.00
3.32398	58.00
3.34065	58.00
3.35732	58.00
3.37398	58.00
3.39065	58.00
3.40732	58.00
3.42398	58.00
3.44065	58.00
3.45732	58.00
3.47398	58.00
3.49065	58.00
3.50732	58.00
3.52398	58.00
3.54065	58.00
3.55732	58.00
3.57398	58.00
3.59065	58.00
3.60732	58.00
3.62398	58.00
3.64065	58.00
3.65732	58.00
3.67398	58.00
3.69065	58.00
3.70732	58.00
3.72398	58.00
3.74065	58.00
3.75732	58.00
3.77398	58.00
3.79065	58.00
3.80732	58.00
3.82398	58.00
3.84065	58.00
3.85732	58.00
3.87398	58.00
3.89065	58.00
3.90732	58.00
3.92398	58.00
3.94065	58.00
3.95732	58.00
3.97398	58.00
3.99065	58.00

[Status Trace (Carrier Gas Flow)]
Interval(msec)	1000
# of Points	240
Start Time(min)	0.007
End Time(min)	3.991
Intensity Units	
Intensity Multiplier	1
R.Time (min)	Intensity
0.00732	34.52
0.02398	34.54
0.04065	34.55
0.05732	34.54
0.07398	34.50
0.09065	34.52
0.10732	34.52
0.12398	34.52
0.14065	34.52
0.15732	34.52
0.17398	34.52
0.19065	34.52
0.20732	34.52
0.22398	34.52
0.24065	34.52
0.25732	34.52
0.27398	34.52
0.29065	34.52
0.30732	34.51
0.32398	34.52
0.34065	34.52
0.35732	34.52
0.37398	34.52
0.39065	34.52
0.40732	34.51
0.42398	34.52
0.44065	34.52
0.45732	34.52
0.47398	34.52
0.49065	34.51
0.50732	34.52
0.52398	34.51
0.54065	34.52
0.55732	34.53
0.57398	34.52
0.59065	34.52
0.60732	34.52
0.62398	34.52
0.64065	34.52
0.65732	34.52
0.67398	34.52
0.69065	34.52
0.70732	34.51
0.72398	34.52
0.74065	34.52
0.75732	34.52
0.77398	34.52
0.79065	34.52
0.80732	34.52
0.82398	34.52
0.84065	34.52
0.85732	34.52
0.87398	34.52
0.89065	34.52
0.90732	34.52
0.92398	34.52
0.94065	34.52
0.95732	34.52
0.97398	34.52
0.99065	34.52
1.00732	34.52
1.02398	34.51
1.04065	34.52
1.05732	34.51
1.07398	34.52
1.09065	34.52
1.10732	34.52
1.12398	34.51
1.14065	34.52
1.15732	34.52
1.17398	34.52
1.19065	34.51
1.20732	34.53
1.22398	34.51
1.24065	34.52
1.25732	34.52
1.27398	34.53
1.29065	34.51
1.30732	34.51
1.32398	34.52
1.34065	34.51
1.35732	34.51
1.37398	34.51
1.39065	34.53
1.40732	34.52
1.42398	34.51
1.44065	34.53
1.45732	34.52
1.47398	34.52
1.49065	34.52
1.50732	34.52
1.52398	34.53
1.54065	34.52
1.55732	34.52
1.57398	34.52
1.59065	34.51
1.60732	34.52
1.62398	34.51
1.64065	34.52
1.65732	34.52
1.67398	34.52
1.69065	34.52
1.70732	34.52
1.72398	34.51
1.74065	34.52
1.75732	34.53
1.77398	34.52
1.79065	34.52
1.80732	34.52
1.82398	34.52
1.84065	34.51
1.85732	34.52
1.87398	34.52
1.89065	34.51
1.90732	34.52
1.92398	34.52
1.94065	34.52
1.95732	34.52
1.97398	34.52
1.99065	34.53
2.00732	34.52
2.02398	34.51
2.04065	34.52
2.05732	34.52
2.07398	34.51
2.09065	34.52
2.10732	34.52
2.12398	34.52
2.14065	34.52
2.15732	34.52
2.17398	34.52
2.19065	34.51
2.20732	34.52
2.22398	34.52
2.24065	34.52
2.25732	34.52
2.27398	34.52
2.29065	34.52
2.30732	34.52
2.32398	34.52
2.34065	34.52
2.35732	34.52
2.37398	34.52
2.39065	34.52
2.40732	34.52
2.42398	34.52
2.44065	34.52
2.45732	34.52
2.47398	34.52
2.49065	34.52
2.50732	34.33
2.52398	34.52
2.54065	34.52
2.55732	34.51
2.57398	34.51
2.59065	34.52
2.60732	34.52
2.62398	34.51
2.64065	34.52
2.65732	34.52
2.67398	34.52
2.69065	34.52
2.70732	34.52
2.72398	34.52
2.74065	34.52
2.75732	34.52
2.77398	34.52
2.79065	34.51
2.80732	34.51
2.82398	34.52
2.84065	34.52
2.85732	34.52
2.87398	34.52
2.89065	34.52
2.90732	34.52
2.92398	34.52
2.94065	34.52
2.95732	34.52
2.97398	34.52
2.99065	34.51
3.00732	34.52
3.02398	34.52
3.04065	34.52
3.05732	34.52
3.07398	34.52
3.09065	34.52
3.10732	34.52
3.12398	34.52
3.14065	34.52
3.15732	34.52
3.17398	34.52
3.19065	34.51
3.20732	34.52
3.22398	34.52
3.24065	34.52
3.25732	34.52
3.27398	34.51
3.29065	34.52
3.30732	34.52
3.32398	34.52
3.34065	34.52
3.35732	34.51
3.37398	34.52
3.39065	34.52
3.40732	34.52
3.42398	34.52
3.44065	34.52
3.45732	34.52
3.47398	34.52
3.49065	34.52
3.50732	34.51
3.52398	34.52
3.54065	34.52
3.55732	34.52
3.57398	34.52
3.59065	34.53
3.60732	34.52
3.62398	34.52
3.64065	34.53
3.65732	34.52
3.67398	34.52
3.69065	34.52
3.70732	34.52
3.72398	34.51
3.74065	34.52
3.75732	34.52
3.77398	34.52
3.79065	34.51
3.80732	34.53
3.82398	34.52
3.84065	34.52
3.85732	34.51
3.87398	34.51
3.89065	34.52
3.90732	34.52
3.92398	34.52
3.94065	34.52
3.95732	34.52
3.97398	34.52
3.99065	34.53

[Status Trace (Column Flow)]
Interval(msec)	1000
# of Points	240
Start Time(min)	0.007
End Time(min)	3.991
Intensity Units	
Intensity Multiplier	1
R.Time (min)	Intensity
0.00732	5.50
0.02398	5.20
0.04065	5.38
0.05732	5.63
0.07398	5.68
0.09065	5.51
0.10732	5.50
0.12398	5.50
0.14065	5.50
0.15732	5.50
0.17398	5.50
0.19065	5.50
0.20732	5.50
0.22398	5.50
0.24065	5.50
0.25732	5.50
0.27398	5.50
0.29065	5.50
0.30732	5.50
0.32398	5.50
0.34065	5.50
0.35732	5.50
0.37398	5.50
0.39065	5.50
0.40732	5.50
0.42398	5.50
0.44065	5.50
0.45732	5.50
0.47398	5.50
0.49065	5.50
0.50732	5.50
0.52398	5.50
0.54065	5.50
0.55732	5.50
0.57398	5.50
0.59065	5.50
0.60732	5.50
0.62398	5.50
0.64065	5.50
0.65732	5.50
0.67398	5.50
0.69065	5.50
0.70732	5.50
0.72398	5.50
0.74065	5.50
0.75732	5.50
0.77398	5.50
0.79065	5.50
0.80732	5.50
0.82398	5.50
0.84065	5.50
0.85732	5.50
0.87398	5.50
0.89065	5.50
0.90732	5.50
0.92398	5.50
0.94065	5.50
0.95732	5.50
0.97398	5.50
0.99065	5.50
1.00732	5.50
1.02398	5.50
1.04065	5.50
1.05732	5.50
1.07398	5.50
1.09065	5.50
1.10732	5.50
1.12398	5.50
1.14065	5.50
1.15732	5.50
1.17398	5.50
1.19065	5.50
1.20732	5.50
1.22398	5.50
1.24065	5.50
1.25732	5.50
1.27398	5.50
1.29065	5.50
1.30732	5.50
1.32398	5.50
1.34065	5.50
1.35732	5.50
1.37398	5.50
1.39065	5.50
1.40732	5.50
1.42398	5.50
1.44065	5.50
1.45732	5.50
1.47398	5.50
1.49065	5.50
1.50732	5.50
1.52398	5.50
1.54065	5.50
1.55732	5.50
1.57398	5.50
1.59065	5.50
1.60732	5.50
1.62398	5.50
1.64065	5.49
1.65732	5.48
1.67398	5.47
1.69065	5.46
1.70732	5.45
1.72398	5.44
1.74065	5.43
1.75732	5.42
1.77398	5.41
1.79065	5.40
1.80732	5.39
1.82398	5.38
1.84065	5.37
1.85732	5.36
1.87398	5.35
1.89065	5.34
1.90732	5.33
1.92398	5.32
1.94065	5.31
1.95732	5.30
1.97398	5.29
1.99065	5.28
2.00732	5.27
2.02398	5.26
2.04065	5.25
2.05732	5.25
2.07398	5.24
2.09065	5.23
2.10732	5.22
2.12398	5.21
2.14065	5.20
2.15732	5.19
2.17398	5.18
2.19065	5.17
2.20732	5.16
2.22398	5.15
2.24065	5.14
2.25732	5.13
2.27398	5.12
2.29065	5.11
2.30732	5.10
2.32398	5.09
2.34065	5.08
2.35732	5.08
2.37398	5.07
2.39065	5.07
2.40732	5.07
2.42398	5.07
2.44065	5.07
2.45732	5.07
2.47398	5.07
2.49065	5.07
2.50732	5.07
2.52398	5.07
2.54065	5.07
2.55732	5.07
2.57398	5.07
2.59065	5.07
2.60732	5.07
2.62398	5.07
2.64065	5.07
2.65732	5.07
2.67398	5.06
2.69065	5.06
2.70732	5.06
2.72398	5.06
2.74065	5.06
2.75732	5.06
2.77398	5.06
2.79065	5.07
2.80732	5.06
2.82398	5.06
2.84065	5.06
2.85732	5.06
2.87398	5.06
2.89065	5.06
2.90732	5.06
2.92398	5.06
2.94065	5.06
2.95732	5.06
2.97398	5.06
2.99065	5.06
3.00732	5.06
3.02398	5.06
3.04065	5.06
3.05732	5.06
3.07398	5.06
3.09065	5.06
3.10732	5.06
3.12398	5.06
3.14065	5.06
3.15732	5.06
3.17398	5.06
3.19065	5.06
3.20732	5.06
3.22398	5.06
3.24065	5.06
3.25732	5.06
3.27398	5.06
3.29065	5.06
3.30732	5.06
3.32398	5.06
3.34065	5.06
3.35732	5.06
3.37398	5.06
3.39065	5.06
3.40732	5.06
3.42398	5.06
3.44065	5.06
3.45732	5.06
3.47398	5.06
3.49065	5.06
3.50732	5.06
3.52398	5.06
3.54065	5.06
3.55732	5.06
3.57398	5.06
3.59065	5.06
3.60732	5.06
3.62398	5.06
3.64065	5.06
3.65732	5.06
3.67398	5.06
3.69065	5.06
3.70732	5.06
3.72398	5.06
3.74065	5.06
3.75732	5.06
3.77398	5.06
3.79065	5.06
3.80732	5.06
3.82398	5.06
3.84065	5.06
3.85732	5.06
3.87398	5.06
3.89065	5.06
3.90732	5.06
3.92398	5.06
3.94065	5.06
3.95732	5.06
3.97398	5.06
3.99065	5.06

[Status Trace (Linear Velocity)]
Interval(msec)	1000
# of Points	240
Start Time(min)	0.007
End Time(min)	3.991
Intensity Units	
Intensity Multiplier	1
R.Time (min)	Intensity
0.00732	39.01
0.02398	37.32
0.04065	38.31
0.05732	39.76
0.07398	40.00
0.09065	39.08
0.10732	39.00
0.12398	39.02
0.14065	39.01
0.15732	39.01
0.17398	39.01
0.19065	39.01
0.20732	39.01
0.22398	39.01
0.24065	39.01
0.25732	39.01
0.27398	39.01
0.29065	39.01
0.30732	39.01
0.32398	39.01
0.34065	39.01
0.35732	39.01
0.37398	39.01
0.39065	39.01
0.40732	39.01
0.42398	39.01
0.44065	39.01
0.45732	39.01
0.47398	39.01
0.49065	39.01
0.50732	39.01
0.52398	39.01
0.54065	39.01
0.55732	39.01
0.57398	39.01
0.59065	39.01
0.60732	39.01
0.62398	39.01
0.64065	39.01
0.65732	39.01
0.67398	39.01
0.69065	39.01
0.70732	39.01
0.72398	39.01
0.74065	39.01
0.75732	39.01
0.77398	39.01
0.79065	39.02
0.80732	39.02
0.82398	39.02
0.84065	39.02
0.85732	39.02
0.87398	39.02
0.89065	39.01
0.90732	39.01
0.92398	39.01
0.94065	39.01
0.95732	39.01
0.97398	39.01
0.99065	39.01
1.00732	39.01
1.02398	39.01
1.04065	39.01
1.05732	39.01
1.07398	39.01
1.09065	39.01
1.10732	39.01
1.12398	39.01
1.14065	39.01
1.15732	39.01
1.17398	39.01
1.19065	39.01
1.20732	39.02
1.22398	39.02
1.24065	39.02
1.25732	39.02
1.27398	39.01
1.29065	39.01
1.30732	39.01
1.32398	39.01
1.34065	39.01
1.35732	39.01
1.37398	39.01
1.39065	39.01
1.40732	39.01
1.42398	39.01
1.44065	39.01
1.45732	39.01
1.47398	39.01
1.49065	39.01
1.50732	39.01
1.52398	39.01
1.54065	39.01
1.55732	39.01
1.57398	39.01
1.59065	39.01
1.60732	39.01
1.62398	39.00
1.64065	38.98
1.65732	38.96
1.67398	38.93
1.69065	38.89
1.70732	38.86
1.72398	38.82
1.74065	38.79
1.75732	38.76
1.77398	38.73
1.79065	38.70
1.80732	38.67
1.82398	38.63
1.84065	38.60
1.85732	38.57
1.87398	38.54
1.89065	38.51
1.90732	38.48
1.92398	38.45
1.94065	38.42
1.95732	38.39
1.97398	38.36
1.99065	38.33
2.00732	38.30
2.02398	38.27
2.04065	38.24
2.05732	38.21
2.07398	38.18
2.09065	38.15
2.10732	38.13
2.12398	38.10
2.14065	38.06
2.15732	38.03
2.17398	38.00
2.19065	37.97
2.20732	37.94
2.22398	37.91
2.24065	37.89
2.25732	37.86
2.27398	37.83
2.29065	37.79
2.30732	37.76
2.32398	37.74
2.34065	37.71
2.35732	37.68
2.37398	37.66
2.39065	37.65
2.40732	37.65
2.42398	37.65
2.44065	37.65
2.45732	37.65
2.47398	37.65
2.49065	37.65
2.50732	37.65
2.52398	37.64
2.54065	37.65
2.55732	37.65
2.57398	37.65
2.59065	37.65
2.60732	37.64
2.62398	37.64
2.64065	37.64
2.65732	37.64
2.67398	37.64
2.69065	37.64
2.70732	37.64
2.72398	37.64
2.74065	37.64
2.75732	37.64
2.77398	37.64
2.79065	37.64
2.80732	37.64
2.82398	37.64
2.84065	37.64
2.85732	37.64
2.87398	37.64
2.89065	37.64
2.90732	37.64
2.92398	37.64
2.94065	37.64
2.95732	37.63
2.97398	37.63
2.99065	37.63
3.00732	37.63
3.02398	37.63
3.04065	37.63
3.05732	37.63
3.07398	37.63
3.09065	37.63
3.10732	37.63
3.12398	37.63
3.14065	37.63
3.15732	37.63
3.17398	37.63
3.19065	37.62
3.20732	37.62
3.22398	37.62
3.24065	37.62
3.25732	37.62
3.27398	37.62
3.29065	37.62
3.30732	37.62
3.32398	37.62
3.34065	37.62
3.35732	37.62
3.37398	37.62
3.39065	37.62
3.40732	37.62
3.42398	37.62
3.44065	37.62
3.45732	37.62
3.47398	37.62
3.49065	37.62
3.50732	37.62
3.52398	37.62
3.54065	37.62
3.55732	37.62
3.57398	37.62
3.59065	37.62
3.60732	37.62
3.62398	37.62
3.64065	37.62
3.65732	37.62
3.67398	37.62
3.69065	37.62
3.70732	37.62
3.72398	37.62
3.74065	37.62
3.75732	37.62
3.77398	37.62
3.79065	37.62
3.80732	37.62
3.82398	37.62
3.84065	37.62
3.85732	37.62
3.87398	37.62
3.89065	37.62
3.90732	37.62
3.92398	37.62
3.94065	37.62
3.95732	37.62
3.97398	37.62
3.99065	37.62

