[Header]
Application Name	LabSolutions
Version	5.110
Data File Name	C:\Users\User\Desktop\Junior\UIC Prairie Sampling\6.15.23\06152023_046.gcd
Output Date	6/26/2023
Output Time	12:05:10 PM

[File Information]
Type	Data File
Generated	6/23/2023 4:22:14 PM
Generated by	System Administrator
Modified	6/23/2023 4:29:42 PM
Modified by	System Administrator

[Sample Information]
Operator Name	System Administrator
Acquired	6/23/2023 4:25:41 PM
Sample Type	0:Unknown
Level	0
Sample Name	046
Sample ID	046
ISTD Amount1	1
ISTD Amount2	1
ISTD Amount3	1
ISTD Amount4	1
ISTD Amount5	1
ISTD Amount6	1
ISTD Amount7	1
ISTD Amount8	1
ISTD Amount9	1
ISTD Amount10	1
ISTD Amount11	1
ISTD Amount12	1
ISTD Amount13	1
ISTD Amount14	1
ISTD Amount15	1
ISTD Amount16	1
ISTD Amount17	1
ISTD Amount18	1
ISTD Amount19	1
ISTD Amount20	1
ISTD Amount21	1
ISTD Amount22	1
ISTD Amount23	1
ISTD Amount24	1
ISTD Amount25	1
ISTD Amount26	1
ISTD Amount27	1
ISTD Amount28	1
ISTD Amount29	1
ISTD Amount30	1
ISTD Amount31	1
ISTD Amount32	1
Sample Amount	1
Dilution Factor	1
Vial#	45
Injection Volume	1
Injection Count	1
Bar Code	

[Original Files]
Data File	C:\Users\User\Desktop\Junior\UIC Prairie Sampling\6.15.23\06152023_046.gcd
Method File	C:\LabSolutions\Data\GHG_4min_2022\ghg3_togas_w_acet_4 min_new_int.gcm
Batch File	C:\LabSolutions\Data\AutoSamplerTesting\06152023.gcb
Report Format File	c:\LabSolutions\System\DEFAULT.lsr

[File Description]


[Configuration]
Instrument Name	C0B7VH3-Instrument1
Instrument #	1
Line #	1
# of Detectors	3
Detector ID	DET#1	DET#2	DET#3
Detector Name	FID	PTCD	ECD
# of Channels	1	1	1

[Peak Table(Ch1)]
# of Peaks	3
Peak#	R.Time	I.Time	F.Time	Area	Height	A/H	Conc.	Mark	ID#	Name	k'	Plate #	Plate Ht.	Tailing	Resolution	Sep.Factor	Area Ratio	Height Ratio	Conc. %	Norm Conc.
1	1.472	1.435	1.527	3207	1578	2.033	0.000	   	1	CO	0.000	9582	15.654	1.382	0.000	0.000	0	0	0.000	0.000
2	1.564	1.527	1.611	4265	2193	1.945	20.795	 V 	2	CH4	0.062	11737	12.780	1.103	1.555	0.000	0	0	6.670	6.670
3	1.989	1.941	2.546	1509918	722137	2.091	290.989	   	3	CO2	0.351	17602	8.522	1.311	7.227	5.640	0	0	93.330	93.330

[Peak Table(Ch2)]
# of Peaks	0

[Peak Table(Ch3)]
# of Peaks	5
Peak#	R.Time	I.Time	F.Time	Area	Height	A/H	Conc.	Mark	ID#	Name	k'	Plate #	Plate Ht.	Tailing	Resolution	Sep.Factor	Area Ratio	Height Ratio	Conc. %	Norm Conc.
1	2.147	2.037	2.275	135	18	7.486	0.000	   			0.000	1575	95.241	1.001	0.000	0.000	0	0	0.000	0.000
2	2.458	2.436	2.495	948	407	2.328	0.000	   			0.145	12080	12.417	0.000	2.038	0.000	0	0	0.000	0.000
3	2.583	2.495	2.664	6403	796	8.041	0.000	 V 			0.203	1489	100.760	0.000	0.698	1.400	0	0	0.000	0.000
4	2.737	2.664	2.829	5599	622	8.996	0.083	 V 	1	N2O	0.275	121	1239.156	0.000	0.244	1.353	0	0	13.547	13.547
5	2.887	2.829	3.925	35735	5179	6.899	0.529	 V 	1	N2O	0.345	11768	12.747	0.000	0.273	1.255	0	0	86.453	86.453

[Compound Results(Ch1)]
# of IDs	6
ID#	Name	R.Time	Area	Height	Conc.	Curve	3rd	2nd	1st	Constant	Area Ratio	Height Ratio	Conc. %	Norm Conc.
1	CO	1.472	3207	1578	0.000	Linear	0.000000e+00	0.000000e+00	0.000000e+00	0.000000e+00	0	0	0.000	0.000
2	CH4	1.564	4265	2193	20.795	Linear	0.000000e+00	0.000000e+00	2.051179e+002	0.000000e+00	0	0	6.670	6.670
3	CO2	1.989	1509918	722137	290.989	Linear	0.000000e+00	0.000000e+00	5.188919e+003	0.000000e+00	0	0	93.330	93.330
4	Ethylene	0.000	0	0	0.000	Linear	0.000000e+00	0.000000e+00	0.000000e+00	0.000000e+00	0	0	0.000	0.000
5	Acetylene	0.000	0	0	0.000	Linear	0.000000e+00	0.000000e+00	0.000000e+00	0.000000e+00	0	0	0.000	0.000
6	Ethane	0.000	0	0	0.000	Linear	0.000000e+00	0.000000e+00	0.000000e+00	0.000000e+00	0	0	0.000	0.000

[Compound Results(Ch2)]
# of IDs	5
ID#	Name	R.Time	Area	Height	Conc.	Curve	3rd	2nd	1st	Constant	Area Ratio	Height Ratio	Conc. %	Norm Conc.
1	Hydrogen	0.000	0	0	0.000	Linear	0.000000e+00	0.000000e+00	0.000000e+00	0.000000e+00	0	0	0.000	0.000
2	Oxygen	0.000	0	0	0.000	Linear	0.000000e+00	0.000000e+00	0.000000e+00	0.000000e+00	0	0	0.000	0.000
3	Nitrogen	0.000	0	0	0.000	Linear	0.000000e+00	0.000000e+00	0.000000e+00	0.000000e+00	0	0	0.000	0.000
4	Methane	0.000	0	0	0.000	Linear	0.000000e+00	0.000000e+00	0.000000e+00	0.000000e+00	0	0	0.000	0.000
5	Carbon Monoxide	0.000	0	0	0.000	Linear	0.000000e+00	0.000000e+00	0.000000e+00	0.000000e+00	0	0	0.000	0.000

[Compound Results(Ch3)]
# of IDs	2
ID#	Name	R.Time	Area	Height	Conc.	Curve	3rd	2nd	1st	Constant	Area Ratio	Height Ratio	Conc. %	Norm Conc.
1	N2O	2.887	41334	5802	0.611	Linear	0.000000e+00	0.000000e+00	6.759880e+004	0.000000e+00	0	0	100.000	100.000
2	SF6	0.000	0	0	0.000	Linear	0.000000e+00	0.000000e+00	0.000000e+00	0.000000e+00	0	0	0.000	0.000

[Group Results(Ch1)]
# of Groups	0

[Group Results(Ch2)]
# of Groups	0

[Group Results(Ch3)]
# of Groups	0

[Chromatogram (Ch1)]
Interval(msec)	220
# of Points	1091
Start Time(min)	0.002
End Time(min)	3.998
R.Time (min)	Intensity
0.00167	-30
0.00533	-36
0.00900	-39
0.01267	-41
0.01633	-42
0.02000	-43
0.02367	-42
0.02733	-37
0.03100	-30
0.03467	-23
0.03833	-16
0.04200	-11
0.04567	-9
0.04933	-11
0.05300	-14
0.05667	-20
0.06033	-23
0.06400	-24
0.06767	-24
0.07133	-24
0.07500	-23
0.07867	-20
0.08233	-16
0.08600	-11
0.08967	-9
0.09333	-8
0.09700	-7
0.10067	-3
0.10433	3
0.10800	4
0.11167	-1
0.11533	-8
0.11900	-18
0.12267	-29
0.12633	-41
0.13000	-53
0.13367	-59
0.13733	-61
0.14100	-61
0.14467	-61
0.14833	-61
0.15200	-58
0.15567	-55
0.15933	-54
0.16300	-50
0.16667	-45
0.17033	-40
0.17400	-39
0.17767	-40
0.18133	-40
0.18500	-38
0.18867	-32
0.19233	-25
0.19600	-21
0.19967	-19
0.20333	-16
0.20700	-15
0.21067	-16
0.21433	-18
0.21800	-20
0.22167	-20
0.22533	-18
0.22900	-18
0.23267	-20
0.23633	-26
0.24000	-35
0.24367	-44
0.24733	-50
0.25100	-48
0.25467	-38
0.25833	-31
0.26200	-30
0.26567	-33
0.26933	-37
0.27300	-42
0.27667	-46
0.28033	-47
0.28400	-46
0.28767	-44
0.29133	-43
0.29500	-42
0.29867	-39
0.30233	-32
0.30600	-21
0.30967	-7
0.31333	4
0.31700	7
0.32067	5
0.32433	-3
0.32800	-15
0.33167	-27
0.33533	-38
0.33900	-49
0.34267	-57
0.34633	-59
0.35000	-55
0.35367	-46
0.35733	-36
0.36100	-26
0.36467	-20
0.36833	-19
0.37200	-22
0.37567	-27
0.37933	-33
0.38300	-40
0.38667	-45
0.39033	-46
0.39400	-46
0.39767	-46
0.40133	-47
0.40500	-50
0.40867	-54
0.41233	-57
0.41600	-58
0.41967	-57
0.42333	-53
0.42700	-49
0.43067	-44
0.43433	-37
0.43800	-34
0.44167	-34
0.44533	-35
0.44900	-33
0.45267	-33
0.45633	-34
0.46000	-34
0.46367	-31
0.46733	-28
0.47100	-25
0.47467	-23
0.47833	-24
0.48200	-25
0.48567	-25
0.48933	-25
0.49300	-24
0.49667	-19
0.50033	-12
0.50400	-13
0.50767	-22
0.51133	-32
0.51500	-39
0.51867	-43
0.52233	-49
0.52600	-60
0.52967	-70
0.53333	-78
0.53700	-84
0.54067	-85
0.54433	-79
0.54800	-72
0.55167	-61
0.55533	-47
0.55900	-34
0.56267	-26
0.56633	-23
0.57000	-23
0.57367	-26
0.57733	-29
0.58100	-35
0.58467	-49
0.58833	-69
0.59200	-84
0.59567	-92
0.59933	-98
0.60300	-103
0.60667	-104
0.61033	-99
0.61400	-95
0.61767	-91
0.62133	-85
0.62500	-80
0.62867	-76
0.63233	-75
0.63600	-75
0.63967	-71
0.64333	-66
0.64700	-63
0.65067	-59
0.65433	-54
0.65800	-50
0.66167	-48
0.66533	-46
0.66900	-44
0.67267	-41
0.67633	-35
0.68000	-28
0.68367	-25
0.68733	-20
0.69100	-16
0.69467	-17
0.69833	-25
0.70200	-36
0.70567	-42
0.70933	-45
0.71300	-45
0.71667	-47
0.72033	-48
0.72400	-47
0.72767	-47
0.73133	-47
0.73500	-43
0.73867	-40
0.74233	-38
0.74600	-40
0.74967	-42
0.75333	-44
0.75700	-45
0.76067	-45
0.76433	-42
0.76800	-40
0.77167	-38
0.77533	-38
0.77900	-41
0.78267	-44
0.78633	-49
0.79000	-55
0.79367	-56
0.79733	-53
0.80100	-48
0.80467	-46
0.80833	-46
0.81200	-47
0.81567	-48
0.81933	-50
0.82300	-56
0.82667	-62
0.83033	-66
0.83400	-70
0.83767	-73
0.84133	-74
0.84500	-68
0.84867	-59
0.85233	-52
0.85600	-46
0.85967	-42
0.86333	-42
0.86700	-46
0.87067	-49
0.87433	-51
0.87800	-52
0.88167	-56
0.88533	-59
0.88900	-59
0.89267	-59
0.89633	-56
0.90000	-48
0.90367	-40
0.90733	-41
0.91100	-48
0.91467	-57
0.91833	-67
0.92200	-72
0.92567	-71
0.92933	-68
0.93300	-68
0.93667	-71
0.94033	-73
0.94400	-72
0.94767	-70
0.95133	-67
0.95500	-63
0.95867	-57
0.96233	-50
0.96600	-46
0.96967	-44
0.97333	-46
0.97700	-53
0.98067	-57
0.98433	-58
0.98800	-60
0.99167	-65
0.99533	-69
0.99900	-71
1.00267	-71
1.00633	-70
1.01000	-65
1.01367	-61
1.01733	-60
1.02100	-63
1.02467	-69
1.02833	-72
1.03200	-77
1.03567	-83
1.03933	-88
1.04300	-89
1.04667	-85
1.05033	-78
1.05400	-71
1.05767	-65
1.06133	-64
1.06500	-66
1.06867	-69
1.07233	-71
1.07600	-68
1.07967	-61
1.08333	-55
1.08700	-49
1.09067	-46
1.09433	-46
1.09800	-52
1.10167	-61
1.10533	-69
1.10900	-73
1.11267	-75
1.11633	-76
1.12000	-80
1.12367	-84
1.12733	-85
1.13100	-90
1.13467	-100
1.13833	-106
1.14200	-107
1.14567	-102
1.14933	-98
1.15300	-98
1.15667	-97
1.16033	-93
1.16400	-87
1.16767	-84
1.17133	-84
1.17500	-84
1.17867	-84
1.18233	-85
1.18600	-89
1.18967	-90
1.19333	-88
1.19700	-84
1.20067	-81
1.20433	-79
1.20800	-77
1.21167	-74
1.21533	-73
1.21900	-75
1.22267	-77
1.22633	-80
1.23000	-83
1.23367	-85
1.23733	-84
1.24100	-84
1.24467	-85
1.24833	-83
1.25200	-79
1.25567	-75
1.25933	-69
1.26300	-62
1.26667	-57
1.27033	-59
1.27400	-65
1.27767	-72
1.28133	-77
1.28500	-83
1.28867	-88
1.29233	-93
1.29600	-97
1.29967	-95
1.30333	-91
1.30700	-84
1.31067	-74
1.31433	-66
1.31800	-63
1.32167	-62
1.32533	-55
1.32900	-48
1.33267	-53
1.33633	-68
1.34000	-90
1.34367	-111
1.34733	-124
1.35100	-129
1.35467	-130
1.35833	-127
1.36200	-119
1.36567	-110
1.36933	-102
1.37300	-100
1.37667	-99
1.38033	-97
1.38400	-98
1.38767	-99
1.39133	-100
1.39500	-98
1.39867	-95
1.40233	-93
1.40600	-93
1.40967	-93
1.41333	-90
1.41700	-84
1.42067	-77
1.42433	-76
1.42800	-78
1.43167	-79
1.43533	-72
1.43900	-59
1.44267	-54
1.44633	-30
1.45000	101
1.45367	357
1.45733	668
1.46100	967
1.46467	1222
1.46833	1410
1.47200	1503
1.47567	1480
1.47933	1344
1.48300	1130
1.48667	889
1.49033	663
1.49400	473
1.49767	323
1.50133	209
1.50500	128
1.50867	68
1.51233	26
1.51600	-2
1.51967	-22
1.52333	-35
1.52700	-39
1.53067	-32
1.53433	9
1.53800	141
1.54167	416
1.54533	818
1.54900	1255
1.55267	1642
1.55633	1932
1.56000	2100
1.56367	2113
1.56733	1953
1.57100	1656
1.57467	1294
1.57833	939
1.58200	638
1.58567	410
1.58933	247
1.59300	134
1.59667	53
1.60033	-4
1.60400	-41
1.60767	-66
1.61133	-83
1.61500	-91
1.61867	-93
1.62233	-92
1.62600	-90
1.62967	-89
1.63333	-88
1.63700	-88
1.64067	-88
1.64433	-91
1.64800	-95
1.65167	-103
1.65533	-113
1.65900	-118
1.66267	-120
1.66633	-121
1.67000	-119
1.67367	-115
1.67733	-112
1.68100	-111
1.68467	-114
1.68833	-114
1.69200	-112
1.69567	-111
1.69933	-113
1.70300	-117
1.70667	-122
1.71033	-131
1.71400	-140
1.71767	-143
1.72133	-144
1.72500	-143
1.72867	-138
1.73233	-129
1.73600	-120
1.73967	-114
1.74333	-107
1.74700	-102
1.75067	-101
1.75433	-104
1.75800	-109
1.76167	-115
1.76533	-122
1.76900	-127
1.77267	-129
1.77633	-126
1.78000	-120
1.78367	-113
1.78733	-106
1.79100	-101
1.79467	-99
1.79833	-97
1.80200	-95
1.80567	-94
1.80933	-94
1.81300	-98
1.81667	-107
1.82033	-114
1.82400	-116
1.82767	-115
1.83133	-112
1.83500	-111
1.83867	-113
1.84233	-114
1.84600	-112
1.84967	-107
1.85333	-105
1.85700	-105
1.86067	-107
1.86433	-108
1.86800	-106
1.87167	-106
1.87533	-108
1.87900	-110
1.88267	-112
1.88633	-114
1.89000	-114
1.89367	-109
1.89733	-98
1.90100	-86
1.90467	-79
1.90833	-78
1.91200	-82
1.91567	-88
1.91933	-93
1.92300	-100
1.92667	-112
1.93033	-127
1.93400	-137
1.93767	-139
1.94133	-135
1.94500	-121
1.94867	-26
1.95233	567
1.95600	3431
1.95967	13749
1.96333	41908
1.96700	101261
1.97067	199459
1.97433	329078
1.97800	469066
1.98167	593988
1.98533	682737
1.98900	722033
1.99267	707426
1.99633	644886
2.00000	549783
2.00367	441538
2.00733	337362
2.01100	248078
2.01467	177655
2.01833	125313
2.02200	87980
2.02567	62068
2.02933	44378
2.03300	32392
2.03667	24266
2.04033	18721
2.04400	14890
2.04767	12195
2.05133	10256
2.05500	8825
2.05867	7740
2.06233	6898
2.06600	6226
2.06967	5678
2.07333	5225
2.07700	4845
2.08067	4516
2.08433	4227
2.08800	3973
2.09167	3745
2.09533	3540
2.09900	3355
2.10267	3184
2.10633	3024
2.11000	2879
2.11367	2746
2.11733	2624
2.12100	2514
2.12467	2415
2.12833	2324
2.13200	2239
2.13567	2159
2.13933	2088
2.14300	2021
2.14667	1955
2.15033	1890
2.15400	1826
2.15767	1764
2.16133	1704
2.16500	1649
2.16867	1602
2.17233	1561
2.17600	1522
2.17967	1482
2.18333	1441
2.18700	1403
2.19067	1364
2.19433	1322
2.19800	1282
2.20167	1249
2.20533	1219
2.20900	1193
2.21267	1165
2.21633	1135
2.22000	1105
2.22367	1073
2.22733	1041
2.23100	1014
2.23467	990
2.23833	968
2.24200	948
2.24567	933
2.24933	921
2.25300	908
2.25667	889
2.26033	865
2.26400	839
2.26767	817
2.27133	796
2.27500	777
2.27867	761
2.28233	749
2.28600	739
2.28967	727
2.29333	715
2.29700	705
2.30067	698
2.30433	693
2.30800	689
2.31167	678
2.31533	660
2.31900	640
2.32267	616
2.32633	591
2.33000	569
2.33367	552
2.33733	536
2.34100	523
2.34467	515
2.34833	508
2.35200	503
2.35567	499
2.35933	493
2.36300	487
2.36667	479
2.37033	470
2.37400	462
2.37767	459
2.38133	461
2.38500	462
2.38867	456
2.39233	449
2.39600	442
2.39967	434
2.40333	425
2.40700	417
2.41067	412
2.41433	410
2.41800	408
2.42167	408
2.42533	407
2.42900	405
2.43267	400
2.43633	392
2.44000	383
2.44367	375
2.44733	370
2.45100	364
2.45467	357
2.45833	354
2.46200	353
2.46567	352
2.46933	353
2.47300	353
2.47667	349
2.48033	342
2.48400	332
2.48767	325
2.49133	320
2.49500	317
2.49867	313
2.50233	308
2.50600	304
2.50967	303
2.51333	301
2.51700	297
2.52067	295
2.52433	292
2.52800	287
2.53167	279
2.53533	269
2.53900	261
2.54267	255
2.54633	251
2.55000	250
2.55367	253
2.55733	259
2.56100	264
2.56467	267
2.56833	265
2.57200	256
2.57567	244
2.57933	236
2.58300	229
2.58667	223
2.59033	218
2.59400	214
2.59767	210
2.60133	207
2.60500	202
2.60867	196
2.61233	188
2.61600	178
2.61967	173
2.62333	171
2.62700	171
2.63067	170
2.63433	174
2.63800	178
2.64167	181
2.64533	185
2.64900	185
2.65267	181
2.65633	178
2.66000	177
2.66367	176
2.66733	175
2.67100	171
2.67467	171
2.67833	175
2.68200	179
2.68567	181
2.68933	179
2.69300	175
2.69667	171
2.70033	168
2.70400	165
2.70767	165
2.71133	167
2.71500	170
2.71867	169
2.72233	164
2.72600	162
2.72967	159
2.73333	155
2.73700	151
2.74067	150
2.74433	150
2.74800	149
2.75167	153
2.75533	157
2.75900	160
2.76267	155
2.76633	145
2.77000	135
2.77367	127
2.77733	127
2.78100	132
2.78467	139
2.78833	140
2.79200	133
2.79567	123
2.79933	112
2.80300	102
2.80667	96
2.81033	96
2.81400	98
2.81767	100
2.82133	102
2.82500	105
2.82867	111
2.83233	120
2.83600	130
2.83967	138
2.84333	141
2.84700	136
2.85067	131
2.85433	125
2.85800	121
2.86167	118
2.86533	117
2.86900	116
2.87267	110
2.87633	103
2.88000	101
2.88367	107
2.88733	114
2.89100	117
2.89467	116
2.89833	114
2.90200	112
2.90567	110
2.90933	106
2.91300	104
2.91667	105
2.92033	107
2.92400	109
2.92767	108
2.93133	106
2.93500	103
2.93867	103
2.94233	107
2.94600	113
2.94967	119
2.95333	121
2.95700	120
2.96067	119
2.96433	119
2.96800	117
2.97167	114
2.97533	110
2.97900	105
2.98267	107
2.98633	116
2.99000	124
2.99367	126
2.99733	121
3.00100	108
3.00467	97
3.00833	90
3.01200	88
3.01567	87
3.01933	87
3.02300	83
3.02667	77
3.03033	73
3.03400	76
3.03767	82
3.04133	87
3.04500	85
3.04867	81
3.05233	77
3.05600	76
3.05967	80
3.06333	84
3.06700	89
3.07067	93
3.07433	96
3.07800	99
3.08167	99
3.08533	96
3.08900	94
3.09267	93
3.09633	90
3.10000	85
3.10367	84
3.10733	85
3.11100	87
3.11467	86
3.11833	83
3.12200	82
3.12567	83
3.12933	81
3.13300	79
3.13667	79
3.14033	82
3.14400	86
3.14767	83
3.15133	76
3.15500	72
3.15867	72
3.16233	75
3.16600	76
3.16967	75
3.17333	74
3.17700	77
3.18067	81
3.18433	86
3.18800	89
3.19167	89
3.19533	86
3.19900	82
3.20267	77
3.20633	69
3.21000	65
3.21367	68
3.21733	73
3.22100	73
3.22467	70
3.22833	69
3.23200	64
3.23567	58
3.23933	55
3.24300	59
3.24667	65
3.25033	69
3.25400	67
3.25767	61
3.26133	51
3.26500	42
3.26867	36
3.27233	33
3.27600	34
3.27967	37
3.28333	40
3.28700	41
3.29067	44
3.29433	49
3.29800	55
3.30167	61
3.30533	64
3.30900	67
3.31267	69
3.31633	71
3.32000	71
3.32367	67
3.32733	60
3.33100	53
3.33467	49
3.33833	48
3.34200	52
3.34567	59
3.34933	69
3.35300	80
3.35667	82
3.36033	75
3.36400	67
3.36767	60
3.37133	55
3.37500	50
3.37867	47
3.38233	48
3.38600	51
3.38967	51
3.39333	51
3.39700	54
3.40067	54
3.40433	49
3.40800	44
3.41167	41
3.41533	38
3.41900	36
3.42267	34
3.42633	33
3.43000	35
3.43367	37
3.43733	37
3.44100	36
3.44467	37
3.44833	41
3.45200	45
3.45567	49
3.45933	55
3.46300	63
3.46667	66
3.47033	64
3.47400	57
3.47767	51
3.48133	49
3.48500	53
3.48867	58
3.49233	58
3.49600	53
3.49967	48
3.50333	43
3.50700	42
3.51067	39
3.51433	31
3.51800	27
3.52167	24
3.52533	24
3.52900	27
3.53267	28
3.53633	26
3.54000	27
3.54367	30
3.54733	32
3.55100	29
3.55467	25
3.55833	23
3.56200	21
3.56567	20
3.56933	20
3.57300	17
3.57667	16
3.58033	18
3.58400	26
3.58767	36
3.59133	42
3.59500	43
3.59867	40
3.60233	37
3.60600	32
3.60967	24
3.61333	15
3.61700	11
3.62067	12
3.62433	14
3.62800	15
3.63167	11
3.63533	8
3.63900	11
3.64267	15
3.64633	16
3.65000	17
3.65367	19
3.65733	21
3.66100	23
3.66467	23
3.66833	20
3.67200	15
3.67567	11
3.67933	13
3.68300	18
3.68667	24
3.69033	28
3.69400	33
3.69767	34
3.70133	31
3.70500	26
3.70867	20
3.71233	16
3.71600	16
3.71967	19
3.72333	21
3.72700	20
3.73067	15
3.73433	11
3.73800	10
3.74167	14
3.74533	17
3.74900	16
3.75267	12
3.75633	8
3.76000	5
3.76367	5
3.76733	9
3.77100	13
3.77467	15
3.77833	16
3.78200	18
3.78567	20
3.78933	21
3.79300	20
3.79667	18
3.80033	14
3.80400	9
3.80767	6
3.81133	9
3.81500	17
3.81867	23
3.82233	24
3.82600	18
3.82967	11
3.83333	10
3.83700	8
3.84067	1
3.84433	-5
3.84800	-7
3.85167	-3
3.85533	6
3.85900	14
3.86267	11
3.86633	1
3.87000	-8
3.87367	-13
3.87733	-14
3.88100	-11
3.88467	-11
3.88833	-11
3.89200	-5
3.89567	6
3.89933	18
3.90300	25
3.90667	19
3.91033	6
3.91400	-9
3.91767	-21
3.92133	-29
3.92500	-34
3.92867	-35
3.93233	-29
3.93600	-20
3.93967	-11
3.94333	-4
3.94700	1
3.95067	1
3.95433	-2
3.95800	-6
3.96167	-7
3.96533	-6
3.96900	-7
3.97267	-7
3.97633	-7
3.98000	-8
3.98367	-7
3.98733	-6
3.99100	-5
3.99467	-4
3.99833	-6

[Chromatogram (Ch2)]
Interval(msec)	220
# of Points	1091
Start Time(min)	0.002
End Time(min)	3.998
R.Time (min)	Intensity
0.00167	0
0.00533	0
0.00900	0
0.01267	0
0.01633	-0
0.02000	-0
0.02367	-0
0.02733	-0
0.03100	-0
0.03467	-0
0.03833	-0
0.04200	0
0.04567	0
0.04933	0
0.05300	0
0.05667	0
0.06033	0
0.06400	0
0.06767	-0
0.07133	-0
0.07500	-0
0.07867	-0
0.08233	-0
0.08600	-1
0.08967	-1
0.09333	-2
0.09700	-2
0.10067	-3
0.10433	-3
0.10800	-4
0.11167	-4
0.11533	-4
0.11900	-5
0.12267	-5
0.12633	-5
0.13000	-5
0.13367	-5
0.13733	-5
0.14100	-4
0.14467	-4
0.14833	-3
0.15200	-3
0.15567	-2
0.15933	-2
0.16300	-2
0.16667	-1
0.17033	-1
0.17400	-1
0.17767	-1
0.18133	-0
0.18500	-0
0.18867	-0
0.19233	-1
0.19600	-1
0.19967	-1
0.20333	-1
0.20700	-2
0.21067	-2
0.21433	-2
0.21800	-2
0.22167	-3
0.22533	-3
0.22900	-4
0.23267	-4
0.23633	-4
0.24000	-4
0.24367	-5
0.24733	-5
0.25100	-5
0.25467	-5
0.25833	-5
0.26200	-5
0.26567	-6
0.26933	-6
0.27300	-6
0.27667	-6
0.28033	-5
0.28400	-5
0.28767	-4
0.29133	-4
0.29500	-3
0.29867	-3
0.30233	-3
0.30600	-2
0.30967	-2
0.31333	-2
0.31700	-2
0.32067	-2
0.32433	-1
0.32800	-1
0.33167	-1
0.33533	-1
0.33900	-1
0.34267	-1
0.34633	-1
0.35000	-1
0.35367	-1
0.35733	-1
0.36100	-1
0.36467	-1
0.36833	-1
0.37200	-2
0.37567	-2
0.37933	-2
0.38300	-2
0.38667	-2
0.39033	-2
0.39400	-2
0.39767	-1
0.40133	-1
0.40500	-1
0.40867	-1
0.41233	-1
0.41600	-1
0.41967	-1
0.42333	-2
0.42700	-2
0.43067	-3
0.43433	-3
0.43800	-3
0.44167	-4
0.44533	-4
0.44900	-4
0.45267	-4
0.45633	-4
0.46000	-4
0.46367	-4
0.46733	-4
0.47100	-4
0.47467	-4
0.47833	-4
0.48200	-4
0.48567	-4
0.48933	-4
0.49300	-4
0.49667	-4
0.50033	-5
0.50400	-5
0.50767	-5
0.51133	-5
0.51500	-5
0.51867	-5
0.52233	-5
0.52600	-5
0.52967	-5
0.53333	-5
0.53700	-5
0.54067	-4
0.54433	-4
0.54800	-4
0.55167	-3
0.55533	-3
0.55900	-3
0.56267	-2
0.56633	-2
0.57000	-2
0.57367	-2
0.57733	-1
0.58100	-1
0.58467	-1
0.58833	-1
0.59200	-1
0.59567	-1
0.59933	-1
0.60300	-1
0.60667	-1
0.61033	-1
0.61400	-1
0.61767	-1
0.62133	-1
0.62500	-0
0.62867	-0
0.63233	-0
0.63600	-0
0.63967	-0
0.64333	-1
0.64700	-1
0.65067	-2
0.65433	-2
0.65800	-3
0.66167	-3
0.66533	-4
0.66900	-4
0.67267	-4
0.67633	-4
0.68000	-4
0.68367	-4
0.68733	-4
0.69100	-4
0.69467	-4
0.69833	-4
0.70200	-4
0.70567	-4
0.70933	-4
0.71300	-4
0.71667	-4
0.72033	-4
0.72400	-4
0.72767	-3
0.73133	-3
0.73500	-3
0.73867	-3
0.74233	-3
0.74600	-3
0.74967	-3
0.75333	-3
0.75700	-3
0.76067	-3
0.76433	-3
0.76800	-2
0.77167	-2
0.77533	-2
0.77900	-2
0.78267	-1
0.78633	-1
0.79000	-1
0.79367	-1
0.79733	-1
0.80100	-1
0.80467	-1
0.80833	-1
0.81200	-1
0.81567	-1
0.81933	-1
0.82300	-1
0.82667	-2
0.83033	-2
0.83400	-3
0.83767	-3
0.84133	-4
0.84500	-4
0.84867	-4
0.85233	-4
0.85600	-4
0.85967	-4
0.86333	-4
0.86700	-4
0.87067	-4
0.87433	-4
0.87800	-4
0.88167	-4
0.88533	-5
0.88900	-5
0.89267	-5
0.89633	-5
0.90000	-5
0.90367	-6
0.90733	-6
0.91100	-6
0.91467	-6
0.91833	-6
0.92200	-6
0.92567	-6
0.92933	-6
0.93300	-6
0.93667	-6
0.94033	-6
0.94400	-6
0.94767	-5
0.95133	-5
0.95500	-5
0.95867	-5
0.96233	-5
0.96600	-5
0.96967	-5
0.97333	-5
0.97700	-5
0.98067	-5
0.98433	-5
0.98800	-5
0.99167	-5
0.99533	-5
0.99900	-5
1.00267	-5
1.00633	-5
1.01000	-5
1.01367	-5
1.01733	-5
1.02100	-5
1.02467	-5
1.02833	-5
1.03200	-5
1.03567	-5
1.03933	-5
1.04300	-5
1.04667	-5
1.05033	-5
1.05400	-5
1.05767	-5
1.06133	-5
1.06500	-5
1.06867	-5
1.07233	-5
1.07600	-5
1.07967	-5
1.08333	-5
1.08700	-5
1.09067	-5
1.09433	-5
1.09800	-6
1.10167	-6
1.10533	-6
1.10900	-6
1.11267	-6
1.11633	-7
1.12000	-7
1.12367	-7
1.12733	-6
1.13100	-6
1.13467	-6
1.13833	-6
1.14200	-6
1.14567	-5
1.14933	-5
1.15300	-4
1.15667	-4
1.16033	-4
1.16400	-3
1.16767	-3
1.17133	-3
1.17500	-3
1.17867	-3
1.18233	-3
1.18600	-3
1.18967	-3
1.19333	-3
1.19700	-3
1.20067	-4
1.20433	-4
1.20800	-4
1.21167	-5
1.21533	-5
1.21900	-5
1.22267	-5
1.22633	-6
1.23000	-6
1.23367	-6
1.23733	-6
1.24100	-6
1.24467	-6
1.24833	-7
1.25200	-7
1.25567	-7
1.25933	-7
1.26300	-7
1.26667	-7
1.27033	-7
1.27400	-7
1.27767	-6
1.28133	-6
1.28500	-6
1.28867	-5
1.29233	-5
1.29600	-5
1.29967	-4
1.30333	-4
1.30700	-4
1.31067	-4
1.31433	-4
1.31800	-5
1.32167	-5
1.32533	-5
1.32900	-6
1.33267	-6
1.33633	-6
1.34000	-7
1.34367	-7
1.34733	-7
1.35100	-7
1.35467	-7
1.35833	-6
1.36200	-6
1.36567	-6
1.36933	-5
1.37300	-5
1.37667	-5
1.38033	-5
1.38400	-5
1.38767	-5
1.39133	-5
1.39500	-5
1.39867	-6
1.40233	-6
1.40600	-6
1.40967	-6
1.41333	-6
1.41700	-5
1.42067	-5
1.42433	-5
1.42800	-5
1.43167	-5
1.43533	-5
1.43900	-5
1.44267	-5
1.44633	-5
1.45000	-5
1.45367	-5
1.45733	-5
1.46100	-6
1.46467	-6
1.46833	-6
1.47200	-6
1.47567	-6
1.47933	-6
1.48300	-6
1.48667	-6
1.49033	-6
1.49400	-6
1.49767	-6
1.50133	-6
1.50500	-6
1.50867	-6
1.51233	-6
1.51600	-6
1.51967	-6
1.52333	-7
1.52700	-7
1.53067	-7
1.53433	-7
1.53800	-7
1.54167	-7
1.54533	-7
1.54900	-7
1.55267	-8
1.55633	-8
1.56000	-8
1.56367	-8
1.56733	-9
1.57100	-9
1.57467	-9
1.57833	-9
1.58200	-9
1.58567	-9
1.58933	-9
1.59300	-9
1.59667	-9
1.60033	-10
1.60400	-11
1.60767	-12
1.61133	-13
1.61500	-15
1.61867	-17
1.62233	-19
1.62600	-22
1.62967	-25
1.63333	-28
1.63700	-31
1.64067	-34
1.64433	-37
1.64800	-41
1.65167	-44
1.65533	-47
1.65900	-50
1.66267	-54
1.66633	-58
1.67000	-62
1.67367	-66
1.67733	-70
1.68100	-75
1.68467	-79
1.68833	-84
1.69200	-88
1.69567	-91
1.69933	-94
1.70300	-96
1.70667	-98
1.71033	-99
1.71400	-100
1.71767	-101
1.72133	-101
1.72500	-102
1.72867	-102
1.73233	-102
1.73600	-102
1.73967	-102
1.74333	-102
1.74700	-101
1.75067	-100
1.75433	-99
1.75800	-99
1.76167	-99
1.76533	-99
1.76900	-99
1.77267	-100
1.77633	-100
1.78000	-101
1.78367	-103
1.78733	-104
1.79100	-105
1.79467	-105
1.79833	-106
1.80200	-106
1.80567	-106
1.80933	-106
1.81300	-105
1.81667	-105
1.82033	-104
1.82400	-104
1.82767	-104
1.83133	-104
1.83500	-105
1.83867	-105
1.84233	-106
1.84600	-106
1.84967	-107
1.85333	-106
1.85700	-106
1.86067	-106
1.86433	-106
1.86800	-105
1.87167	-105
1.87533	-105
1.87900	-105
1.88267	-105
1.88633	-105
1.89000	-104
1.89367	-104
1.89733	-104
1.90100	-104
1.90467	-104
1.90833	-104
1.91200	-104
1.91567	-104
1.91933	-104
1.92300	-104
1.92667	-104
1.93033	-103
1.93400	-103
1.93767	-103
1.94133	-103
1.94500	-103
1.94867	-103
1.95233	-102
1.95600	-101
1.95967	-100
1.96333	-100
1.96700	-99
1.97067	-99
1.97433	-99
1.97800	-99
1.98167	-99
1.98533	-100
1.98900	-100
1.99267	-99
1.99633	-99
2.00000	-98
2.00367	-98
2.00733	-97
2.01100	-97
2.01467	-97
2.01833	-97
2.02200	-97
2.02567	-96
2.02933	-96
2.03300	-95
2.03667	-95
2.04033	-95
2.04400	-94
2.04767	-94
2.05133	-94
2.05500	-94
2.05867	-94
2.06233	-94
2.06600	-94
2.06967	-94
2.07333	-93
2.07700	-93
2.08067	-93
2.08433	-92
2.08800	-92
2.09167	-92
2.09533	-92
2.09900	-93
2.10267	-93
2.10633	-93
2.11000	-93
2.11367	-93
2.11733	-93
2.12100	-92
2.12467	-92
2.12833	-91
2.13200	-91
2.13567	-90
2.13933	-90
2.14300	-90
2.14667	-90
2.15033	-89
2.15400	-89
2.15767	-88
2.16133	-88
2.16500	-88
2.16867	-87
2.17233	-85
2.17600	-84
2.17967	-83
2.18333	-83
2.18700	-82
2.19067	-82
2.19433	-82
2.19800	-83
2.20167	-83
2.20533	-83
2.20900	-83
2.21267	-83
2.21633	-83
2.22000	-84
2.22367	-84
2.22733	-84
2.23100	-84
2.23467	-83
2.23833	-83
2.24200	-82
2.24567	-82
2.24933	-81
2.25300	-81
2.25667	-81
2.26033	-81
2.26400	-81
2.26767	-80
2.27133	-79
2.27500	-79
2.27867	-79
2.28233	-79
2.28600	-79
2.28967	-80
2.29333	-80
2.29700	-80
2.30067	-80
2.30433	-79
2.30800	-78
2.31167	-77
2.31533	-76
2.31900	-75
2.32267	-74
2.32633	-73
2.33000	-73
2.33367	-73
2.33733	-73
2.34100	-73
2.34467	-73
2.34833	-73
2.35200	-73
2.35567	-72
2.35933	-71
2.36300	-70
2.36667	-68
2.37033	-66
2.37400	-64
2.37767	-60
2.38133	-57
2.38500	-53
2.38867	-48
2.39233	-44
2.39600	-39
2.39967	-35
2.40333	-31
2.40700	-27
2.41067	-23
2.41433	-20
2.41800	-17
2.42167	-14
2.42533	-11
2.42900	-9
2.43267	-7
2.43633	-5
2.44000	-3
2.44367	-1
2.44733	1
2.45100	2
2.45467	2
2.45833	2
2.46200	2
2.46567	2
2.46933	3
2.47300	4
2.47667	5
2.48033	6
2.48400	7
2.48767	8
2.49133	9
2.49500	10
2.49867	11
2.50233	11
2.50600	11
2.50967	11
2.51333	10
2.51700	11
2.52067	11
2.52433	11
2.52800	10
2.53167	10
2.53533	9
2.53900	8
2.54267	8
2.54633	7
2.55000	7
2.55367	7
2.55733	8
2.56100	8
2.56467	9
2.56833	9
2.57200	10
2.57567	11
2.57933	11
2.58300	12
2.58667	12
2.59033	13
2.59400	13
2.59767	13
2.60133	13
2.60500	13
2.60867	14
2.61233	14
2.61600	15
2.61967	15
2.62333	15
2.62700	15
2.63067	15
2.63433	15
2.63800	15
2.64167	15
2.64533	16
2.64900	16
2.65267	16
2.65633	16
2.66000	16
2.66367	16
2.66733	17
2.67100	17
2.67467	17
2.67833	17
2.68200	17
2.68567	17
2.68933	17
2.69300	17
2.69667	18
2.70033	19
2.70400	20
2.70767	21
2.71133	21
2.71500	22
2.71867	23
2.72233	24
2.72600	24
2.72967	24
2.73333	24
2.73700	24
2.74067	24
2.74433	23
2.74800	23
2.75167	22
2.75533	22
2.75900	21
2.76267	21
2.76633	22
2.77000	22
2.77367	22
2.77733	23
2.78100	23
2.78467	24
2.78833	24
2.79200	25
2.79567	25
2.79933	25
2.80300	26
2.80667	26
2.81033	26
2.81400	26
2.81767	26
2.82133	26
2.82500	26
2.82867	26
2.83233	26
2.83600	26
2.83967	26
2.84333	25
2.84700	25
2.85067	25
2.85433	25
2.85800	23
2.86167	21
2.86533	16
2.86900	9
2.87267	-1
2.87633	-16
2.88000	-35
2.88367	-60
2.88733	-89
2.89100	-125
2.89467	-165
2.89833	-210
2.90200	-260
2.90567	-313
2.90933	-370
2.91300	-429
2.91667	-491
2.92033	-554
2.92400	-617
2.92767	-680
2.93133	-741
2.93500	-800
2.93867	-855
2.94233	-908
2.94600	-961
2.94967	-1016
2.95333	-1066
2.95700	-1101
2.96067	-1115
2.96433	-1103
2.96800	-1068
2.97167	-1013
2.97533	-944
2.97900	-867
2.98267	-786
2.98633	-705
2.99000	-627
2.99367	-553
2.99733	-484
3.00100	-422
3.00467	-365
3.00833	-315
3.01200	-270
3.01567	-231
3.01933	-197
3.02300	-168
3.02667	-142
3.03033	-120
3.03400	-101
3.03767	-84
3.04133	-70
3.04500	-58
3.04867	-47
3.05233	-38
3.05600	-30
3.05967	-23
3.06333	-18
3.06700	-13
3.07067	-9
3.07433	-5
3.07800	-3
3.08167	-0
3.08533	2
3.08900	4
3.09267	5
3.09633	6
3.10000	8
3.10367	9
3.10733	10
3.11100	10
3.11467	11
3.11833	12
3.12200	13
3.12567	13
3.12933	14
3.13300	14
3.13667	15
3.14033	15
3.14400	15
3.14767	15
3.15133	16
3.15500	16
3.15867	16
3.16233	16
3.16600	17
3.16967	17
3.17333	17
3.17700	17
3.18067	18
3.18433	18
3.18800	18
3.19167	18
3.19533	18
3.19900	18
3.20267	18
3.20633	18
3.21000	18
3.21367	18
3.21733	18
3.22100	18
3.22467	18
3.22833	18
3.23200	18
3.23567	19
3.23933	19
3.24300	19
3.24667	19
3.25033	19
3.25400	20
3.25767	20
3.26133	20
3.26500	21
3.26867	21
3.27233	21
3.27600	21
3.27967	22
3.28333	22
3.28700	22
3.29067	22
3.29433	22
3.29800	23
3.30167	23
3.30533	23
3.30900	23
3.31267	23
3.31633	23
3.32000	23
3.32367	23
3.32733	24
3.33100	24
3.33467	24
3.33833	24
3.34200	24
3.34567	24
3.34933	24
3.35300	24
3.35667	23
3.36033	23
3.36400	23
3.36767	23
3.37133	23
3.37500	23
3.37867	23
3.38233	23
3.38600	24
3.38967	24
3.39333	24
3.39700	24
3.40067	24
3.40433	24
3.40800	24
3.41167	24
3.41533	24
3.41900	24
3.42267	24
3.42633	24
3.43000	24
3.43367	24
3.43733	24
3.44100	24
3.44467	24
3.44833	24
3.45200	24
3.45567	24
3.45933	25
3.46300	25
3.46667	25
3.47033	25
3.47400	25
3.47767	25
3.48133	25
3.48500	25
3.48867	25
3.49233	25
3.49600	25
3.49967	25
3.50333	25
3.50700	26
3.51067	26
3.51433	26
3.51800	26
3.52167	26
3.52533	26
3.52900	25
3.53267	25
3.53633	25
3.54000	26
3.54367	26
3.54733	26
3.55100	26
3.55467	25
3.55833	25
3.56200	25
3.56567	25
3.56933	24
3.57300	24
3.57667	25
3.58033	24
3.58400	25
3.58767	25
3.59133	25
3.59500	25
3.59867	25
3.60233	25
3.60600	25
3.60967	26
3.61333	26
3.61700	26
3.62067	26
3.62433	26
3.62800	26
3.63167	27
3.63533	27
3.63900	27
3.64267	27
3.64633	26
3.65000	26
3.65367	26
3.65733	26
3.66100	26
3.66467	26
3.66833	26
3.67200	26
3.67567	26
3.67933	26
3.68300	26
3.68667	26
3.69033	25
3.69400	25
3.69767	25
3.70133	25
3.70500	24
3.70867	24
3.71233	24
3.71600	24
3.71967	24
3.72333	24
3.72700	24
3.73067	25
3.73433	25
3.73800	25
3.74167	25
3.74533	26
3.74900	26
3.75267	26
3.75633	26
3.76000	26
3.76367	26
3.76733	26
3.77100	26
3.77467	26
3.77833	26
3.78200	26
3.78567	27
3.78933	27
3.79300	27
3.79667	27
3.80033	27
3.80400	27
3.80767	27
3.81133	27
3.81500	27
3.81867	27
3.82233	27
3.82600	27
3.82967	27
3.83333	27
3.83700	27
3.84067	27
3.84433	27
3.84800	27
3.85167	27
3.85533	27
3.85900	27
3.86267	27
3.86633	27
3.87000	27
3.87367	27
3.87733	27
3.88100	26
3.88467	26
3.88833	25
3.89200	25
3.89567	25
3.89933	25
3.90300	24
3.90667	24
3.91033	24
3.91400	24
3.91767	24
3.92133	25
3.92500	25
3.92867	25
3.93233	25
3.93600	25
3.93967	25
3.94333	25
3.94700	25
3.95067	25
3.95433	25
3.95800	25
3.96167	25
3.96533	25
3.96900	25
3.97267	25
3.97633	25
3.98000	26
3.98367	26
3.98733	26
3.99100	25
3.99467	25
3.99833	25

[Chromatogram (Ch3)]
Interval(msec)	220
# of Points	1091
Start Time(min)	0.002
End Time(min)	3.998
R.Time (min)	Intensity
0.00167	1
0.00533	-0
0.00900	-0
0.01267	-0
0.01633	-2
0.02000	-3
0.02367	-4
0.02733	-3
0.03100	-3
0.03467	-4
0.03833	-5
0.04200	-5
0.04567	-6
0.04933	-7
0.05300	-6
0.05667	-6
0.06033	-5
0.06400	-4
0.06767	-3
0.07133	-3
0.07500	-1
0.07867	-1
0.08233	-2
0.08600	-4
0.08967	-3
0.09333	-4
0.09700	-4
0.10067	-5
0.10433	-5
0.10800	-6
0.11167	-4
0.11533	-1
0.11900	2
0.12267	4
0.12633	2
0.13000	-0
0.13367	0
0.13733	1
0.14100	1
0.14467	0
0.14833	-2
0.15200	-4
0.15567	-4
0.15933	-5
0.16300	-5
0.16667	-4
0.17033	-3
0.17400	-3
0.17767	-6
0.18133	-7
0.18500	-6
0.18867	-4
0.19233	-1
0.19600	0
0.19967	0
0.20333	0
0.20700	0
0.21067	2
0.21433	4
0.21800	5
0.22167	5
0.22533	3
0.22900	3
0.23267	3
0.23633	3
0.24000	5
0.24367	7
0.24733	7
0.25100	5
0.25467	4
0.25833	4
0.26200	4
0.26567	4
0.26933	3
0.27300	4
0.27667	6
0.28033	6
0.28400	4
0.28767	4
0.29133	5
0.29500	6
0.29867	5
0.30233	4
0.30600	2
0.30967	3
0.31333	6
0.31700	6
0.32067	6
0.32433	6
0.32800	7
0.33167	7
0.33533	6
0.33900	7
0.34267	8
0.34633	7
0.35000	5
0.35367	4
0.35733	5
0.36100	5
0.36467	5
0.36833	4
0.37200	4
0.37567	4
0.37933	4
0.38300	4
0.38667	4
0.39033	4
0.39400	5
0.39767	6
0.40133	7
0.40500	9
0.40867	12
0.41233	12
0.41600	11
0.41967	11
0.42333	9
0.42700	10
0.43067	11
0.43433	10
0.43800	9
0.44167	7
0.44533	7
0.44900	10
0.45267	10
0.45633	8
0.46000	9
0.46367	8
0.46733	8
0.47100	8
0.47467	6
0.47833	5
0.48200	7
0.48567	9
0.48933	11
0.49300	14
0.49667	15
0.50033	15
0.50400	15
0.50767	14
0.51133	12
0.51500	9
0.51867	10
0.52233	12
0.52600	12
0.52967	11
0.53333	10
0.53700	13
0.54067	14
0.54433	13
0.54800	12
0.55167	12
0.55533	13
0.55900	16
0.56267	18
0.56633	18
0.57000	18
0.57367	14
0.57733	13
0.58100	12
0.58467	11
0.58833	12
0.59200	12
0.59567	11
0.59933	10
0.60300	10
0.60667	11
0.61033	11
0.61400	11
0.61767	10
0.62133	9
0.62500	8
0.62867	9
0.63233	11
0.63600	12
0.63967	13
0.64333	13
0.64700	13
0.65067	12
0.65433	12
0.65800	13
0.66167	12
0.66533	11
0.66900	11
0.67267	11
0.67633	11
0.68000	11
0.68367	12
0.68733	14
0.69100	17
0.69467	18
0.69833	16
0.70200	15
0.70567	14
0.70933	13
0.71300	15
0.71667	15
0.72033	13
0.72400	10
0.72767	8
0.73133	9
0.73500	12
0.73867	14
0.74233	15
0.74600	16
0.74967	14
0.75333	14
0.75700	14
0.76067	14
0.76433	14
0.76800	15
0.77167	16
0.77533	15
0.77900	15
0.78267	14
0.78633	13
0.79000	13
0.79367	12
0.79733	11
0.80100	12
0.80467	11
0.80833	10
0.81200	11
0.81567	13
0.81933	16
0.82300	17
0.82667	17
0.83033	18
0.83400	16
0.83767	15
0.84133	15
0.84500	14
0.84867	12
0.85233	11
0.85600	13
0.85967	14
0.86333	17
0.86700	19
0.87067	18
0.87433	18
0.87800	18
0.88167	18
0.88533	16
0.88900	15
0.89267	14
0.89633	15
0.90000	15
0.90367	17
0.90733	18
0.91100	17
0.91467	16
0.91833	16
0.92200	16
0.92567	17
0.92933	17
0.93300	17
0.93667	16
0.94033	17
0.94400	17
0.94767	18
0.95133	20
0.95500	21
0.95867	21
0.96233	21
0.96600	20
0.96967	19
0.97333	18
0.97700	18
0.98067	18
0.98433	19
0.98800	21
0.99167	21
0.99533	21
0.99900	23
1.00267	23
1.00633	23
1.01000	23
1.01367	23
1.01733	22
1.02100	22
1.02467	21
1.02833	20
1.03200	20
1.03567	19
1.03933	19
1.04300	20
1.04667	21
1.05033	21
1.05400	22
1.05767	23
1.06133	24
1.06500	25
1.06867	24
1.07233	23
1.07600	23
1.07967	22
1.08333	20
1.08700	20
1.09067	21
1.09433	23
1.09800	22
1.10167	22
1.10533	23
1.10900	25
1.11267	26
1.11633	27
1.12000	29
1.12367	30
1.12733	28
1.13100	26
1.13467	25
1.13833	25
1.14200	25
1.14567	23
1.14933	24
1.15300	25
1.15667	25
1.16033	25
1.16400	23
1.16767	21
1.17133	20
1.17500	18
1.17867	17
1.18233	19
1.18600	21
1.18967	22
1.19333	23
1.19700	23
1.20067	23
1.20433	23
1.20800	23
1.21167	25
1.21533	26
1.21900	24
1.22267	24
1.22633	23
1.23000	23
1.23367	24
1.23733	26
1.24100	29
1.24467	30
1.24833	30
1.25200	30
1.25567	28
1.25933	27
1.26300	25
1.26667	26
1.27033	25
1.27400	26
1.27767	29
1.28133	32
1.28500	32
1.28867	31
1.29233	31
1.29600	32
1.29967	33
1.30333	32
1.30700	32
1.31067	32
1.31433	34
1.31800	35
1.32167	36
1.32533	37
1.32900	38
1.33267	36
1.33633	36
1.34000	36
1.34367	35
1.34733	35
1.35100	37
1.35467	37
1.35833	36
1.36200	35
1.36567	34
1.36933	34
1.37300	35
1.37667	37
1.38033	39
1.38400	39
1.38767	39
1.39133	37
1.39500	37
1.39867	35
1.40233	33
1.40600	33
1.40967	32
1.41333	32
1.41700	33
1.42067	33
1.42433	33
1.42800	32
1.43167	32
1.43533	33
1.43900	37
1.44267	38
1.44633	36
1.45000	34
1.45367	35
1.45733	35
1.46100	34
1.46467	33
1.46833	33
1.47200	32
1.47567	32
1.47933	33
1.48300	35
1.48667	35
1.49033	33
1.49400	33
1.49767	33
1.50133	32
1.50500	33
1.50867	31
1.51233	29
1.51600	29
1.51967	28
1.52333	26
1.52700	25
1.53067	24
1.53433	25
1.53800	26
1.54167	27
1.54533	27
1.54900	27
1.55267	27
1.55633	28
1.56000	26
1.56367	25
1.56733	25
1.57100	25
1.57467	25
1.57833	25
1.58200	26
1.58567	25
1.58933	26
1.59300	26
1.59667	25
1.60033	26
1.60400	26
1.60767	28
1.61133	29
1.61500	30
1.61867	30
1.62233	29
1.62600	30
1.62967	31
1.63333	33
1.63700	36
1.64067	38
1.64433	37
1.64800	37
1.65167	37
1.65533	39
1.65900	40
1.66267	42
1.66633	42
1.67000	43
1.67367	43
1.67733	43
1.68100	43
1.68467	43
1.68833	42
1.69200	40
1.69567	39
1.69933	40
1.70300	44
1.70667	48
1.71033	50
1.71400	52
1.71767	53
1.72133	53
1.72500	49
1.72867	45
1.73233	44
1.73600	44
1.73967	46
1.74333	48
1.74700	50
1.75067	49
1.75433	48
1.75800	48
1.76167	47
1.76533	45
1.76900	43
1.77267	43
1.77633	44
1.78000	44
1.78367	43
1.78733	41
1.79100	41
1.79467	42
1.79833	44
1.80200	45
1.80567	44
1.80933	44
1.81300	46
1.81667	46
1.82033	48
1.82400	49
1.82767	50
1.83133	50
1.83500	49
1.83867	51
1.84233	52
1.84600	53
1.84967	55
1.85333	56
1.85700	57
1.86067	58
1.86433	59
1.86800	58
1.87167	56
1.87533	53
1.87900	53
1.88267	55
1.88633	57
1.89000	58
1.89367	56
1.89733	54
1.90100	54
1.90467	55
1.90833	56
1.91200	59
1.91567	62
1.91933	63
1.92300	65
1.92667	65
1.93033	67
1.93400	67
1.93767	66
1.94133	66
1.94500	67
1.94867	67
1.95233	69
1.95600	72
1.95967	72
1.96333	72
1.96700	72
1.97067	69
1.97433	68
1.97800	69
1.98167	71
1.98533	73
1.98900	74
1.99267	75
1.99633	75
2.00000	75
2.00367	75
2.00733	74
2.01100	74
2.01467	74
2.01833	75
2.02200	76
2.02567	76
2.02933	77
2.03300	79
2.03667	81
2.04033	84
2.04400	87
2.04767	92
2.05133	94
2.05500	96
2.05867	98
2.06233	99
2.06600	99
2.06967	99
2.07333	99
2.07700	99
2.08067	99
2.08433	101
2.08800	102
2.09167	104
2.09533	106
2.09900	106
2.10267	104
2.10633	105
2.11000	106
2.11367	106
2.11733	108
2.12100	110
2.12467	111
2.12833	110
2.13200	110
2.13567	112
2.13933	113
2.14300	115
2.14667	117
2.15033	117
2.15400	116
2.15767	117
2.16133	116
2.16500	114
2.16867	112
2.17233	112
2.17600	111
2.17967	111
2.18333	112
2.18700	113
2.19067	113
2.19433	113
2.19800	114
2.20167	115
2.20533	116
2.20900	116
2.21267	117
2.21633	117
2.22000	116
2.22367	116
2.22733	117
2.23100	117
2.23467	118
2.23833	121
2.24200	122
2.24567	122
2.24933	120
2.25300	119
2.25667	117
2.26033	118
2.26400	119
2.26767	119
2.27133	120
2.27500	120
2.27867	121
2.28233	122
2.28600	123
2.28967	122
2.29333	123
2.29700	124
2.30067	126
2.30433	127
2.30800	128
2.31167	126
2.31533	124
2.31900	122
2.32267	122
2.32633	122
2.33000	122
2.33367	123
2.33733	125
2.34100	127
2.34467	128
2.34833	129
2.35200	129
2.35567	128
2.35933	126
2.36300	125
2.36667	125
2.37033	122
2.37400	121
2.37767	122
2.38133	124
2.38500	125
2.38867	124
2.39233	125
2.39600	126
2.39967	128
2.40333	131
2.40700	134
2.41067	135
2.41433	135
2.41800	137
2.42167	138
2.42533	138
2.42900	139
2.43267	139
2.43633	140
2.44000	149
2.44367	213
2.44733	329
2.45100	437
2.45467	515
2.45833	553
2.46200	550
2.46567	526
2.46933	499
2.47300	481
2.47667	471
2.48033	458
2.48400	435
2.48767	407
2.49133	383
2.49500	373
2.49867	388
2.50233	434
2.50600	508
2.50967	594
2.51333	669
2.51700	724
2.52067	760
2.52433	782
2.52800	793
2.53167	798
2.53533	803
2.53900	808
2.54267	818
2.54633	832
2.55000	845
2.55367	861
2.55733	879
2.56100	898
2.56467	916
2.56833	932
2.57200	947
2.57567	960
2.57933	967
2.58300	970
2.58667	968
2.59033	961
2.59400	948
2.59767	933
2.60133	916
2.60500	898
2.60867	879
2.61233	862
2.61600	845
2.61967	829
2.62333	817
2.62700	808
2.63067	799
2.63433	790
2.63800	782
2.64167	775
2.64533	767
2.64900	763
2.65267	760
2.65633	756
2.66000	753
2.66367	753
2.66733	754
2.67100	757
2.67467	762
2.67833	764
2.68200	767
2.68567	772
2.68933	776
2.69300	781
2.69667	787
2.70033	793
2.70400	799
2.70767	803
2.71133	807
2.71500	811
2.71867	816
2.72233	819
2.72600	822
2.72967	827
2.73333	830
2.73700	831
2.74067	830
2.74433	826
2.74800	821
2.75167	815
2.75533	811
2.75900	806
2.76267	800
2.76633	793
2.77000	785
2.77367	778
2.77733	771
2.78100	762
2.78467	753
2.78833	745
2.79200	739
2.79567	735
2.79933	730
2.80300	726
2.80667	722
2.81033	722
2.81400	721
2.81767	720
2.82133	717
2.82500	711
2.82867	709
2.83233	713
2.83600	729
2.83967	762
2.84333	833
2.84700	965
2.85067	1177
2.85433	1490
2.85800	1909
2.86167	2424
2.86533	3003
2.86900	3608
2.87267	4186
2.87633	4687
2.88000	5073
2.88367	5322
2.88733	5423
2.89100	5386
2.89467	5229
2.89833	4984
2.90200	4681
2.90567	4347
2.90933	4002
2.91300	3659
2.91667	3330
2.92033	3021
2.92400	2739
2.92767	2484
2.93133	2254
2.93500	2049
2.93867	1868
2.94233	1710
2.94600	1572
2.94967	1451
2.95333	1350
2.95700	1263
2.96067	1187
2.96433	1121
2.96800	1063
2.97167	1015
2.97533	974
2.97900	938
2.98267	909
2.98633	884
2.99000	862
2.99367	843
2.99733	825
3.00100	812
3.00467	803
3.00833	794
3.01200	784
3.01567	775
3.01933	770
3.02300	764
3.02667	759
3.03033	757
3.03400	756
3.03767	756
3.04133	756
3.04500	754
3.04867	752
3.05233	752
3.05600	753
3.05967	754
3.06333	754
3.06700	754
3.07067	755
3.07433	758
3.07800	758
3.08167	757
3.08533	757
3.08900	758
3.09267	758
3.09633	757
3.10000	759
3.10367	760
3.10733	758
3.11100	753
3.11467	750
3.11833	748
3.12200	747
3.12567	747
3.12933	748
3.13300	749
3.13667	750
3.14033	747
3.14400	746
3.14767	745
3.15133	744
3.15500	745
3.15867	746
3.16233	746
3.16600	745
3.16967	745
3.17333	745
3.17700	744
3.18067	744
3.18433	744
3.18800	743
3.19167	742
3.19533	739
3.19900	737
3.20267	735
3.20633	733
3.21000	733
3.21367	733
3.21733	732
3.22100	730
3.22467	728
3.22833	725
3.23200	723
3.23567	724
3.23933	725
3.24300	725
3.24667	723
3.25033	718
3.25400	715
3.25767	714
3.26133	714
3.26500	713
3.26867	712
3.27233	711
3.27600	710
3.27967	709
3.28333	708
3.28700	706
3.29067	704
3.29433	703
3.29800	702
3.30167	701
3.30533	700
3.30900	700
3.31267	699
3.31633	697
3.32000	696
3.32367	694
3.32733	692
3.33100	690
3.33467	688
3.33833	685
3.34200	684
3.34567	681
3.34933	680
3.35300	678
3.35667	676
3.36033	675
3.36400	677
3.36767	677
3.37133	675
3.37500	673
3.37867	671
3.38233	667
3.38600	664
3.38967	661
3.39333	657
3.39700	654
3.40067	653
3.40433	651
3.40800	647
3.41167	644
3.41533	643
3.41900	643
3.42267	641
3.42633	638
3.43000	635
3.43367	632
3.43733	631
3.44100	629
3.44467	625
3.44833	623
3.45200	621
3.45567	619
3.45933	618
3.46300	616
3.46667	614
3.47033	613
3.47400	612
3.47767	611
3.48133	607
3.48500	603
3.48867	601
3.49233	602
3.49600	604
3.49967	604
3.50333	601
3.50700	597
3.51067	598
3.51433	597
3.51800	592
3.52167	590
3.52533	589
3.52900	586
3.53267	585
3.53633	584
3.54000	581
3.54367	578
3.54733	577
3.55100	576
3.55467	576
3.55833	576
3.56200	575
3.56567	574
3.56933	575
3.57300	572
3.57667	568
3.58033	564
3.58400	560
3.58767	561
3.59133	563
3.59500	562
3.59867	561
3.60233	559
3.60600	558
3.60967	556
3.61333	555
3.61700	554
3.62067	554
3.62433	552
3.62800	548
3.63167	545
3.63533	544
3.63900	545
3.64267	545
3.64633	544
3.65000	541
3.65367	537
3.65733	534
3.66100	533
3.66467	534
3.66833	536
3.67200	537
3.67567	535
3.67933	532
3.68300	529
3.68667	529
3.69033	528
3.69400	527
3.69767	527
3.70133	526
3.70500	524
3.70867	524
3.71233	524
3.71600	524
3.71967	523
3.72333	520
3.72700	520
3.73067	521
3.73433	520
3.73800	518
3.74167	515
3.74533	516
3.74900	516
3.75267	515
3.75633	515
3.76000	513
3.76367	511
3.76733	510
3.77100	508
3.77467	508
3.77833	506
3.78200	505
3.78567	505
3.78933	504
3.79300	500
3.79667	499
3.80033	501
3.80400	502
3.80767	502
3.81133	501
3.81500	502
3.81867	500
3.82233	499
3.82600	497
3.82967	494
3.83333	492
3.83700	494
3.84067	495
3.84433	494
3.84800	492
3.85167	491
3.85533	490
3.85900	489
3.86267	488
3.86633	486
3.87000	489
3.87367	491
3.87733	492
3.88100	492
3.88467	492
3.88833	491
3.89200	491
3.89567	489
3.89933	486
3.90300	486
3.90667	485
3.91033	484
3.91400	484
3.91767	485
3.92133	484
3.92500	480
3.92867	476
3.93233	474
3.93600	475
3.93967	475
3.94333	476
3.94700	478
3.95067	479
3.95433	478
3.95800	475
3.96167	472
3.96533	470
3.96900	469
3.97267	470
3.97633	470
3.98000	469
3.98367	467
3.98733	465
3.99100	463
3.99467	459
3.99833	455

[Status Trace (Column Oven Temperature)]
Interval(msec)	1000
# of Points	240
Start Time(min)	0.009
End Time(min)	3.992
Intensity Units	
Intensity Multiplier	1
R.Time (min)	Intensity
0.00882	35.04
0.02548	35.03
0.04215	35.02
0.05882	35.01
0.07548	35.02
0.09215	35.03
0.10882	35.05
0.12548	35.05
0.14215	35.05
0.15882	35.04
0.17548	35.04
0.19215	35.04
0.20882	35.04
0.22548	35.05
0.24215	35.06
0.25882	35.07
0.27548	35.08
0.29215	35.07
0.30882	35.05
0.32548	35.05
0.34215	35.05
0.35882	35.05
0.37548	35.05
0.39215	35.04
0.40882	35.02
0.42548	35.02
0.44215	35.04
0.45882	35.03
0.47548	35.03
0.49215	35.04
0.50882	35.05
0.52548	35.05
0.54215	35.05
0.55882	35.03
0.57548	35.02
0.59215	35.01
0.60882	35.00
0.62548	34.99
0.64215	34.99
0.65882	35.00
0.67548	35.00
0.69215	35.00
0.70882	35.00
0.72548	35.00
0.74215	35.00
0.75882	34.99
0.77548	34.98
0.79215	34.97
0.80882	34.96
0.82548	34.96
0.84215	34.97
0.85882	34.97
0.87548	34.97
0.89215	34.97
0.90882	34.98
0.92548	34.98
0.94215	34.98
0.95882	34.99
0.97548	34.99
0.99215	34.99
1.00882	34.99
1.02548	34.99
1.04215	35.00
1.05882	35.00
1.07548	35.00
1.09215	35.00
1.10882	35.00
1.12548	35.01
1.14215	34.99
1.15882	34.98
1.17548	34.97
1.19215	34.97
1.20882	34.97
1.22548	34.98
1.24215	34.99
1.25882	35.00
1.27548	34.99
1.29215	34.98
1.30882	34.97
1.32548	34.98
1.34215	34.98
1.35882	34.98
1.37548	34.98
1.39215	34.97
1.40882	34.98
1.42548	34.97
1.44215	34.97
1.45882	34.97
1.47548	34.98
1.49215	34.98
1.50882	34.98
1.52548	34.99
1.54215	35.00
1.55882	35.02
1.57548	35.02
1.59215	35.03
1.60882	35.09
1.62548	35.20
1.64215	35.39
1.65882	35.62
1.67548	35.96
1.69215	36.34
1.70882	36.69
1.72548	37.03
1.74215	37.35
1.75882	37.65
1.77548	37.99
1.79215	38.34
1.80882	38.67
1.82548	38.98
1.84215	39.33
1.85882	39.65
1.87548	39.99
1.89215	40.30
1.90882	40.63
1.92548	40.95
1.94215	41.30
1.95882	41.61
1.97548	41.94
1.99215	42.26
2.00882	42.59
2.02548	42.89
2.04215	43.22
2.05882	43.54
2.07548	43.86
2.09215	44.18
2.10882	44.53
2.12548	44.85
2.14215	45.18
2.15882	45.51
2.17548	45.82
2.19215	46.15
2.20882	46.48
2.22548	46.83
2.24215	47.15
2.25882	47.48
2.27548	47.81
2.29215	48.17
2.30882	48.50
2.32548	48.82
2.34215	49.16
2.35882	49.45
2.37548	49.63
2.39215	49.68
2.40882	49.67
2.42548	49.67
2.44215	49.66
2.45882	49.70
2.47548	49.71
2.49215	49.70
2.50882	49.72
2.52548	49.72
2.54215	49.74
2.55882	49.75
2.57548	49.77
2.59215	49.79
2.60882	49.80
2.62548	49.80
2.64215	49.82
2.65882	49.83
2.67548	49.86
2.69215	49.87
2.70882	49.85
2.72548	49.84
2.74215	49.87
2.75882	49.88
2.77548	49.88
2.79215	49.88
2.80882	49.87
2.82548	49.86
2.84215	49.87
2.85882	49.88
2.87548	49.90
2.89215	49.92
2.90882	49.92
2.92548	49.94
2.94215	49.95
2.95882	49.96
2.97548	49.98
2.99215	50.00
3.00882	50.01
3.02548	50.03
3.04215	50.03
3.05882	50.03
3.07548	50.04
3.09215	50.04
3.10882	50.04
3.12548	50.04
3.14215	50.04
3.15882	50.04
3.17548	50.05
3.19215	50.07
3.20882	50.08
3.22548	50.09
3.24215	50.09
3.25882	50.10
3.27548	50.10
3.29215	50.09
3.30882	50.09
3.32548	50.08
3.34215	50.08
3.35882	50.09
3.37548	50.09
3.39215	50.09
3.40882	50.09
3.42548	50.10
3.44215	50.10
3.45882	50.09
3.47548	50.09
3.49215	50.09
3.50882	50.09
3.52548	50.09
3.54215	50.09
3.55882	50.09
3.57548	50.09
3.59215	50.09
3.60882	50.07
3.62548	50.06
3.64215	50.06
3.65882	50.06
3.67548	50.07
3.69215	50.08
3.70882	50.09
3.72548	50.09
3.74215	50.09
3.75882	50.08
3.77548	50.07
3.79215	50.06
3.80882	50.05
3.82548	50.04
3.84215	50.04
3.85882	50.03
3.87548	50.04
3.89215	50.05
3.90882	50.05
3.92548	50.05
3.94215	50.06
3.95882	50.06
3.97548	50.07
3.99215	50.07

[Status Trace (Injection Unit Temperature)]
Interval(msec)	1000
# of Points	240
Start Time(min)	0.009
End Time(min)	3.992
Intensity Units	
Intensity Multiplier	1
R.Time (min)	Intensity
0.00882	99.98
0.02548	99.98
0.04215	99.98
0.05882	99.98
0.07548	99.98
0.09215	99.98
0.10882	99.98
0.12548	99.98
0.14215	99.98
0.15882	99.98
0.17548	99.98
0.19215	99.98
0.20882	99.98
0.22548	99.98
0.24215	99.98
0.25882	99.98
0.27548	99.98
0.29215	99.98
0.30882	99.99
0.32548	99.98
0.34215	99.98
0.35882	99.98
0.37548	99.98
0.39215	99.98
0.40882	99.99
0.42548	99.99
0.44215	99.99
0.45882	99.98
0.47548	99.98
0.49215	99.98
0.50882	99.99
0.52548	99.99
0.54215	99.98
0.55882	99.99
0.57548	99.99
0.59215	99.99
0.60882	99.98
0.62548	99.98
0.64215	99.98
0.65882	99.99
0.67548	99.98
0.69215	99.99
0.70882	99.98
0.72548	99.99
0.74215	99.98
0.75882	99.99
0.77548	99.99
0.79215	99.98
0.80882	99.98
0.82548	99.98
0.84215	99.98
0.85882	99.99
0.87548	99.99
0.89215	99.98
0.90882	99.98
0.92548	99.99
0.94215	99.98
0.95882	99.98
0.97548	99.98
0.99215	99.98
1.00882	99.98
1.02548	99.98
1.04215	99.98
1.05882	99.98
1.07548	99.98
1.09215	99.98
1.10882	99.98
1.12548	99.98
1.14215	99.98
1.15882	99.98
1.17548	99.99
1.19215	99.98
1.20882	99.98
1.22548	99.98
1.24215	99.98
1.25882	99.99
1.27548	99.98
1.29215	99.98
1.30882	99.99
1.32548	99.98
1.34215	99.98
1.35882	99.99
1.37548	99.99
1.39215	99.98
1.40882	99.98
1.42548	99.99
1.44215	99.98
1.45882	99.99
1.47548	99.98
1.49215	99.99
1.50882	99.98
1.52548	99.99
1.54215	99.99
1.55882	99.99
1.57548	99.99
1.59215	99.99
1.60882	99.99
1.62548	99.99
1.64215	99.99
1.65882	99.99
1.67548	99.99
1.69215	99.99
1.70882	99.99
1.72548	99.99
1.74215	99.99
1.75882	99.99
1.77548	99.99
1.79215	99.99
1.80882	99.98
1.82548	99.99
1.84215	99.98
1.85882	99.98
1.87548	99.98
1.89215	99.98
1.90882	99.98
1.92548	99.98
1.94215	99.99
1.95882	99.98
1.97548	99.98
1.99215	99.98
2.00882	99.98
2.02548	99.98
2.04215	99.98
2.05882	99.98
2.07548	99.98
2.09215	99.98
2.10882	99.97
2.12548	99.97
2.14215	99.97
2.15882	99.97
2.17548	99.97
2.19215	99.97
2.20882	99.97
2.22548	99.97
2.24215	99.97
2.25882	99.97
2.27548	99.96
2.29215	99.96
2.30882	99.97
2.32548	99.96
2.34215	99.97
2.35882	99.96
2.37548	99.96
2.39215	99.96
2.40882	99.96
2.42548	99.96
2.44215	99.96
2.45882	99.96
2.47548	99.96
2.49215	99.97
2.50882	99.97
2.52548	99.97
2.54215	99.97
2.55882	99.97
2.57548	99.97
2.59215	99.97
2.60882	99.97
2.62548	99.98
2.64215	99.98
2.65882	99.98
2.67548	99.98
2.69215	99.98
2.70882	99.99
2.72548	99.99
2.74215	99.99
2.75882	99.99
2.77548	99.99
2.79215	99.99
2.80882	99.99
2.82548	99.99
2.84215	100.00
2.85882	100.00
2.87548	100.00
2.89215	100.00
2.90882	100.00
2.92548	100.00
2.94215	100.01
2.95882	100.01
2.97548	100.01
2.99215	100.01
3.00882	100.01
3.02548	100.01
3.04215	100.02
3.05882	100.02
3.07548	100.02
3.09215	100.02
3.10882	100.01
3.12548	100.02
3.14215	100.02
3.15882	100.02
3.17548	100.02
3.19215	100.02
3.20882	100.03
3.22548	100.02
3.24215	100.03
3.25882	100.03
3.27548	100.03
3.29215	100.03
3.30882	100.03
3.32548	100.03
3.34215	100.03
3.35882	100.04
3.37548	100.04
3.39215	100.03
3.40882	100.04
3.42548	100.04
3.44215	100.04
3.45882	100.04
3.47548	100.04
3.49215	100.04
3.50882	100.04
3.52548	100.04
3.54215	100.04
3.55882	100.04
3.57548	100.04
3.59215	100.05
3.60882	100.05
3.62548	100.05
3.64215	100.05
3.65882	100.05
3.67548	100.05
3.69215	100.05
3.70882	100.05
3.72548	100.05
3.74215	100.05
3.75882	100.05
3.77548	100.05
3.79215	100.05
3.80882	100.04
3.82548	100.05
3.84215	100.05
3.85882	100.05
3.87548	100.05
3.89215	100.05
3.90882	100.05
3.92548	100.05
3.94215	100.05
3.95882	100.05
3.97548	100.04
3.99215	100.05

[Status Trace (Carrier Gas Pressure)]
Interval(msec)	1000
# of Points	240
Start Time(min)	0.009
End Time(min)	3.992
Intensity Units	
Intensity Multiplier	1
R.Time (min)	Intensity
0.00882	58.00
0.02548	55.22
0.04215	57.14
0.05882	59.31
0.07548	59.35
0.09215	58.07
0.10882	57.98
0.12548	58.01
0.14215	58.01
0.15882	58.00
0.17548	58.00
0.19215	58.00
0.20882	58.00
0.22548	58.00
0.24215	58.00
0.25882	58.00
0.27548	58.00
0.29215	58.00
0.30882	58.00
0.32548	58.00
0.34215	58.00
0.35882	58.00
0.37548	58.00
0.39215	58.00
0.40882	58.00
0.42548	58.00
0.44215	58.00
0.45882	58.00
0.47548	58.00
0.49215	58.00
0.50882	58.00
0.52548	58.00
0.54215	58.00
0.55882	58.00
0.57548	58.00
0.59215	58.00
0.60882	58.00
0.62548	58.00
0.64215	58.00
0.65882	58.00
0.67548	58.00
0.69215	58.00
0.70882	58.00
0.72548	58.00
0.74215	58.00
0.75882	58.00
0.77548	58.00
0.79215	58.00
0.80882	58.00
0.82548	58.00
0.84215	58.00
0.85882	58.00
0.87548	58.00
0.89215	58.00
0.90882	58.00
0.92548	58.00
0.94215	58.00
0.95882	58.00
0.97548	58.00
0.99215	58.00
1.00882	58.00
1.02548	58.00
1.04215	58.00
1.05882	58.00
1.07548	58.00
1.09215	58.00
1.10882	58.00
1.12548	58.00
1.14215	58.00
1.15882	58.00
1.17548	58.00
1.19215	58.00
1.20882	58.00
1.22548	58.00
1.24215	58.00
1.25882	58.00
1.27548	58.00
1.29215	58.00
1.30882	58.00
1.32548	58.00
1.34215	58.00
1.35882	58.00
1.37548	58.00
1.39215	58.00
1.40882	58.00
1.42548	58.00
1.44215	58.00
1.45882	58.00
1.47548	58.00
1.49215	58.00
1.50882	58.00
1.52548	58.00
1.54215	58.00
1.55882	58.00
1.57548	58.00
1.59215	58.00
1.60882	58.00
1.62548	58.00
1.64215	58.00
1.65882	58.00
1.67548	58.01
1.69215	58.01
1.70882	58.00
1.72548	58.00
1.74215	58.00
1.75882	58.00
1.77548	58.00
1.79215	58.00
1.80882	58.00
1.82548	58.00
1.84215	58.00
1.85882	58.00
1.87548	58.00
1.89215	58.00
1.90882	58.00
1.92548	58.00
1.94215	58.00
1.95882	58.00
1.97548	58.00
1.99215	58.00
2.00882	58.00
2.02548	58.00
2.04215	58.00
2.05882	58.00
2.07548	58.00
2.09215	58.00
2.10882	58.00
2.12548	58.00
2.14215	58.00
2.15882	58.00
2.17548	58.00
2.19215	58.00
2.20882	58.00
2.22548	58.00
2.24215	58.00
2.25882	58.00
2.27548	58.00
2.29215	58.00
2.30882	58.00
2.32548	58.00
2.34215	58.00
2.35882	58.00
2.37548	57.99
2.39215	57.99
2.40882	58.00
2.42548	58.00
2.44215	58.00
2.45882	58.00
2.47548	58.00
2.49215	58.00
2.50882	58.00
2.52548	57.99
2.54215	58.00
2.55882	58.00
2.57548	58.00
2.59215	58.00
2.60882	58.00
2.62548	58.00
2.64215	58.00
2.65882	58.00
2.67548	58.00
2.69215	58.00
2.70882	58.00
2.72548	58.00
2.74215	58.00
2.75882	58.00
2.77548	58.00
2.79215	58.00
2.80882	58.00
2.82548	58.00
2.84215	58.00
2.85882	58.00
2.87548	58.00
2.89215	58.00
2.90882	58.00
2.92548	58.00
2.94215	58.00
2.95882	58.00
2.97548	58.00
2.99215	58.00
3.00882	58.00
3.02548	58.00
3.04215	58.00
3.05882	58.00
3.07548	58.00
3.09215	58.00
3.10882	58.00
3.12548	58.00
3.14215	58.00
3.15882	58.00
3.17548	58.00
3.19215	58.00
3.20882	58.00
3.22548	58.00
3.24215	58.00
3.25882	58.00
3.27548	58.00
3.29215	58.00
3.30882	58.00
3.32548	58.00
3.34215	58.00
3.35882	58.00
3.37548	58.00
3.39215	58.00
3.40882	58.00
3.42548	58.00
3.44215	58.00
3.45882	58.00
3.47548	58.00
3.49215	58.00
3.50882	58.00
3.52548	58.00
3.54215	58.00
3.55882	58.00
3.57548	58.00
3.59215	58.00
3.60882	58.00
3.62548	58.00
3.64215	58.00
3.65882	58.00
3.67548	58.00
3.69215	58.00
3.70882	58.00
3.72548	58.00
3.74215	58.00
3.75882	58.00
3.77548	58.00
3.79215	58.00
3.80882	58.00
3.82548	58.00
3.84215	58.00
3.85882	58.00
3.87548	58.00
3.89215	58.00
3.90882	58.00
3.92548	58.00
3.94215	58.00
3.95882	58.00
3.97548	58.00
3.99215	58.00

[Status Trace (Carrier Gas Flow)]
Interval(msec)	1000
# of Points	240
Start Time(min)	0.009
End Time(min)	3.992
Intensity Units	
Intensity Multiplier	1
R.Time (min)	Intensity
0.00882	34.53
0.02548	34.53
0.04215	34.55
0.05882	34.56
0.07548	34.51
0.09215	34.51
0.10882	34.52
0.12548	34.52
0.14215	34.52
0.15882	34.51
0.17548	34.52
0.19215	34.52
0.20882	34.52
0.22548	34.52
0.24215	34.52
0.25882	34.52
0.27548	34.52
0.29215	34.52
0.30882	34.52
0.32548	34.52
0.34215	34.52
0.35882	34.52
0.37548	34.52
0.39215	34.52
0.40882	34.52
0.42548	34.52
0.44215	34.52
0.45882	34.52
0.47548	34.52
0.49215	34.52
0.50882	34.52
0.52548	34.52
0.54215	34.52
0.55882	34.52
0.57548	34.52
0.59215	34.52
0.60882	34.52
0.62548	34.52
0.64215	34.52
0.65882	34.52
0.67548	34.52
0.69215	34.52
0.70882	34.52
0.72548	34.52
0.74215	34.51
0.75882	34.52
0.77548	34.51
0.79215	34.53
0.80882	34.52
0.82548	34.52
0.84215	34.52
0.85882	34.53
0.87548	34.52
0.89215	34.52
0.90882	34.52
0.92548	34.52
0.94215	34.52
0.95882	34.52
0.97548	34.53
0.99215	34.52
1.00882	34.52
1.02548	34.52
1.04215	34.51
1.05882	34.52
1.07548	34.52
1.09215	34.52
1.10882	34.51
1.12548	34.52
1.14215	34.53
1.15882	34.52
1.17548	34.52
1.19215	34.52
1.20882	34.52
1.22548	34.52
1.24215	34.52
1.25882	34.52
1.27548	34.52
1.29215	34.52
1.30882	34.52
1.32548	34.52
1.34215	34.51
1.35882	34.51
1.37548	34.53
1.39215	34.52
1.40882	34.51
1.42548	34.52
1.44215	34.52
1.45882	34.52
1.47548	34.51
1.49215	34.52
1.50882	34.52
1.52548	34.51
1.54215	34.52
1.55882	34.52
1.57548	34.52
1.59215	34.52
1.60882	34.52
1.62548	34.53
1.64215	34.52
1.65882	34.51
1.67548	34.51
1.69215	34.52
1.70882	34.52
1.72548	34.52
1.74215	34.52
1.75882	34.53
1.77548	34.52
1.79215	34.52
1.80882	34.52
1.82548	34.52
1.84215	34.52
1.85882	34.52
1.87548	34.52
1.89215	34.52
1.90882	34.52
1.92548	34.52
1.94215	34.52
1.95882	34.51
1.97548	34.52
1.99215	34.52
2.00882	34.52
2.02548	34.52
2.04215	34.52
2.05882	34.52
2.07548	34.52
2.09215	34.52
2.10882	34.52
2.12548	34.52
2.14215	34.52
2.15882	34.51
2.17548	34.52
2.19215	34.52
2.20882	34.52
2.22548	34.52
2.24215	34.52
2.25882	34.52
2.27548	34.52
2.29215	34.52
2.30882	34.51
2.32548	34.52
2.34215	34.52
2.35882	34.52
2.37548	34.52
2.39215	34.52
2.40882	34.52
2.42548	34.52
2.44215	34.52
2.45882	34.52
2.47548	34.52
2.49215	34.52
2.50882	34.47
2.52548	34.52
2.54215	34.52
2.55882	34.52
2.57548	34.52
2.59215	34.52
2.60882	34.52
2.62548	34.52
2.64215	34.52
2.65882	34.52
2.67548	34.52
2.69215	34.52
2.70882	34.52
2.72548	34.52
2.74215	34.51
2.75882	34.53
2.77548	34.53
2.79215	34.52
2.80882	34.51
2.82548	34.52
2.84215	34.52
2.85882	34.51
2.87548	34.52
2.89215	34.52
2.90882	34.53
2.92548	34.52
2.94215	34.51
2.95882	34.51
2.97548	34.52
2.99215	34.52
3.00882	34.52
3.02548	34.51
3.04215	34.52
3.05882	34.53
3.07548	34.52
3.09215	34.51
3.10882	34.51
3.12548	34.52
3.14215	34.52
3.15882	34.52
3.17548	34.52
3.19215	34.51
3.20882	34.53
3.22548	34.52
3.24215	34.51
3.25882	34.52
3.27548	34.52
3.29215	34.51
3.30882	34.52
3.32548	34.52
3.34215	34.52
3.35882	34.52
3.37548	34.53
3.39215	34.52
3.40882	34.51
3.42548	34.52
3.44215	34.52
3.45882	34.52
3.47548	34.52
3.49215	34.52
3.50882	34.51
3.52548	34.52
3.54215	34.52
3.55882	34.52
3.57548	34.52
3.59215	34.52
3.60882	34.52
3.62548	34.52
3.64215	34.52
3.65882	34.52
3.67548	34.52
3.69215	34.52
3.70882	34.51
3.72548	34.51
3.74215	34.52
3.75882	34.51
3.77548	34.52
3.79215	34.52
3.80882	34.52
3.82548	34.52
3.84215	34.52
3.85882	34.52
3.87548	34.52
3.89215	34.52
3.90882	34.51
3.92548	34.52
3.94215	34.51
3.95882	34.52
3.97548	34.52
3.99215	34.52

[Status Trace (Column Flow)]
Interval(msec)	1000
# of Points	240
Start Time(min)	0.009
End Time(min)	3.992
Intensity Units	
Intensity Multiplier	1
R.Time (min)	Intensity
0.00882	5.49
0.02548	5.17
0.04215	5.40
0.05882	5.65
0.07548	5.65
0.09215	5.50
0.10882	5.49
0.12548	5.49
0.14215	5.49
0.15882	5.49
0.17548	5.49
0.19215	5.49
0.20882	5.49
0.22548	5.49
0.24215	5.49
0.25882	5.49
0.27548	5.49
0.29215	5.49
0.30882	5.49
0.32548	5.49
0.34215	5.49
0.35882	5.49
0.37548	5.49
0.39215	5.49
0.40882	5.49
0.42548	5.49
0.44215	5.49
0.45882	5.49
0.47548	5.49
0.49215	5.49
0.50882	5.49
0.52548	5.49
0.54215	5.49
0.55882	5.49
0.57548	5.49
0.59215	5.49
0.60882	5.49
0.62548	5.50
0.64215	5.50
0.65882	5.50
0.67548	5.50
0.69215	5.50
0.70882	5.50
0.72548	5.50
0.74215	5.50
0.75882	5.50
0.77548	5.50
0.79215	5.50
0.80882	5.50
0.82548	5.50
0.84215	5.50
0.85882	5.50
0.87548	5.50
0.89215	5.50
0.90882	5.50
0.92548	5.50
0.94215	5.50
0.95882	5.50
0.97548	5.50
0.99215	5.50
1.00882	5.50
1.02548	5.50
1.04215	5.50
1.05882	5.49
1.07548	5.50
1.09215	5.50
1.10882	5.50
1.12548	5.49
1.14215	5.50
1.15882	5.50
1.17548	5.50
1.19215	5.50
1.20882	5.50
1.22548	5.50
1.24215	5.50
1.25882	5.50
1.27548	5.50
1.29215	5.50
1.30882	5.50
1.32548	5.50
1.34215	5.50
1.35882	5.50
1.37548	5.50
1.39215	5.50
1.40882	5.50
1.42548	5.50
1.44215	5.50
1.45882	5.50
1.47548	5.50
1.49215	5.50
1.50882	5.50
1.52548	5.50
1.54215	5.50
1.55882	5.49
1.57548	5.49
1.59215	5.49
1.60882	5.49
1.62548	5.49
1.64215	5.48
1.65882	5.48
1.67548	5.47
1.69215	5.45
1.70882	5.44
1.72548	5.43
1.74215	5.42
1.75882	5.41
1.77548	5.40
1.79215	5.39
1.80882	5.38
1.82548	5.37
1.84215	5.36
1.85882	5.35
1.87548	5.34
1.89215	5.33
1.90882	5.32
1.92548	5.31
1.94215	5.30
1.95882	5.29
1.97548	5.28
1.99215	5.27
2.00882	5.26
2.02548	5.26
2.04215	5.25
2.05882	5.24
2.07548	5.23
2.09215	5.22
2.10882	5.21
2.12548	5.20
2.14215	5.19
2.15882	5.18
2.17548	5.17
2.19215	5.16
2.20882	5.15
2.22548	5.14
2.24215	5.13
2.25882	5.12
2.27548	5.11
2.29215	5.10
2.30882	5.10
2.32548	5.09
2.34215	5.08
2.35882	5.07
2.37548	5.06
2.39215	5.06
2.40882	5.06
2.42548	5.06
2.44215	5.06
2.45882	5.06
2.47548	5.06
2.49215	5.06
2.50882	5.06
2.52548	5.06
2.54215	5.06
2.55882	5.06
2.57548	5.06
2.59215	5.06
2.60882	5.06
2.62548	5.06
2.64215	5.06
2.65882	5.06
2.67548	5.06
2.69215	5.06
2.70882	5.06
2.72548	5.06
2.74215	5.06
2.75882	5.06
2.77548	5.06
2.79215	5.06
2.80882	5.06
2.82548	5.06
2.84215	5.06
2.85882	5.06
2.87548	5.06
2.89215	5.06
2.90882	5.06
2.92548	5.06
2.94215	5.06
2.95882	5.06
2.97548	5.05
2.99215	5.05
3.00882	5.05
3.02548	5.05
3.04215	5.05
3.05882	5.05
3.07548	5.05
3.09215	5.05
3.10882	5.05
3.12548	5.05
3.14215	5.05
3.15882	5.05
3.17548	5.05
3.19215	5.05
3.20882	5.05
3.22548	5.05
3.24215	5.05
3.25882	5.05
3.27548	5.05
3.29215	5.05
3.30882	5.05
3.32548	5.05
3.34215	5.05
3.35882	5.05
3.37548	5.05
3.39215	5.05
3.40882	5.05
3.42548	5.05
3.44215	5.05
3.45882	5.05
3.47548	5.05
3.49215	5.05
3.50882	5.05
3.52548	5.05
3.54215	5.05
3.55882	5.05
3.57548	5.05
3.59215	5.05
3.60882	5.05
3.62548	5.05
3.64215	5.05
3.65882	5.05
3.67548	5.05
3.69215	5.05
3.70882	5.05
3.72548	5.05
3.74215	5.05
3.75882	5.05
3.77548	5.05
3.79215	5.05
3.80882	5.05
3.82548	5.05
3.84215	5.05
3.85882	5.05
3.87548	5.05
3.89215	5.05
3.90882	5.05
3.92548	5.05
3.94215	5.05
3.95882	5.05
3.97548	5.05
3.99215	5.05

[Status Trace (Linear Velocity)]
Interval(msec)	1000
# of Points	240
Start Time(min)	0.009
End Time(min)	3.992
Intensity Units	
Intensity Multiplier	1
R.Time (min)	Intensity
0.00882	39.01
0.02548	37.19
0.04215	38.45
0.05882	39.87
0.07548	39.89
0.09215	39.05
0.10882	38.99
0.12548	39.01
0.14215	39.01
0.15882	39.01
0.17548	39.01
0.19215	39.01
0.20882	39.01
0.22548	39.01
0.24215	39.01
0.25882	39.00
0.27548	39.00
0.29215	39.00
0.30882	39.01
0.32548	39.01
0.34215	39.01
0.35882	39.00
0.37548	39.01
0.39215	39.01
0.40882	39.01
0.42548	39.01
0.44215	39.01
0.45882	39.01
0.47548	39.01
0.49215	39.01
0.50882	39.01
0.52548	39.01
0.54215	39.01
0.55882	39.01
0.57548	39.01
0.59215	39.01
0.60882	39.01
0.62548	39.01
0.64215	39.01
0.65882	39.01
0.67548	39.01
0.69215	39.01
0.70882	39.01
0.72548	39.01
0.74215	39.01
0.75882	39.01
0.77548	39.01
0.79215	39.01
0.80882	39.01
0.82548	39.01
0.84215	39.01
0.85882	39.01
0.87548	39.01
0.89215	39.01
0.90882	39.01
0.92548	39.01
0.94215	39.01
0.95882	39.01
0.97548	39.01
0.99215	39.01
1.00882	39.01
1.02548	39.01
1.04215	39.01
1.05882	39.01
1.07548	39.01
1.09215	39.01
1.10882	39.01
1.12548	39.01
1.14215	39.01
1.15882	39.01
1.17548	39.01
1.19215	39.01
1.20882	39.01
1.22548	39.01
1.24215	39.01
1.25882	39.01
1.27548	39.01
1.29215	39.01
1.30882	39.01
1.32548	39.01
1.34215	39.01
1.35882	39.01
1.37548	39.01
1.39215	39.01
1.40882	39.01
1.42548	39.01
1.44215	39.01
1.45882	39.01
1.47548	39.01
1.49215	39.01
1.50882	39.01
1.52548	39.01
1.54215	39.01
1.55882	39.01
1.57548	39.01
1.59215	39.01
1.60882	39.00
1.62548	38.99
1.64215	38.98
1.65882	38.95
1.67548	38.92
1.69215	38.89
1.70882	38.85
1.72548	38.82
1.74215	38.79
1.75882	38.76
1.77548	38.73
1.79215	38.69
1.80882	38.66
1.82548	38.63
1.84215	38.60
1.85882	38.57
1.87548	38.54
1.89215	38.51
1.90882	38.48
1.92548	38.45
1.94215	38.42
1.95882	38.39
1.97548	38.36
1.99215	38.32
2.00882	38.30
2.02548	38.27
2.04215	38.24
2.05882	38.21
2.07548	38.18
2.09215	38.15
2.10882	38.12
2.12548	38.09
2.14215	38.06
2.15882	38.03
2.17548	38.00
2.19215	37.97
2.20882	37.94
2.22548	37.91
2.24215	37.88
2.25882	37.85
2.27548	37.82
2.29215	37.79
2.30882	37.76
2.32548	37.73
2.34215	37.70
2.35882	37.67
2.37548	37.66
2.39215	37.65
2.40882	37.65
2.42548	37.65
2.44215	37.65
2.45882	37.65
2.47548	37.65
2.49215	37.65
2.50882	37.65
2.52548	37.64
2.54215	37.65
2.55882	37.65
2.57548	37.65
2.59215	37.65
2.60882	37.64
2.62548	37.64
2.64215	37.64
2.65882	37.64
2.67548	37.64
2.69215	37.64
2.70882	37.64
2.72548	37.64
2.74215	37.64
2.75882	37.64
2.77548	37.64
2.79215	37.64
2.80882	37.64
2.82548	37.64
2.84215	37.64
2.85882	37.64
2.87548	37.64
2.89215	37.63
2.90882	37.63
2.92548	37.63
2.94215	37.63
2.95882	37.63
2.97548	37.63
2.99215	37.63
3.00882	37.63
3.02548	37.62
3.04215	37.62
3.05882	37.62
3.07548	37.62
3.09215	37.62
3.10882	37.62
3.12548	37.62
3.14215	37.62
3.15882	37.62
3.17548	37.62
3.19215	37.62
3.20882	37.62
3.22548	37.62
3.24215	37.62
3.25882	37.62
3.27548	37.62
3.29215	37.62
3.30882	37.62
3.32548	37.62
3.34215	37.62
3.35882	37.62
3.37548	37.62
3.39215	37.62
3.40882	37.62
3.42548	37.62
3.44215	37.62
3.45882	37.62
3.47548	37.62
3.49215	37.62
3.50882	37.62
3.52548	37.62
3.54215	37.62
3.55882	37.62
3.57548	37.62
3.59215	37.62
3.60882	37.62
3.62548	37.62
3.64215	37.62
3.65882	37.62
3.67548	37.62
3.69215	37.62
3.70882	37.62
3.72548	37.62
3.74215	37.62
3.75882	37.62
3.77548	37.62
3.79215	37.62
3.80882	37.62
3.82548	37.62
3.84215	37.62
3.85882	37.62
3.87548	37.62
3.89215	37.62
3.90882	37.62
3.92548	37.62
3.94215	37.62
3.95882	37.62
3.97548	37.62
3.99215	37.62

