[Header]
Application Name	LabSolutions
Version	5.110
Data File Name	C:\Users\User\Desktop\Junior\UIC Prairie Sampling\6.15.23\06152023_021.gcd
Output Date	6/26/2023
Output Time	12:05:08 PM

[File Information]
Type	Data File
Generated	6/23/2023 1:15:33 PM
Generated by	System Administrator
Modified	6/23/2023 1:23:15 PM
Modified by	System Administrator

[Sample Information]
Operator Name	System Administrator
Acquired	6/23/2023 1:19:14 PM
Sample Type	0:Unknown
Level	0
Sample Name	021
Sample ID	021
ISTD Amount1	1
ISTD Amount2	1
ISTD Amount3	1
ISTD Amount4	1
ISTD Amount5	1
ISTD Amount6	1
ISTD Amount7	1
ISTD Amount8	1
ISTD Amount9	1
ISTD Amount10	1
ISTD Amount11	1
ISTD Amount12	1
ISTD Amount13	1
ISTD Amount14	1
ISTD Amount15	1
ISTD Amount16	1
ISTD Amount17	1
ISTD Amount18	1
ISTD Amount19	1
ISTD Amount20	1
ISTD Amount21	1
ISTD Amount22	1
ISTD Amount23	1
ISTD Amount24	1
ISTD Amount25	1
ISTD Amount26	1
ISTD Amount27	1
ISTD Amount28	1
ISTD Amount29	1
ISTD Amount30	1
ISTD Amount31	1
ISTD Amount32	1
Sample Amount	1
Dilution Factor	1
Vial#	20
Injection Volume	1
Injection Count	1
Bar Code	

[Original Files]
Data File	C:\Users\User\Desktop\Junior\UIC Prairie Sampling\6.15.23\06152023_021.gcd
Method File	C:\LabSolutions\Data\GHG_4min_2022\ghg3_togas_w_acet_4 min_new_int.gcm
Batch File	C:\LabSolutions\Data\AutoSamplerTesting\06152023.gcb
Report Format File	c:\LabSolutions\System\DEFAULT.lsr

[File Description]


[Configuration]
Instrument Name	C0B7VH3-Instrument1
Instrument #	1
Line #	1
# of Detectors	3
Detector ID	DET#1	DET#2	DET#3
Detector Name	FID	PTCD	ECD
# of Channels	1	1	1

[Peak Table(Ch1)]
# of Peaks	3
Peak#	R.Time	I.Time	F.Time	Area	Height	A/H	Conc.	Mark	ID#	Name	k'	Plate #	Plate Ht.	Tailing	Resolution	Sep.Factor	Area Ratio	Height Ratio	Conc. %	Norm Conc.
1	1.472	1.432	1.531	7715	3849	2.004	0.000	   	1	CO	0.000	10010	14.985	1.257	0.000	0.000	0	0	0.000	0.000
2	1.560	1.531	1.626	4308	2192	1.966	21.002	 V 	2	CH4	0.060	11568	12.967	1.258	1.506	0.000	0	0	9.332	9.332
3	1.989	1.945	2.381	1058792	508537	2.082	204.049	   	3	CO2	0.351	17524	8.560	1.291	7.264	5.875	0	0	90.668	90.668

[Peak Table(Ch2)]
# of Peaks	0

[Peak Table(Ch3)]
# of Peaks	4
Peak#	R.Time	I.Time	F.Time	Area	Height	A/H	Conc.	Mark	ID#	Name	k'	Plate #	Plate Ht.	Tailing	Resolution	Sep.Factor	Area Ratio	Height Ratio	Conc. %	Norm Conc.
1	2.502	2.400	2.543	3806	760	5.011	0.000	   			0.000	1563	95.999	0.000	0.000	0.000	0	0	0.000	0.000
2	2.572	2.543	2.664	4237	700	6.055	0.000	 V 			0.028	389	385.423	0.000	0.180	0.000	0	0	0.000	0.000
3	2.726	2.664	2.829	4478	529	8.471	0.000	 V 			0.089	150	997.588	0.000	0.218	3.211	0	0	0.000	0.000
4	2.887	2.829	3.349	21432	4900	4.374	0.317	 V 	1	N2O	0.154	12742	11.773	0.000	0.325	1.721	0	0	100.000	100.000

[Compound Results(Ch1)]
# of IDs	6
ID#	Name	R.Time	Area	Height	Conc.	Curve	3rd	2nd	1st	Constant	Area Ratio	Height Ratio	Conc. %	Norm Conc.
1	CO	1.472	7715	3849	0.000	Linear	0.000000e+00	0.000000e+00	0.000000e+00	0.000000e+00	0	0	0.000	0.000
2	CH4	1.560	4308	2192	21.002	Linear	0.000000e+00	0.000000e+00	2.051179e+002	0.000000e+00	0	0	9.332	9.332
3	CO2	1.989	1058792	508537	204.049	Linear	0.000000e+00	0.000000e+00	5.188919e+003	0.000000e+00	0	0	90.668	90.668
4	Ethylene	0.000	0	0	0.000	Linear	0.000000e+00	0.000000e+00	0.000000e+00	0.000000e+00	0	0	0.000	0.000
5	Acetylene	0.000	0	0	0.000	Linear	0.000000e+00	0.000000e+00	0.000000e+00	0.000000e+00	0	0	0.000	0.000
6	Ethane	0.000	0	0	0.000	Linear	0.000000e+00	0.000000e+00	0.000000e+00	0.000000e+00	0	0	0.000	0.000

[Compound Results(Ch2)]
# of IDs	5
ID#	Name	R.Time	Area	Height	Conc.	Curve	3rd	2nd	1st	Constant	Area Ratio	Height Ratio	Conc. %	Norm Conc.
1	Hydrogen	0.000	0	0	0.000	Linear	0.000000e+00	0.000000e+00	0.000000e+00	0.000000e+00	0	0	0.000	0.000
2	Oxygen	0.000	0	0	0.000	Linear	0.000000e+00	0.000000e+00	0.000000e+00	0.000000e+00	0	0	0.000	0.000
3	Nitrogen	0.000	0	0	0.000	Linear	0.000000e+00	0.000000e+00	0.000000e+00	0.000000e+00	0	0	0.000	0.000
4	Methane	0.000	0	0	0.000	Linear	0.000000e+00	0.000000e+00	0.000000e+00	0.000000e+00	0	0	0.000	0.000
5	Carbon Monoxide	0.000	0	0	0.000	Linear	0.000000e+00	0.000000e+00	0.000000e+00	0.000000e+00	0	0	0.000	0.000

[Compound Results(Ch3)]
# of IDs	2
ID#	Name	R.Time	Area	Height	Conc.	Curve	3rd	2nd	1st	Constant	Area Ratio	Height Ratio	Conc. %	Norm Conc.
1	N2O	2.887	21432	4900	0.317	Linear	0.000000e+00	0.000000e+00	6.759880e+004	0.000000e+00	0	0	100.000	100.000
2	SF6	0.000	0	0	0.000	Linear	0.000000e+00	0.000000e+00	0.000000e+00	0.000000e+00	0	0	0.000	0.000

[Group Results(Ch1)]
# of Groups	0

[Group Results(Ch2)]
# of Groups	0

[Group Results(Ch3)]
# of Groups	0

[Chromatogram (Ch1)]
Interval(msec)	220
# of Points	1091
Start Time(min)	0.002
End Time(min)	3.998
R.Time (min)	Intensity
0.00167	-11
0.00533	-16
0.00900	-17
0.01267	-14
0.01633	-6
0.02000	2
0.02367	7
0.02733	8
0.03100	7
0.03467	6
0.03833	2
0.04200	-3
0.04567	-9
0.04933	-14
0.05300	-16
0.05667	-12
0.06033	-4
0.06400	3
0.06767	6
0.07133	3
0.07500	-5
0.07867	-11
0.08233	-11
0.08600	-10
0.08967	-11
0.09333	-11
0.09700	-13
0.10067	-18
0.10433	-24
0.10800	-28
0.11167	-29
0.11533	-27
0.11900	-22
0.12267	-14
0.12633	-9
0.13000	-5
0.13367	-2
0.13733	-1
0.14100	-2
0.14467	-3
0.14833	-2
0.15200	-2
0.15567	-2
0.15933	-2
0.16300	-3
0.16667	-6
0.17033	-10
0.17400	-12
0.17767	-12
0.18133	-14
0.18500	-15
0.18867	-15
0.19233	-13
0.19600	-14
0.19967	-20
0.20333	-26
0.20700	-28
0.21067	-24
0.21433	-21
0.21800	-18
0.22167	-17
0.22533	-13
0.22900	-5
0.23267	8
0.23633	18
0.24000	18
0.24367	7
0.24733	-9
0.25100	-21
0.25467	-24
0.25833	-20
0.26200	-19
0.26567	-22
0.26933	-24
0.27300	-24
0.27667	-23
0.28033	-24
0.28400	-30
0.28767	-41
0.29133	-52
0.29500	-61
0.29867	-67
0.30233	-68
0.30600	-65
0.30967	-61
0.31333	-56
0.31700	-50
0.32067	-44
0.32433	-37
0.32800	-26
0.33167	-14
0.33533	1
0.33900	15
0.34267	21
0.34633	17
0.35000	5
0.35367	-11
0.35733	-21
0.36100	-22
0.36467	-20
0.36833	-22
0.37200	-29
0.37567	-39
0.37933	-49
0.38300	-61
0.38667	-70
0.39033	-73
0.39400	-69
0.39767	-63
0.40133	-60
0.40500	-62
0.40867	-62
0.41233	-59
0.41600	-56
0.41967	-51
0.42333	-46
0.42700	-38
0.43067	-28
0.43433	-18
0.43800	-11
0.44167	-7
0.44533	-3
0.44900	-7
0.45267	-19
0.45633	-35
0.46000	-50
0.46367	-58
0.46733	-55
0.47100	-45
0.47467	-33
0.47833	-28
0.48200	-32
0.48567	-39
0.48933	-42
0.49300	-39
0.49667	-35
0.50033	-31
0.50400	-31
0.50767	-32
0.51133	-31
0.51500	-26
0.51867	-24
0.52233	-25
0.52600	-27
0.52967	-30
0.53333	-35
0.53700	-40
0.54067	-44
0.54433	-45
0.54800	-42
0.55167	-35
0.55533	-30
0.55900	-27
0.56267	-27
0.56633	-28
0.57000	-31
0.57367	-34
0.57733	-34
0.58100	-31
0.58467	-29
0.58833	-29
0.59200	-26
0.59567	-20
0.59933	-13
0.60300	-10
0.60667	-10
0.61033	-13
0.61400	-16
0.61767	-15
0.62133	-9
0.62500	-4
0.62867	-3
0.63233	-5
0.63600	-7
0.63967	-8
0.64333	-9
0.64700	-13
0.65067	-20
0.65433	-25
0.65800	-28
0.66167	-29
0.66533	-32
0.66900	-38
0.67267	-47
0.67633	-53
0.68000	-55
0.68367	-59
0.68733	-60
0.69100	-59
0.69467	-59
0.69833	-61
0.70200	-59
0.70567	-52
0.70933	-47
0.71300	-45
0.71667	-42
0.72033	-37
0.72400	-35
0.72767	-37
0.73133	-40
0.73500	-41
0.73867	-44
0.74233	-45
0.74600	-44
0.74967	-43
0.75333	-39
0.75700	-38
0.76067	-39
0.76433	-39
0.76800	-35
0.77167	-29
0.77533	-22
0.77900	-17
0.78267	-17
0.78633	-21
0.79000	-27
0.79367	-32
0.79733	-36
0.80100	-37
0.80467	-36
0.80833	-32
0.81200	-27
0.81567	-19
0.81933	-14
0.82300	-15
0.82667	-27
0.83033	-42
0.83400	-57
0.83767	-67
0.84133	-72
0.84500	-75
0.84867	-75
0.85233	-74
0.85600	-75
0.85967	-74
0.86333	-70
0.86700	-65
0.87067	-57
0.87433	-48
0.87800	-40
0.88167	-32
0.88533	-29
0.88900	-30
0.89267	-34
0.89633	-37
0.90000	-41
0.90367	-47
0.90733	-54
0.91100	-58
0.91467	-60
0.91833	-65
0.92200	-69
0.92567	-70
0.92933	-68
0.93300	-65
0.93667	-61
0.94033	-57
0.94400	-52
0.94767	-47
0.95133	-42
0.95500	-38
0.95867	-37
0.96233	-37
0.96600	-39
0.96967	-39
0.97333	-36
0.97700	-34
0.98067	-35
0.98433	-36
0.98800	-38
0.99167	-42
0.99533	-46
0.99900	-48
1.00267	-50
1.00633	-51
1.01000	-52
1.01367	-51
1.01733	-52
1.02100	-55
1.02467	-58
1.02833	-63
1.03200	-68
1.03567	-71
1.03933	-68
1.04300	-62
1.04667	-56
1.05033	-48
1.05400	-41
1.05767	-41
1.06133	-46
1.06500	-51
1.06867	-56
1.07233	-61
1.07600	-63
1.07967	-61
1.08333	-57
1.08700	-54
1.09067	-50
1.09433	-48
1.09800	-50
1.10167	-55
1.10533	-59
1.10900	-62
1.11267	-61
1.11633	-59
1.12000	-56
1.12367	-53
1.12733	-55
1.13100	-59
1.13467	-65
1.13833	-70
1.14200	-73
1.14567	-75
1.14933	-74
1.15300	-71
1.15667	-66
1.16033	-62
1.16400	-60
1.16767	-61
1.17133	-62
1.17500	-63
1.17867	-68
1.18233	-74
1.18600	-80
1.18967	-78
1.19333	-70
1.19700	-64
1.20067	-58
1.20433	-53
1.20800	-53
1.21167	-53
1.21533	-56
1.21900	-58
1.22267	-58
1.22633	-62
1.23000	-67
1.23367	-72
1.23733	-74
1.24100	-76
1.24467	-79
1.24833	-77
1.25200	-75
1.25567	-77
1.25933	-79
1.26300	-77
1.26667	-71
1.27033	-64
1.27400	-58
1.27767	-55
1.28133	-53
1.28500	-56
1.28867	-65
1.29233	-75
1.29600	-85
1.29967	-90
1.30333	-92
1.30700	-92
1.31067	-92
1.31433	-91
1.31800	-89
1.32167	-86
1.32533	-84
1.32900	-84
1.33267	-88
1.33633	-91
1.34000	-86
1.34367	-75
1.34733	-64
1.35100	-56
1.35467	-50
1.35833	-47
1.36200	-43
1.36567	-45
1.36933	-50
1.37300	-53
1.37667	-53
1.38033	-57
1.38400	-65
1.38767	-78
1.39133	-94
1.39500	-107
1.39867	-115
1.40233	-120
1.40600	-119
1.40967	-114
1.41333	-109
1.41700	-112
1.42067	-116
1.42433	-115
1.42800	-110
1.43167	-102
1.43533	-88
1.43900	-73
1.44267	-39
1.44633	134
1.45000	591
1.45367	1297
1.45733	2079
1.46100	2784
1.46467	3332
1.46833	3673
1.47200	3756
1.47567	3554
1.47933	3106
1.48300	2523
1.48667	1926
1.49033	1400
1.49400	978
1.49767	664
1.50133	438
1.50500	281
1.50867	174
1.51233	103
1.51600	56
1.51967	22
1.52333	-2
1.52700	-18
1.53067	-19
1.53433	24
1.53800	167
1.54167	459
1.54533	868
1.54900	1300
1.55267	1679
1.55633	1961
1.56000	2115
1.56367	2111
1.56733	1935
1.57100	1627
1.57467	1265
1.57833	919
1.58200	627
1.58567	403
1.58933	243
1.59300	135
1.59667	66
1.60033	21
1.60400	-8
1.60767	-24
1.61133	-30
1.61500	-35
1.61867	-44
1.62233	-54
1.62600	-63
1.62967	-71
1.63333	-74
1.63700	-76
1.64067	-77
1.64433	-77
1.64800	-79
1.65167	-81
1.65533	-82
1.65900	-80
1.66267	-80
1.66633	-87
1.67000	-95
1.67367	-99
1.67733	-95
1.68100	-91
1.68467	-92
1.68833	-96
1.69200	-98
1.69567	-96
1.69933	-92
1.70300	-88
1.70667	-88
1.71033	-90
1.71400	-97
1.71767	-102
1.72133	-103
1.72500	-103
1.72867	-102
1.73233	-97
1.73600	-90
1.73967	-83
1.74333	-79
1.74700	-78
1.75067	-81
1.75433	-85
1.75800	-87
1.76167	-89
1.76533	-89
1.76900	-86
1.77267	-85
1.77633	-88
1.78000	-93
1.78367	-96
1.78733	-99
1.79100	-101
1.79467	-101
1.79833	-96
1.80200	-92
1.80567	-91
1.80933	-91
1.81300	-90
1.81667	-89
1.82033	-88
1.82400	-86
1.82767	-79
1.83133	-72
1.83500	-68
1.83867	-68
1.84233	-70
1.84600	-76
1.84967	-80
1.85333	-83
1.85700	-87
1.86067	-92
1.86433	-94
1.86800	-96
1.87167	-98
1.87533	-99
1.87900	-99
1.88267	-98
1.88633	-101
1.89000	-103
1.89367	-103
1.89733	-100
1.90100	-96
1.90467	-93
1.90833	-91
1.91200	-88
1.91567	-89
1.91933	-91
1.92300	-93
1.92667	-91
1.93033	-92
1.93400	-97
1.93767	-103
1.94133	-109
1.94500	-100
1.94867	-12
1.95233	510
1.95600	2901
1.95967	11151
1.96333	32827
1.96700	77021
1.97067	148074
1.97433	239829
1.97800	337253
1.98167	423237
1.98533	483434
1.98900	508482
1.99267	495486
1.99633	449137
2.00000	380672
2.00367	304073
2.00733	231314
2.01100	169584
2.01467	121268
2.01833	85543
2.02200	60143
2.02567	42541
2.02933	30526
2.03300	22378
2.03667	16848
2.04033	13070
2.04400	10453
2.04767	8603
2.05133	7263
2.05500	6270
2.05867	5518
2.06233	4933
2.06600	4464
2.06967	4081
2.07333	3763
2.07700	3490
2.08067	3248
2.08433	3033
2.08800	2846
2.09167	2679
2.09533	2527
2.09900	2382
2.10267	2248
2.10633	2128
2.11000	2023
2.11367	1929
2.11733	1847
2.12100	1776
2.12467	1711
2.12833	1651
2.13200	1594
2.13567	1538
2.13933	1483
2.14300	1433
2.14667	1385
2.15033	1335
2.15400	1282
2.15767	1230
2.16133	1183
2.16500	1141
2.16867	1107
2.17233	1074
2.17600	1043
2.17967	1015
2.18333	988
2.18700	965
2.19067	940
2.19433	914
2.19800	890
2.20167	868
2.20533	847
2.20900	826
2.21267	802
2.21633	781
2.22000	761
2.22367	743
2.22733	726
2.23100	710
2.23467	695
2.23833	681
2.24200	668
2.24567	656
2.24933	645
2.25300	640
2.25667	637
2.26033	629
2.26400	616
2.26767	596
2.27133	577
2.27500	562
2.27867	552
2.28233	543
2.28600	531
2.28967	510
2.29333	490
2.29700	477
2.30067	464
2.30433	452
2.30800	444
2.31167	441
2.31533	438
2.31900	436
2.32267	429
2.32633	418
2.33000	406
2.33367	393
2.33733	382
2.34100	372
2.34467	365
2.34833	361
2.35200	358
2.35567	358
2.35933	359
2.36300	359
2.36667	356
2.37033	354
2.37400	353
2.37767	350
2.38133	344
2.38500	339
2.38867	333
2.39233	330
2.39600	328
2.39967	326
2.40333	322
2.40700	316
2.41067	307
2.41433	293
2.41800	281
2.42167	272
2.42533	261
2.42900	251
2.43267	244
2.43633	242
2.44000	244
2.44367	248
2.44733	252
2.45100	251
2.45467	247
2.45833	244
2.46200	243
2.46567	244
2.46933	246
2.47300	244
2.47667	237
2.48033	227
2.48400	214
2.48767	200
2.49133	188
2.49500	183
2.49867	182
2.50233	185
2.50600	189
2.50967	189
2.51333	186
2.51700	183
2.52067	183
2.52433	183
2.52800	183
2.53167	182
2.53533	181
2.53900	177
2.54267	172
2.54633	172
2.55000	173
2.55367	172
2.55733	168
2.56100	163
2.56467	160
2.56833	160
2.57200	160
2.57567	158
2.57933	151
2.58300	145
2.58667	143
2.59033	146
2.59400	151
2.59767	156
2.60133	159
2.60500	160
2.60867	160
2.61233	158
2.61600	151
2.61967	142
2.62333	139
2.62700	141
2.63067	142
2.63433	136
2.63800	123
2.64167	109
2.64533	93
2.64900	78
2.65267	69
2.65633	66
2.66000	68
2.66367	76
2.66733	89
2.67100	106
2.67467	121
2.67833	126
2.68200	121
2.68567	117
2.68933	114
2.69300	106
2.69667	95
2.70033	84
2.70400	77
2.70767	75
2.71133	75
2.71500	76
2.71867	79
2.72233	82
2.72600	80
2.72967	77
2.73333	77
2.73700	79
2.74067	79
2.74433	73
2.74800	65
2.75167	58
2.75533	53
2.75900	49
2.76267	51
2.76633	58
2.77000	66
2.77367	71
2.77733	71
2.78100	68
2.78467	64
2.78833	60
2.79200	56
2.79567	52
2.79933	50
2.80300	51
2.80667	56
2.81033	64
2.81400	70
2.81767	72
2.82133	70
2.82500	65
2.82867	59
2.83233	57
2.83600	61
2.83967	63
2.84333	62
2.84700	61
2.85067	64
2.85433	64
2.85800	61
2.86167	56
2.86533	52
2.86900	47
2.87267	44
2.87633	42
2.88000	43
2.88367	46
2.88733	50
2.89100	56
2.89467	62
2.89833	67
2.90200	68
2.90567	65
2.90933	59
2.91300	53
2.91667	48
2.92033	47
2.92400	49
2.92767	54
2.93133	61
2.93500	64
2.93867	64
2.94233	64
2.94600	64
2.94967	66
2.95333	71
2.95700	73
2.96067	69
2.96433	57
2.96800	47
2.97167	43
2.97533	48
2.97900	57
2.98267	64
2.98633	69
2.99000	68
2.99367	66
2.99733	65
3.00100	65
3.00467	65
3.00833	58
3.01200	44
3.01567	27
3.01933	14
3.02300	2
3.02667	-7
3.03033	-12
3.03400	-14
3.03767	-12
3.04133	-9
3.04500	-6
3.04867	-1
3.05233	5
3.05600	7
3.05967	3
3.06333	-2
3.06700	-2
3.07067	3
3.07433	7
3.07800	11
3.08167	17
3.08533	22
3.08900	25
3.09267	29
3.09633	35
3.10000	41
3.10367	45
3.10733	45
3.11100	43
3.11467	39
3.11833	34
3.12200	29
3.12567	24
3.12933	17
3.13300	10
3.13667	9
3.14033	10
3.14400	10
3.14767	9
3.15133	11
3.15500	19
3.15867	29
3.16233	38
3.16600	40
3.16967	35
3.17333	26
3.17700	21
3.18067	23
3.18433	32
3.18800	40
3.19167	41
3.19533	34
3.19900	25
3.20267	21
3.20633	19
3.21000	14
3.21367	5
3.21733	-2
3.22100	-7
3.22467	-6
3.22833	2
3.23200	12
3.23567	20
3.23933	22
3.24300	24
3.24667	27
3.25033	30
3.25400	31
3.25767	29
3.26133	27
3.26500	22
3.26867	17
3.27233	13
3.27600	12
3.27967	13
3.28333	15
3.28700	15
3.29067	10
3.29433	5
3.29800	4
3.30167	5
3.30533	7
3.30900	9
3.31267	10
3.31633	14
3.32000	24
3.32367	41
3.32733	60
3.33100	73
3.33467	77
3.33833	70
3.34200	53
3.34567	33
3.34933	17
3.35300	7
3.35667	0
3.36033	-7
3.36400	-15
3.36767	-18
3.37133	-15
3.37500	-10
3.37867	-5
3.38233	2
3.38600	8
3.38967	9
3.39333	6
3.39700	5
3.40067	4
3.40433	1
3.40800	-0
3.41167	2
3.41533	5
3.41900	10
3.42267	14
3.42633	15
3.43000	16
3.43367	16
3.43733	17
3.44100	17
3.44467	19
3.44833	22
3.45200	23
3.45567	24
3.45933	24
3.46300	18
3.46667	12
3.47033	9
3.47400	5
3.47767	3
3.48133	3
3.48500	5
3.48867	8
3.49233	8
3.49600	8
3.49967	8
3.50333	8
3.50700	7
3.51067	10
3.51433	17
3.51800	26
3.52167	30
3.52533	26
3.52900	19
3.53267	8
3.53633	-0
3.54000	-3
3.54367	-1
3.54733	2
3.55100	3
3.55467	4
3.55833	6
3.56200	7
3.56567	7
3.56933	5
3.57300	1
3.57667	-4
3.58033	-11
3.58400	-19
3.58767	-24
3.59133	-27
3.59500	-28
3.59867	-28
3.60233	-27
3.60600	-26
3.60967	-24
3.61333	-25
3.61700	-26
3.62067	-24
3.62433	-15
3.62800	-3
3.63167	8
3.63533	18
3.63900	23
3.64267	23
3.64633	18
3.65000	10
3.65367	-3
3.65733	-16
3.66100	-26
3.66467	-30
3.66833	-29
3.67200	-29
3.67567	-28
3.67933	-25
3.68300	-20
3.68667	-16
3.69033	-12
3.69400	-6
3.69767	-2
3.70133	-1
3.70500	-1
3.70867	2
3.71233	6
3.71600	8
3.71967	8
3.72333	3
3.72700	-7
3.73067	-18
3.73433	-24
3.73800	-25
3.74167	-25
3.74533	-21
3.74900	-15
3.75267	-10
3.75633	-7
3.76000	-5
3.76367	-2
3.76733	1
3.77100	-1
3.77467	-3
3.77833	-4
3.78200	-6
3.78567	-6
3.78933	-5
3.79300	-5
3.79667	-5
3.80033	-3
3.80400	-2
3.80767	-3
3.81133	-7
3.81500	-13
3.81867	-17
3.82233	-20
3.82600	-22
3.82967	-25
3.83333	-27
3.83700	-28
3.84067	-27
3.84433	-24
3.84800	-18
3.85167	-15
3.85533	-15
3.85900	-19
3.86267	-23
3.86633	-26
3.87000	-29
3.87367	-30
3.87733	-32
3.88100	-32
3.88467	-30
3.88833	-28
3.89200	-26
3.89567	-24
3.89933	-22
3.90300	-21
3.90667	-21
3.91033	-24
3.91400	-28
3.91767	-33
3.92133	-41
3.92500	-48
3.92867	-53
3.93233	-54
3.93600	-55
3.93967	-57
3.94333	-55
3.94700	-49
3.95067	-40
3.95433	-33
3.95800	-27
3.96167	-22
3.96533	-22
3.96900	-30
3.97267	-40
3.97633	-45
3.98000	-42
3.98367	-34
3.98733	-32
3.99100	-32
3.99467	-33
3.99833	-35

[Chromatogram (Ch2)]
Interval(msec)	220
# of Points	1091
Start Time(min)	0.002
End Time(min)	3.998
R.Time (min)	Intensity
0.00167	0
0.00533	-0
0.00900	0
0.01267	0
0.01633	0
0.02000	0
0.02367	0
0.02733	-0
0.03100	-0
0.03467	-1
0.03833	-1
0.04200	-1
0.04567	-1
0.04933	-1
0.05300	-1
0.05667	-1
0.06033	-1
0.06400	-1
0.06767	-1
0.07133	-1
0.07500	-0
0.07867	-0
0.08233	-0
0.08600	0
0.08967	0
0.09333	-0
0.09700	-0
0.10067	-0
0.10433	-0
0.10800	-0
0.11167	0
0.11533	0
0.11900	0
0.12267	0
0.12633	0
0.13000	-0
0.13367	-0
0.13733	-1
0.14100	-1
0.14467	-1
0.14833	-1
0.15200	-2
0.15567	-2
0.15933	-2
0.16300	-2
0.16667	-2
0.17033	-2
0.17400	-2
0.17767	-3
0.18133	-3
0.18500	-3
0.18867	-2
0.19233	-2
0.19600	-2
0.19967	-1
0.20333	-1
0.20700	-1
0.21067	-1
0.21433	-1
0.21800	-1
0.22167	-2
0.22533	-2
0.22900	-1
0.23267	-1
0.23633	-1
0.24000	-2
0.24367	-2
0.24733	-2
0.25100	-2
0.25467	-2
0.25833	-2
0.26200	-1
0.26567	-1
0.26933	-1
0.27300	-0
0.27667	-0
0.28033	0
0.28400	0
0.28767	0
0.29133	0
0.29500	0
0.29867	0
0.30233	-0
0.30600	0
0.30967	0
0.31333	0
0.31700	0
0.32067	0
0.32433	0
0.32800	0
0.33167	0
0.33533	-0
0.33900	-0
0.34267	-0
0.34633	-1
0.35000	-1
0.35367	-1
0.35733	-1
0.36100	-2
0.36467	-2
0.36833	-2
0.37200	-2
0.37567	-2
0.37933	-2
0.38300	-2
0.38667	-2
0.39033	-2
0.39400	-3
0.39767	-3
0.40133	-3
0.40500	-3
0.40867	-3
0.41233	-3
0.41600	-3
0.41967	-3
0.42333	-3
0.42700	-3
0.43067	-3
0.43433	-3
0.43800	-3
0.44167	-3
0.44533	-2
0.44900	-2
0.45267	-1
0.45633	-1
0.46000	-0
0.46367	1
0.46733	1
0.47100	1
0.47467	2
0.47833	2
0.48200	2
0.48567	2
0.48933	2
0.49300	2
0.49667	2
0.50033	2
0.50400	1
0.50767	1
0.51133	1
0.51500	0
0.51867	-0
0.52233	-0
0.52600	-1
0.52967	-1
0.53333	-1
0.53700	-2
0.54067	-2
0.54433	-2
0.54800	-3
0.55167	-3
0.55533	-3
0.55900	-3
0.56267	-3
0.56633	-4
0.57000	-4
0.57367	-4
0.57733	-4
0.58100	-4
0.58467	-4
0.58833	-4
0.59200	-4
0.59567	-4
0.59933	-4
0.60300	-3
0.60667	-3
0.61033	-3
0.61400	-2
0.61767	-2
0.62133	-2
0.62500	-2
0.62867	-2
0.63233	-2
0.63600	-2
0.63967	-2
0.64333	-2
0.64700	-2
0.65067	-2
0.65433	-2
0.65800	-2
0.66167	-2
0.66533	-2
0.66900	-2
0.67267	-2
0.67633	-2
0.68000	-2
0.68367	-3
0.68733	-3
0.69100	-3
0.69467	-4
0.69833	-4
0.70200	-5
0.70567	-5
0.70933	-5
0.71300	-5
0.71667	-5
0.72033	-5
0.72400	-5
0.72767	-4
0.73133	-4
0.73500	-3
0.73867	-3
0.74233	-3
0.74600	-2
0.74967	-2
0.75333	-2
0.75700	-2
0.76067	-2
0.76433	-3
0.76800	-3
0.77167	-3
0.77533	-4
0.77900	-4
0.78267	-5
0.78633	-5
0.79000	-5
0.79367	-5
0.79733	-5
0.80100	-5
0.80467	-5
0.80833	-6
0.81200	-6
0.81567	-5
0.81933	-5
0.82300	-5
0.82667	-5
0.83033	-5
0.83400	-5
0.83767	-5
0.84133	-5
0.84500	-4
0.84867	-4
0.85233	-4
0.85600	-4
0.85967	-4
0.86333	-3
0.86700	-3
0.87067	-3
0.87433	-4
0.87800	-4
0.88167	-4
0.88533	-4
0.88900	-4
0.89267	-4
0.89633	-4
0.90000	-4
0.90367	-4
0.90733	-4
0.91100	-3
0.91467	-3
0.91833	-3
0.92200	-3
0.92567	-3
0.92933	-3
0.93300	-2
0.93667	-2
0.94033	-3
0.94400	-3
0.94767	-3
0.95133	-3
0.95500	-4
0.95867	-4
0.96233	-4
0.96600	-3
0.96967	-3
0.97333	-3
0.97700	-3
0.98067	-3
0.98433	-3
0.98800	-3
0.99167	-3
0.99533	-3
0.99900	-3
1.00267	-3
1.00633	-3
1.01000	-3
1.01367	-3
1.01733	-3
1.02100	-3
1.02467	-3
1.02833	-3
1.03200	-3
1.03567	-3
1.03933	-3
1.04300	-3
1.04667	-3
1.05033	-4
1.05400	-4
1.05767	-4
1.06133	-4
1.06500	-5
1.06867	-5
1.07233	-5
1.07600	-5
1.07967	-5
1.08333	-5
1.08700	-6
1.09067	-5
1.09433	-5
1.09800	-5
1.10167	-5
1.10533	-5
1.10900	-5
1.11267	-5
1.11633	-5
1.12000	-4
1.12367	-4
1.12733	-4
1.13100	-4
1.13467	-4
1.13833	-4
1.14200	-4
1.14567	-4
1.14933	-4
1.15300	-4
1.15667	-4
1.16033	-5
1.16400	-5
1.16767	-5
1.17133	-5
1.17500	-6
1.17867	-6
1.18233	-6
1.18600	-6
1.18967	-6
1.19333	-5
1.19700	-5
1.20067	-4
1.20433	-4
1.20800	-3
1.21167	-3
1.21533	-2
1.21900	-2
1.22267	-2
1.22633	-2
1.23000	-2
1.23367	-2
1.23733	-2
1.24100	-2
1.24467	-3
1.24833	-3
1.25200	-3
1.25567	-3
1.25933	-4
1.26300	-4
1.26667	-4
1.27033	-4
1.27400	-4
1.27767	-5
1.28133	-5
1.28500	-5
1.28867	-5
1.29233	-5
1.29600	-5
1.29967	-5
1.30333	-5
1.30700	-5
1.31067	-5
1.31433	-5
1.31800	-5
1.32167	-5
1.32533	-4
1.32900	-4
1.33267	-4
1.33633	-4
1.34000	-5
1.34367	-5
1.34733	-5
1.35100	-5
1.35467	-5
1.35833	-5
1.36200	-5
1.36567	-5
1.36933	-4
1.37300	-4
1.37667	-4
1.38033	-3
1.38400	-4
1.38767	-4
1.39133	-4
1.39500	-4
1.39867	-4
1.40233	-4
1.40600	-4
1.40967	-4
1.41333	-4
1.41700	-4
1.42067	-4
1.42433	-4
1.42800	-4
1.43167	-4
1.43533	-4
1.43900	-5
1.44267	-5
1.44633	-5
1.45000	-5
1.45367	-6
1.45733	-6
1.46100	-6
1.46467	-6
1.46833	-6
1.47200	-5
1.47567	-5
1.47933	-5
1.48300	-5
1.48667	-4
1.49033	-4
1.49400	-4
1.49767	-4
1.50133	-3
1.50500	-3
1.50867	-3
1.51233	-3
1.51600	-2
1.51967	-2
1.52333	-2
1.52700	-2
1.53067	-1
1.53433	-1
1.53800	-1
1.54167	-1
1.54533	-1
1.54900	-1
1.55267	-2
1.55633	-2
1.56000	-3
1.56367	-3
1.56733	-3
1.57100	-4
1.57467	-4
1.57833	-5
1.58200	-5
1.58567	-6
1.58933	-6
1.59300	-6
1.59667	-7
1.60033	-8
1.60400	-9
1.60767	-10
1.61133	-12
1.61500	-14
1.61867	-16
1.62233	-19
1.62600	-21
1.62967	-24
1.63333	-27
1.63700	-30
1.64067	-33
1.64433	-35
1.64800	-38
1.65167	-42
1.65533	-45
1.65900	-48
1.66267	-52
1.66633	-56
1.67000	-60
1.67367	-65
1.67733	-70
1.68100	-75
1.68467	-79
1.68833	-83
1.69200	-86
1.69567	-89
1.69933	-91
1.70300	-93
1.70667	-95
1.71033	-96
1.71400	-97
1.71767	-97
1.72133	-98
1.72500	-98
1.72867	-98
1.73233	-99
1.73600	-99
1.73967	-100
1.74333	-101
1.74700	-101
1.75067	-102
1.75433	-102
1.75800	-103
1.76167	-103
1.76533	-104
1.76900	-104
1.77267	-105
1.77633	-105
1.78000	-105
1.78367	-106
1.78733	-106
1.79100	-106
1.79467	-106
1.79833	-106
1.80200	-106
1.80567	-106
1.80933	-106
1.81300	-106
1.81667	-105
1.82033	-105
1.82400	-105
1.82767	-104
1.83133	-104
1.83500	-103
1.83867	-103
1.84233	-104
1.84600	-104
1.84967	-105
1.85333	-105
1.85700	-105
1.86067	-105
1.86433	-105
1.86800	-105
1.87167	-105
1.87533	-105
1.87900	-105
1.88267	-105
1.88633	-105
1.89000	-104
1.89367	-103
1.89733	-102
1.90100	-102
1.90467	-102
1.90833	-102
1.91200	-102
1.91567	-102
1.91933	-102
1.92300	-102
1.92667	-102
1.93033	-102
1.93400	-102
1.93767	-101
1.94133	-101
1.94500	-101
1.94867	-101
1.95233	-101
1.95600	-100
1.95967	-100
1.96333	-100
1.96700	-100
1.97067	-100
1.97433	-100
1.97800	-99
1.98167	-99
1.98533	-98
1.98900	-98
1.99267	-97
1.99633	-97
2.00000	-97
2.00367	-96
2.00733	-96
2.01100	-96
2.01467	-96
2.01833	-96
2.02200	-95
2.02567	-95
2.02933	-95
2.03300	-95
2.03667	-95
2.04033	-95
2.04400	-95
2.04767	-94
2.05133	-94
2.05500	-93
2.05867	-93
2.06233	-93
2.06600	-93
2.06967	-94
2.07333	-94
2.07700	-93
2.08067	-93
2.08433	-93
2.08800	-92
2.09167	-92
2.09533	-91
2.09900	-91
2.10267	-90
2.10633	-90
2.11000	-89
2.11367	-88
2.11733	-87
2.12100	-87
2.12467	-87
2.12833	-87
2.13200	-88
2.13567	-88
2.13933	-89
2.14300	-90
2.14667	-91
2.15033	-91
2.15400	-90
2.15767	-89
2.16133	-88
2.16500	-87
2.16867	-87
2.17233	-86
2.17600	-85
2.17967	-84
2.18333	-84
2.18700	-84
2.19067	-84
2.19433	-84
2.19800	-84
2.20167	-85
2.20533	-86
2.20900	-87
2.21267	-87
2.21633	-87
2.22000	-87
2.22367	-86
2.22733	-84
2.23100	-83
2.23467	-81
2.23833	-80
2.24200	-79
2.24567	-78
2.24933	-77
2.25300	-77
2.25667	-77
2.26033	-78
2.26400	-79
2.26767	-79
2.27133	-80
2.27500	-81
2.27867	-81
2.28233	-80
2.28600	-80
2.28967	-79
2.29333	-78
2.29700	-77
2.30067	-77
2.30433	-76
2.30800	-75
2.31167	-75
2.31533	-75
2.31900	-75
2.32267	-75
2.32633	-74
2.33000	-74
2.33367	-73
2.33733	-72
2.34100	-71
2.34467	-70
2.34833	-68
2.35200	-67
2.35567	-67
2.35933	-66
2.36300	-66
2.36667	-65
2.37033	-63
2.37400	-62
2.37767	-59
2.38133	-56
2.38500	-53
2.38867	-49
2.39233	-45
2.39600	-41
2.39967	-36
2.40333	-32
2.40700	-27
2.41067	-23
2.41433	-19
2.41800	-16
2.42167	-13
2.42533	-10
2.42900	-8
2.43267	-7
2.43633	-5
2.44000	-3
2.44367	-2
2.44733	-0
2.45100	1
2.45467	2
2.45833	3
2.46200	5
2.46567	6
2.46933	7
2.47300	8
2.47667	9
2.48033	10
2.48400	11
2.48767	12
2.49133	12
2.49500	13
2.49867	13
2.50233	13
2.50600	14
2.50967	14
2.51333	14
2.51700	14
2.52067	14
2.52433	13
2.52800	13
2.53167	12
2.53533	12
2.53900	11
2.54267	10
2.54633	10
2.55000	10
2.55367	10
2.55733	10
2.56100	10
2.56467	10
2.56833	11
2.57200	12
2.57567	12
2.57933	13
2.58300	14
2.58667	15
2.59033	15
2.59400	16
2.59767	16
2.60133	16
2.60500	16
2.60867	16
2.61233	16
2.61600	16
2.61967	16
2.62333	16
2.62700	16
2.63067	16
2.63433	16
2.63800	17
2.64167	17
2.64533	18
2.64900	18
2.65267	19
2.65633	19
2.66000	19
2.66367	19
2.66733	20
2.67100	20
2.67467	20
2.67833	21
2.68200	21
2.68567	21
2.68933	22
2.69300	22
2.69667	22
2.70033	23
2.70400	23
2.70767	23
2.71133	23
2.71500	23
2.71867	23
2.72233	23
2.72600	24
2.72967	24
2.73333	24
2.73700	24
2.74067	24
2.74433	24
2.74800	24
2.75167	24
2.75533	24
2.75900	24
2.76267	24
2.76633	24
2.77000	25
2.77367	25
2.77733	25
2.78100	26
2.78467	26
2.78833	26
2.79200	27
2.79567	27
2.79933	28
2.80300	28
2.80667	28
2.81033	28
2.81400	28
2.81767	29
2.82133	29
2.82500	29
2.82867	29
2.83233	29
2.83600	28
2.83967	28
2.84333	27
2.84700	27
2.85067	26
2.85433	25
2.85800	24
2.86167	21
2.86533	16
2.86900	9
2.87267	-2
2.87633	-16
2.88000	-35
2.88367	-59
2.88733	-89
2.89100	-124
2.89467	-164
2.89833	-209
2.90200	-258
2.90567	-311
2.90933	-368
2.91300	-427
2.91667	-488
2.92033	-550
2.92400	-612
2.92767	-674
2.93133	-735
2.93500	-793
2.93867	-848
2.94233	-900
2.94600	-953
2.94967	-1007
2.95333	-1058
2.95700	-1096
2.96067	-1112
2.96433	-1103
2.96800	-1070
2.97167	-1017
2.97533	-949
2.97900	-873
2.98267	-793
2.98633	-712
2.99000	-633
2.99367	-559
2.99733	-490
3.00100	-427
3.00467	-370
3.00833	-319
3.01200	-274
3.01567	-234
3.01933	-199
3.02300	-169
3.02667	-143
3.03033	-120
3.03400	-101
3.03767	-84
3.04133	-69
3.04500	-57
3.04867	-46
3.05233	-37
3.05600	-30
3.05967	-23
3.06333	-17
3.06700	-12
3.07067	-8
3.07433	-4
3.07800	-2
3.08167	1
3.08533	3
3.08900	4
3.09267	6
3.09633	7
3.10000	8
3.10367	9
3.10733	11
3.11100	12
3.11467	13
3.11833	13
3.12200	14
3.12567	15
3.12933	15
3.13300	15
3.13667	16
3.14033	16
3.14400	16
3.14767	17
3.15133	17
3.15500	17
3.15867	17
3.16233	18
3.16600	18
3.16967	18
3.17333	19
3.17700	19
3.18067	19
3.18433	20
3.18800	20
3.19167	21
3.19533	21
3.19900	21
3.20267	21
3.20633	21
3.21000	22
3.21367	22
3.21733	22
3.22100	22
3.22467	22
3.22833	22
3.23200	23
3.23567	23
3.23933	23
3.24300	23
3.24667	23
3.25033	23
3.25400	23
3.25767	23
3.26133	23
3.26500	23
3.26867	24
3.27233	24
3.27600	24
3.27967	24
3.28333	24
3.28700	24
3.29067	24
3.29433	24
3.29800	25
3.30167	25
3.30533	25
3.30900	26
3.31267	26
3.31633	27
3.32000	27
3.32367	27
3.32733	27
3.33100	27
3.33467	28
3.33833	28
3.34200	28
3.34567	28
3.34933	28
3.35300	28
3.35667	28
3.36033	28
3.36400	28
3.36767	27
3.37133	27
3.37500	27
3.37867	27
3.38233	27
3.38600	27
3.38967	27
3.39333	27
3.39700	27
3.40067	27
3.40433	27
3.40800	26
3.41167	27
3.41533	27
3.41900	27
3.42267	27
3.42633	27
3.43000	27
3.43367	27
3.43733	27
3.44100	27
3.44467	27
3.44833	27
3.45200	27
3.45567	27
3.45933	27
3.46300	27
3.46667	27
3.47033	27
3.47400	27
3.47767	27
3.48133	27
3.48500	27
3.48867	27
3.49233	27
3.49600	27
3.49967	26
3.50333	26
3.50700	26
3.51067	26
3.51433	26
3.51800	26
3.52167	26
3.52533	26
3.52900	26
3.53267	26
3.53633	26
3.54000	26
3.54367	26
3.54733	26
3.55100	26
3.55467	26
3.55833	26
3.56200	26
3.56567	26
3.56933	26
3.57300	26
3.57667	26
3.58033	26
3.58400	26
3.58767	27
3.59133	27
3.59500	27
3.59867	27
3.60233	27
3.60600	27
3.60967	28
3.61333	28
3.61700	27
3.62067	27
3.62433	27
3.62800	27
3.63167	27
3.63533	26
3.63900	26
3.64267	27
3.64633	27
3.65000	27
3.65367	26
3.65733	26
3.66100	26
3.66467	26
3.66833	26
3.67200	26
3.67567	26
3.67933	27
3.68300	27
3.68667	27
3.69033	27
3.69400	27
3.69767	26
3.70133	26
3.70500	26
3.70867	25
3.71233	25
3.71600	25
3.71967	25
3.72333	25
3.72700	24
3.73067	24
3.73433	24
3.73800	25
3.74167	25
3.74533	25
3.74900	25
3.75267	25
3.75633	25
3.76000	26
3.76367	25
3.76733	25
3.77100	25
3.77467	25
3.77833	25
3.78200	25
3.78567	25
3.78933	25
3.79300	25
3.79667	25
3.80033	25
3.80400	25
3.80767	25
3.81133	25
3.81500	25
3.81867	25
3.82233	24
3.82600	24
3.82967	24
3.83333	24
3.83700	24
3.84067	24
3.84433	24
3.84800	24
3.85167	25
3.85533	25
3.85900	25
3.86267	26
3.86633	26
3.87000	26
3.87367	26
3.87733	26
3.88100	26
3.88467	26
3.88833	26
3.89200	26
3.89567	26
3.89933	27
3.90300	27
3.90667	27
3.91033	27
3.91400	27
3.91767	27
3.92133	27
3.92500	27
3.92867	28
3.93233	28
3.93600	28
3.93967	28
3.94333	28
3.94700	28
3.95067	28
3.95433	28
3.95800	28
3.96167	28
3.96533	27
3.96900	27
3.97267	27
3.97633	27
3.98000	27
3.98367	27
3.98733	26
3.99100	26
3.99467	26
3.99833	27

[Chromatogram (Ch3)]
Interval(msec)	220
# of Points	1091
Start Time(min)	0.002
End Time(min)	3.998
R.Time (min)	Intensity
0.00167	-0
0.00533	-1
0.00900	-2
0.01267	-3
0.01633	-2
0.02000	1
0.02367	3
0.02733	3
0.03100	4
0.03467	4
0.03833	4
0.04200	5
0.04567	4
0.04933	3
0.05300	2
0.05667	4
0.06033	5
0.06400	4
0.06767	2
0.07133	-0
0.07500	-1
0.07867	-2
0.08233	-4
0.08600	-6
0.08967	-6
0.09333	-6
0.09700	-7
0.10067	-6
0.10433	-5
0.10800	-5
0.11167	-4
0.11533	-4
0.11900	-4
0.12267	-2
0.12633	2
0.13000	4
0.13367	5
0.13733	6
0.14100	7
0.14467	5
0.14833	5
0.15200	5
0.15567	3
0.15933	0
0.16300	-1
0.16667	-3
0.17033	-3
0.17400	-4
0.17767	-4
0.18133	-3
0.18500	-2
0.18867	-1
0.19233	-1
0.19600	-1
0.19967	0
0.20333	1
0.20700	0
0.21067	-2
0.21433	-4
0.21800	-4
0.22167	-2
0.22533	-1
0.22900	0
0.23267	0
0.23633	-1
0.24000	0
0.24367	1
0.24733	2
0.25100	4
0.25467	2
0.25833	1
0.26200	1
0.26567	0
0.26933	-1
0.27300	-3
0.27667	-4
0.28033	-3
0.28400	-3
0.28767	-4
0.29133	-3
0.29500	-1
0.29867	-1
0.30233	-0
0.30600	1
0.30967	2
0.31333	4
0.31700	4
0.32067	3
0.32433	4
0.32800	2
0.33167	0
0.33533	-0
0.33900	1
0.34267	-1
0.34633	-1
0.35000	1
0.35367	3
0.35733	6
0.36100	8
0.36467	7
0.36833	5
0.37200	3
0.37567	2
0.37933	1
0.38300	2
0.38667	3
0.39033	5
0.39400	5
0.39767	5
0.40133	6
0.40500	5
0.40867	4
0.41233	4
0.41600	4
0.41967	6
0.42333	5
0.42700	3
0.43067	1
0.43433	0
0.43800	2
0.44167	3
0.44533	-1
0.44900	-3
0.45267	-3
0.45633	-0
0.46000	2
0.46367	3
0.46733	3
0.47100	4
0.47467	5
0.47833	7
0.48200	9
0.48567	9
0.48933	9
0.49300	8
0.49667	7
0.50033	6
0.50400	4
0.50767	3
0.51133	1
0.51500	1
0.51867	0
0.52233	1
0.52600	1
0.52967	2
0.53333	4
0.53700	6
0.54067	6
0.54433	6
0.54800	6
0.55167	6
0.55533	5
0.55900	6
0.56267	5
0.56633	5
0.57000	6
0.57367	8
0.57733	8
0.58100	7
0.58467	7
0.58833	6
0.59200	6
0.59567	6
0.59933	8
0.60300	8
0.60667	7
0.61033	5
0.61400	5
0.61767	6
0.62133	7
0.62500	7
0.62867	6
0.63233	5
0.63600	4
0.63967	4
0.64333	3
0.64700	3
0.65067	4
0.65433	6
0.65800	8
0.66167	9
0.66533	11
0.66900	13
0.67267	13
0.67633	13
0.68000	12
0.68367	10
0.68733	8
0.69100	7
0.69467	7
0.69833	7
0.70200	9
0.70567	9
0.70933	7
0.71300	6
0.71667	5
0.72033	8
0.72400	8
0.72767	7
0.73133	9
0.73500	13
0.73867	15
0.74233	15
0.74600	12
0.74967	10
0.75333	11
0.75700	12
0.76067	12
0.76433	13
0.76800	12
0.77167	12
0.77533	13
0.77900	12
0.78267	11
0.78633	11
0.79000	12
0.79367	14
0.79733	15
0.80100	16
0.80467	17
0.80833	18
0.81200	16
0.81567	15
0.81933	14
0.82300	12
0.82667	10
0.83033	10
0.83400	8
0.83767	9
0.84133	10
0.84500	10
0.84867	10
0.85233	11
0.85600	13
0.85967	14
0.86333	14
0.86700	14
0.87067	13
0.87433	9
0.87800	8
0.88167	10
0.88533	12
0.88900	12
0.89267	14
0.89633	16
0.90000	18
0.90367	16
0.90733	15
0.91100	16
0.91467	17
0.91833	18
0.92200	17
0.92567	16
0.92933	15
0.93300	12
0.93667	11
0.94033	11
0.94400	12
0.94767	14
0.95133	14
0.95500	13
0.95867	10
0.96233	9
0.96600	10
0.96967	13
0.97333	14
0.97700	15
0.98067	14
0.98433	13
0.98800	12
0.99167	11
0.99533	8
0.99900	7
1.00267	9
1.00633	11
1.01000	13
1.01367	14
1.01733	16
1.02100	18
1.02467	18
1.02833	18
1.03200	18
1.03567	17
1.03933	16
1.04300	14
1.04667	13
1.05033	11
1.05400	10
1.05767	11
1.06133	13
1.06500	16
1.06867	17
1.07233	16
1.07600	15
1.07967	15
1.08333	16
1.08700	15
1.09067	15
1.09433	15
1.09800	15
1.10167	13
1.10533	12
1.10900	12
1.11267	12
1.11633	11
1.12000	11
1.12367	12
1.12733	15
1.13100	17
1.13467	18
1.13833	19
1.14200	18
1.14567	16
1.14933	15
1.15300	14
1.15667	15
1.16033	16
1.16400	14
1.16767	13
1.17133	13
1.17500	12
1.17867	10
1.18233	9
1.18600	12
1.18967	13
1.19333	11
1.19700	9
1.20067	10
1.20433	11
1.20800	12
1.21167	13
1.21533	12
1.21900	11
1.22267	10
1.22633	11
1.23000	11
1.23367	12
1.23733	12
1.24100	13
1.24467	13
1.24833	13
1.25200	13
1.25567	14
1.25933	15
1.26300	15
1.26667	15
1.27033	17
1.27400	20
1.27767	21
1.28133	19
1.28500	16
1.28867	14
1.29233	15
1.29600	15
1.29967	14
1.30333	14
1.30700	15
1.31067	16
1.31433	18
1.31800	18
1.32167	18
1.32533	17
1.32900	18
1.33267	18
1.33633	18
1.34000	19
1.34367	18
1.34733	17
1.35100	17
1.35467	18
1.35833	21
1.36200	23
1.36567	21
1.36933	18
1.37300	17
1.37667	18
1.38033	19
1.38400	19
1.38767	19
1.39133	18
1.39500	18
1.39867	18
1.40233	17
1.40600	19
1.40967	20
1.41333	20
1.41700	20
1.42067	19
1.42433	17
1.42800	14
1.43167	13
1.43533	15
1.43900	18
1.44267	19
1.44633	19
1.45000	20
1.45367	19
1.45733	18
1.46100	17
1.46467	15
1.46833	15
1.47200	15
1.47567	15
1.47933	15
1.48300	15
1.48667	14
1.49033	13
1.49400	13
1.49767	13
1.50133	13
1.50500	14
1.50867	14
1.51233	14
1.51600	13
1.51967	13
1.52333	16
1.52700	18
1.53067	17
1.53433	15
1.53800	14
1.54167	15
1.54533	14
1.54900	14
1.55267	13
1.55633	15
1.56000	19
1.56367	20
1.56733	22
1.57100	23
1.57467	22
1.57833	19
1.58200	17
1.58567	17
1.58933	16
1.59300	16
1.59667	14
1.60033	12
1.60400	11
1.60767	13
1.61133	16
1.61500	18
1.61867	18
1.62233	16
1.62600	15
1.62967	16
1.63333	17
1.63700	19
1.64067	18
1.64433	19
1.64800	19
1.65167	20
1.65533	22
1.65900	23
1.66267	22
1.66633	21
1.67000	19
1.67367	18
1.67733	19
1.68100	19
1.68467	20
1.68833	22
1.69200	22
1.69567	22
1.69933	22
1.70300	21
1.70667	21
1.71033	21
1.71400	21
1.71767	19
1.72133	19
1.72500	21
1.72867	23
1.73233	26
1.73600	27
1.73967	27
1.74333	26
1.74700	25
1.75067	24
1.75433	26
1.75800	26
1.76167	25
1.76533	24
1.76900	23
1.77267	22
1.77633	24
1.78000	26
1.78367	28
1.78733	29
1.79100	30
1.79467	31
1.79833	30
1.80200	31
1.80567	33
1.80933	34
1.81300	34
1.81667	33
1.82033	32
1.82400	30
1.82767	30
1.83133	30
1.83500	32
1.83867	35
1.84233	38
1.84600	39
1.84967	38
1.85333	37
1.85700	36
1.86067	35
1.86433	36
1.86800	38
1.87167	39
1.87533	40
1.87900	40
1.88267	41
1.88633	41
1.89000	42
1.89367	43
1.89733	42
1.90100	43
1.90467	43
1.90833	42
1.91200	42
1.91567	42
1.91933	42
1.92300	44
1.92667	46
1.93033	48
1.93400	49
1.93767	49
1.94133	50
1.94500	50
1.94867	50
1.95233	50
1.95600	50
1.95967	51
1.96333	53
1.96700	53
1.97067	56
1.97433	61
1.97800	62
1.98167	62
1.98533	63
1.98900	64
1.99267	62
1.99633	59
2.00000	59
2.00367	60
2.00733	61
2.01100	63
2.01467	64
2.01833	65
2.02200	66
2.02567	67
2.02933	68
2.03300	69
2.03667	72
2.04033	73
2.04400	74
2.04767	74
2.05133	75
2.05500	76
2.05867	74
2.06233	74
2.06600	73
2.06967	72
2.07333	71
2.07700	69
2.08067	68
2.08433	70
2.08800	72
2.09167	73
2.09533	74
2.09900	74
2.10267	73
2.10633	73
2.11000	75
2.11367	77
2.11733	76
2.12100	76
2.12467	77
2.12833	78
2.13200	78
2.13567	78
2.13933	79
2.14300	82
2.14667	83
2.15033	82
2.15400	83
2.15767	83
2.16133	81
2.16500	82
2.16867	84
2.17233	86
2.17600	87
2.17967	88
2.18333	91
2.18700	92
2.19067	93
2.19433	92
2.19800	92
2.20167	92
2.20533	94
2.20900	94
2.21267	94
2.21633	95
2.22000	95
2.22367	93
2.22733	92
2.23100	92
2.23467	92
2.23833	95
2.24200	96
2.24567	95
2.24933	95
2.25300	98
2.25667	101
2.26033	101
2.26400	100
2.26767	99
2.27133	97
2.27500	97
2.27867	98
2.28233	99
2.28600	102
2.28967	103
2.29333	104
2.29700	106
2.30067	109
2.30433	109
2.30800	108
2.31167	108
2.31533	108
2.31900	107
2.32267	107
2.32633	107
2.33000	106
2.33367	106
2.33733	108
2.34100	110
2.34467	111
2.34833	112
2.35200	113
2.35567	115
2.35933	117
2.36300	119
2.36667	119
2.37033	118
2.37400	117
2.37767	117
2.38133	116
2.38500	116
2.38867	114
2.39233	114
2.39600	116
2.39967	119
2.40333	122
2.40700	124
2.41067	126
2.41433	128
2.41800	131
2.42167	133
2.42533	136
2.42900	139
2.43267	142
2.43633	143
2.44000	149
2.44367	212
2.44733	346
2.45100	493
2.45467	609
2.45833	692
2.46200	754
2.46567	793
2.46933	812
2.47300	817
2.47667	816
2.48033	821
2.48400	833
2.48767	853
2.49133	873
2.49500	892
2.49867	907
2.50233	909
2.50600	900
2.50967	884
2.51333	864
2.51700	846
2.52067	831
2.52433	820
2.52800	815
2.53167	813
2.53533	813
2.53900	814
2.54267	814
2.54633	816
2.55000	822
2.55367	832
2.55733	842
2.56100	852
2.56467	862
2.56833	869
2.57200	871
2.57567	866
2.57933	857
2.58300	844
2.58667	829
2.59033	813
2.59400	794
2.59767	777
2.60133	761
2.60500	746
2.60867	734
2.61233	724
2.61600	715
2.61967	708
2.62333	703
2.62700	699
2.63067	696
2.63433	691
2.63800	685
2.64167	681
2.64533	679
2.64900	677
2.65267	676
2.65633	675
2.66000	676
2.66367	677
2.66733	679
2.67100	682
2.67467	685
2.67833	690
2.68200	694
2.68567	699
2.68933	704
2.69300	707
2.69667	711
2.70033	716
2.70400	721
2.70767	726
2.71133	731
2.71500	737
2.71867	740
2.72233	744
2.72600	747
2.72967	747
2.73333	743
2.73700	738
2.74067	734
2.74433	728
2.74800	721
2.75167	713
2.75533	705
2.75900	695
2.76267	684
2.76633	675
2.77000	666
2.77367	656
2.77733	647
2.78100	640
2.78467	634
2.78833	628
2.79200	622
2.79567	616
2.79933	610
2.80300	603
2.80667	595
2.81033	588
2.81400	584
2.81767	581
2.82133	576
2.82500	574
2.82867	574
2.83233	577
2.83600	594
2.83967	633
2.84333	713
2.84700	855
2.85067	1083
2.85433	1411
2.85800	1843
2.86167	2366
2.86533	2945
2.86900	3537
2.87267	4090
2.87633	4556
2.88000	4901
2.88367	5105
2.88733	5167
2.89100	5100
2.89467	4924
2.89833	4667
2.90200	4355
2.90567	4016
2.90933	3670
2.91300	3332
2.91667	3011
2.92033	2712
2.92400	2441
2.92767	2196
2.93133	1977
2.93500	1780
2.93867	1607
2.94233	1457
2.94600	1327
2.94967	1212
2.95333	1111
2.95700	1024
2.96067	950
2.96433	886
2.96800	832
2.97167	784
2.97533	744
2.97900	710
2.98267	680
2.98633	654
2.99000	630
2.99367	611
2.99733	596
3.00100	583
3.00467	571
3.00833	558
3.01200	548
3.01567	541
3.01933	534
3.02300	528
3.02667	522
3.03033	519
3.03400	515
3.03767	512
3.04133	508
3.04500	506
3.04867	506
3.05233	505
3.05600	503
3.05967	500
3.06333	501
3.06700	499
3.07067	497
3.07433	494
3.07800	490
3.08167	488
3.08533	486
3.08900	482
3.09267	480
3.09633	477
3.10000	475
3.10367	474
3.10733	472
3.11100	468
3.11467	465
3.11833	462
3.12200	460
3.12567	459
3.12933	459
3.13300	458
3.13667	455
3.14033	451
3.14400	448
3.14767	445
3.15133	443
3.15500	441
3.15867	440
3.16233	439
3.16600	437
3.16967	434
3.17333	432
3.17700	428
3.18067	425
3.18433	425
3.18800	427
3.19167	428
3.19533	428
3.19900	428
3.20267	430
3.20633	433
3.21000	436
3.21367	438
3.21733	438
3.22100	437
3.22467	434
3.22833	430
3.23200	427
3.23567	427
3.23933	427
3.24300	424
3.24667	421
3.25033	420
3.25400	420
3.25767	421
3.26133	421
3.26500	420
3.26867	421
3.27233	424
3.27600	423
3.27967	420
3.28333	419
3.28700	419
3.29067	419
3.29433	420
3.29800	418
3.30167	416
3.30533	416
3.30900	417
3.31267	417
3.31633	415
3.32000	413
3.32367	410
3.32733	409
3.33100	410
3.33467	412
3.33833	412
3.34200	411
3.34567	410
3.34933	408
3.35300	408
3.35667	409
3.36033	413
3.36400	415
3.36767	415
3.37133	415
3.37500	414
3.37867	414
3.38233	414
3.38600	412
3.38967	410
3.39333	409
3.39700	410
3.40067	410
3.40433	409
3.40800	409
3.41167	409
3.41533	409
3.41900	409
3.42267	408
3.42633	406
3.43000	403
3.43367	401
3.43733	398
3.44100	398
3.44467	397
3.44833	397
3.45200	394
3.45567	394
3.45933	394
3.46300	396
3.46667	397
3.47033	397
3.47400	394
3.47767	392
3.48133	393
3.48500	393
3.48867	392
3.49233	391
3.49600	390
3.49967	390
3.50333	389
3.50700	389
3.51067	389
3.51433	391
3.51800	392
3.52167	390
3.52533	389
3.52900	388
3.53267	387
3.53633	386
3.54000	387
3.54367	388
3.54733	389
3.55100	390
3.55467	390
3.55833	390
3.56200	389
3.56567	387
3.56933	386
3.57300	386
3.57667	385
3.58033	385
3.58400	385
3.58767	385
3.59133	386
3.59500	388
3.59867	390
3.60233	391
3.60600	392
3.60967	390
3.61333	390
3.61700	389
3.62067	388
3.62433	385
3.62800	383
3.63167	382
3.63533	384
3.63900	385
3.64267	385
3.64633	384
3.65000	385
3.65367	386
3.65733	387
3.66100	388
3.66467	389
3.66833	390
3.67200	392
3.67567	394
3.67933	392
3.68300	390
3.68667	389
3.69033	388
3.69400	387
3.69767	388
3.70133	388
3.70500	388
3.70867	388
3.71233	386
3.71600	384
3.71967	386
3.72333	388
3.72700	389
3.73067	388
3.73433	388
3.73800	389
3.74167	389
3.74533	389
3.74900	390
3.75267	390
3.75633	392
3.76000	393
3.76367	392
3.76733	391
3.77100	389
3.77467	389
3.77833	392
3.78200	394
3.78567	394
3.78933	394
3.79300	393
3.79667	394
3.80033	395
3.80400	396
3.80767	395
3.81133	392
3.81500	390
3.81867	386
3.82233	387
3.82600	389
3.82967	389
3.83333	390
3.83700	392
3.84067	391
3.84433	391
3.84800	392
3.85167	395
3.85533	396
3.85900	396
3.86267	393
3.86633	389
3.87000	387
3.87367	386
3.87733	387
3.88100	388
3.88467	389
3.88833	388
3.89200	389
3.89567	388
3.89933	385
3.90300	385
3.90667	384
3.91033	382
3.91400	383
3.91767	386
3.92133	387
3.92500	386
3.92867	384
3.93233	383
3.93600	383
3.93967	385
3.94333	388
3.94700	391
3.95067	392
3.95433	392
3.95800	394
3.96167	393
3.96533	391
3.96900	392
3.97267	392
3.97633	390
3.98000	389
3.98367	388
3.98733	386
3.99100	385
3.99467	385
3.99833	384

[Status Trace (Column Oven Temperature)]
Interval(msec)	1000
# of Points	240
Start Time(min)	0.007
End Time(min)	3.990
Intensity Units	
Intensity Multiplier	1
R.Time (min)	Intensity
0.00682	35.05
0.02348	35.05
0.04015	35.06
0.05682	35.06
0.07348	35.05
0.09015	35.03
0.10682	35.04
0.12348	35.04
0.14015	35.04
0.15682	35.05
0.17348	35.06
0.19015	35.06
0.20682	35.05
0.22348	35.05
0.24015	35.05
0.25682	35.04
0.27348	35.02
0.29015	35.01
0.30682	34.99
0.32348	34.98
0.34015	34.98
0.35682	34.99
0.37348	35.00
0.39015	35.00
0.40682	35.02
0.42348	35.02
0.44015	35.01
0.45682	35.00
0.47348	34.98
0.49015	34.97
0.50682	34.96
0.52348	34.96
0.54015	34.97
0.55682	34.98
0.57348	35.00
0.59015	35.00
0.60682	34.99
0.62348	34.98
0.64015	34.98
0.65682	34.97
0.67348	34.98
0.69015	34.99
0.70682	35.00
0.72348	34.99
0.74015	34.99
0.75682	34.99
0.77348	35.00
0.79015	35.02
0.80682	35.02
0.82348	35.01
0.84015	35.01
0.85682	35.01
0.87348	35.01
0.89015	35.02
0.90682	35.01
0.92348	35.01
0.94015	35.01
0.95682	35.02
0.97348	35.01
0.99015	35.00
1.00682	35.00
1.02348	35.00
1.04015	34.99
1.05682	34.99
1.07348	35.01
1.09015	35.02
1.10682	35.02
1.12348	35.01
1.14015	35.01
1.15682	35.02
1.17348	35.02
1.19015	35.02
1.20682	35.01
1.22348	35.00
1.24015	35.01
1.25682	35.01
1.27348	35.01
1.29015	35.01
1.30682	35.01
1.32348	35.01
1.34015	35.01
1.35682	35.01
1.37348	35.00
1.39015	35.00
1.40682	35.00
1.42348	35.01
1.44015	35.02
1.45682	35.01
1.47348	35.01
1.49015	35.00
1.50682	34.99
1.52348	34.97
1.54015	34.96
1.55682	34.97
1.57348	34.98
1.59015	34.99
1.60682	35.04
1.62348	35.15
1.64015	35.33
1.65682	35.57
1.67348	35.90
1.69015	36.26
1.70682	36.61
1.72348	36.94
1.74015	37.29
1.75682	37.61
1.77348	37.96
1.79015	38.29
1.80682	38.62
1.82348	38.95
1.84015	39.26
1.85682	39.61
1.87348	39.93
1.89015	40.25
1.90682	40.58
1.92348	40.91
1.94015	41.23
1.95682	41.55
1.97348	41.88
1.99015	42.20
2.00682	42.53
2.02348	42.84
2.04015	43.16
2.05682	43.48
2.07348	43.81
2.09015	44.13
2.10682	44.45
2.12348	44.76
2.14015	45.16
2.15682	45.46
2.17348	45.78
2.19015	46.10
2.20682	46.49
2.22348	46.82
2.24015	47.11
2.25682	47.45
2.27348	47.82
2.29015	48.13
2.30682	48.44
2.32348	48.80
2.34015	49.10
2.35682	49.41
2.37348	49.65
2.39015	49.72
2.40682	49.71
2.42348	49.71
2.44015	49.71
2.45682	49.72
2.47348	49.72
2.49015	49.73
2.50682	49.74
2.52348	49.74
2.54015	49.75
2.55682	49.76
2.57348	49.77
2.59015	49.77
2.60682	49.78
2.62348	49.81
2.64015	49.82
2.65682	49.83
2.67348	49.83
2.69015	49.83
2.70682	49.83
2.72348	49.84
2.74015	49.84
2.75682	49.86
2.77348	49.88
2.79015	49.87
2.80682	49.86
2.82348	49.85
2.84015	49.86
2.85682	49.89
2.87348	49.90
2.89015	49.90
2.90682	49.90
2.92348	49.91
2.94015	49.91
2.95682	49.92
2.97348	49.95
2.99015	49.97
3.00682	49.99
3.02348	50.00
3.04015	50.02
3.05682	50.02
3.07348	50.03
3.09015	50.04
3.10682	50.05
3.12348	50.06
3.14015	50.07
3.15682	50.08
3.17348	50.09
3.19015	50.09
3.20682	50.09
3.22348	50.10
3.24015	50.10
3.25682	50.11
3.27348	50.11
3.29015	50.11
3.30682	50.10
3.32348	50.09
3.34015	50.08
3.35682	50.07
3.37348	50.05
3.39015	50.05
3.40682	50.05
3.42348	50.04
3.44015	50.03
3.45682	50.03
3.47348	50.02
3.49015	50.01
3.50682	50.00
3.52348	50.01
3.54015	50.02
3.55682	50.02
3.57348	50.02
3.59015	50.02
3.60682	50.01
3.62348	50.02
3.64015	50.02
3.65682	50.02
3.67348	50.02
3.69015	50.02
3.70682	50.03
3.72348	50.03
3.74015	50.03
3.75682	50.03
3.77348	50.05
3.79015	50.05
3.80682	50.06
3.82348	50.07
3.84015	50.07
3.85682	50.08
3.87348	50.08
3.89015	50.08
3.90682	50.08
3.92348	50.07
3.94015	50.06
3.95682	50.07
3.97348	50.07
3.99015	50.08

[Status Trace (Injection Unit Temperature)]
Interval(msec)	1000
# of Points	240
Start Time(min)	0.007
End Time(min)	3.990
Intensity Units	
Intensity Multiplier	1
R.Time (min)	Intensity
0.00682	99.98
0.02348	99.98
0.04015	99.98
0.05682	99.98
0.07348	99.98
0.09015	99.98
0.10682	99.97
0.12348	99.98
0.14015	99.98
0.15682	99.98
0.17348	99.98
0.19015	99.98
0.20682	99.98
0.22348	99.98
0.24015	99.98
0.25682	99.98
0.27348	99.98
0.29015	99.98
0.30682	99.98
0.32348	99.99
0.34015	99.99
0.35682	99.99
0.37348	99.98
0.39015	99.99
0.40682	99.99
0.42348	99.99
0.44015	99.99
0.45682	99.99
0.47348	99.99
0.49015	99.99
0.50682	99.98
0.52348	99.99
0.54015	99.99
0.55682	99.99
0.57348	99.99
0.59015	99.99
0.60682	99.99
0.62348	99.99
0.64015	99.99
0.65682	99.99
0.67348	99.99
0.69015	99.99
0.70682	99.99
0.72348	99.99
0.74015	99.99
0.75682	99.98
0.77348	99.98
0.79015	99.98
0.80682	99.99
0.82348	99.98
0.84015	99.99
0.85682	99.99
0.87348	99.99
0.89015	99.98
0.90682	99.98
0.92348	99.98
0.94015	99.98
0.95682	99.99
0.97348	99.98
0.99015	99.98
1.00682	99.99
1.02348	99.99
1.04015	99.99
1.05682	99.98
1.07348	99.98
1.09015	99.99
1.10682	99.99
1.12348	99.98
1.14015	99.98
1.15682	99.98
1.17348	99.99
1.19015	99.98
1.20682	99.98
1.22348	99.98
1.24015	99.98
1.25682	99.98
1.27348	99.99
1.29015	99.98
1.30682	99.98
1.32348	99.98
1.34015	99.99
1.35682	99.98
1.37348	99.98
1.39015	99.99
1.40682	99.98
1.42348	99.98
1.44015	99.98
1.45682	99.98
1.47348	99.98
1.49015	99.99
1.50682	99.98
1.52348	99.98
1.54015	99.99
1.55682	99.99
1.57348	99.98
1.59015	99.98
1.60682	99.98
1.62348	99.99
1.64015	99.99
1.65682	99.99
1.67348	99.99
1.69015	99.98
1.70682	99.99
1.72348	99.99
1.74015	99.99
1.75682	99.99
1.77348	99.99
1.79015	99.99
1.80682	99.98
1.82348	99.99
1.84015	99.98
1.85682	99.98
1.87348	99.98
1.89015	99.98
1.90682	99.98
1.92348	99.98
1.94015	99.98
1.95682	99.98
1.97348	99.98
1.99015	99.98
2.00682	99.97
2.02348	99.97
2.04015	99.98
2.05682	99.97
2.07348	99.97
2.09015	99.97
2.10682	99.97
2.12348	99.97
2.14015	99.97
2.15682	99.97
2.17348	99.97
2.19015	99.97
2.20682	99.97
2.22348	99.97
2.24015	99.97
2.25682	99.97
2.27348	99.97
2.29015	99.97
2.30682	99.97
2.32348	99.97
2.34015	99.97
2.35682	99.97
2.37348	99.97
2.39015	99.97
2.40682	99.96
2.42348	99.97
2.44015	99.97
2.45682	99.97
2.47348	99.97
2.49015	99.97
2.50682	99.97
2.52348	99.97
2.54015	99.97
2.55682	99.97
2.57348	99.97
2.59015	99.98
2.60682	99.98
2.62348	99.98
2.64015	99.98
2.65682	99.98
2.67348	99.98
2.69015	99.99
2.70682	99.99
2.72348	99.99
2.74015	99.99
2.75682	99.99
2.77348	99.99
2.79015	99.99
2.80682	100.00
2.82348	100.00
2.84015	99.99
2.85682	100.00
2.87348	100.00
2.89015	100.00
2.90682	100.01
2.92348	100.01
2.94015	100.01
2.95682	100.01
2.97348	100.01
2.99015	100.01
3.00682	100.01
3.02348	100.02
3.04015	100.02
3.05682	100.02
3.07348	100.02
3.09015	100.02
3.10682	100.02
3.12348	100.02
3.14015	100.02
3.15682	100.02
3.17348	100.02
3.19015	100.02
3.20682	100.03
3.22348	100.03
3.24015	100.03
3.25682	100.03
3.27348	100.03
3.29015	100.02
3.30682	100.03
3.32348	100.03
3.34015	100.03
3.35682	100.03
3.37348	100.04
3.39015	100.04
3.40682	100.04
3.42348	100.04
3.44015	100.04
3.45682	100.03
3.47348	100.03
3.49015	100.04
3.50682	100.04
3.52348	100.04
3.54015	100.04
3.55682	100.04
3.57348	100.04
3.59015	100.04
3.60682	100.04
3.62348	100.04
3.64015	100.04
3.65682	100.04
3.67348	100.04
3.69015	100.05
3.70682	100.04
3.72348	100.04
3.74015	100.04
3.75682	100.04
3.77348	100.04
3.79015	100.04
3.80682	100.04
3.82348	100.04
3.84015	100.04
3.85682	100.04
3.87348	100.04
3.89015	100.04
3.90682	100.04
3.92348	100.04
3.94015	100.04
3.95682	100.04
3.97348	100.04
3.99015	100.04

[Status Trace (Carrier Gas Pressure)]
Interval(msec)	1000
# of Points	240
Start Time(min)	0.007
End Time(min)	3.990
Intensity Units	
Intensity Multiplier	1
R.Time (min)	Intensity
0.00682	58.00
0.02348	55.49
0.04015	56.88
0.05682	59.08
0.07348	59.56
0.09015	58.13
0.10682	57.97
0.12348	58.01
0.14015	58.01
0.15682	58.01
0.17348	58.00
0.19015	58.00
0.20682	58.00
0.22348	58.00
0.24015	58.00
0.25682	58.00
0.27348	58.00
0.29015	58.00
0.30682	58.00
0.32348	58.00
0.34015	58.00
0.35682	58.00
0.37348	58.00
0.39015	58.00
0.40682	58.00
0.42348	58.00
0.44015	58.00
0.45682	58.00
0.47348	58.00
0.49015	58.00
0.50682	58.00
0.52348	58.00
0.54015	58.00
0.55682	58.00
0.57348	58.00
0.59015	58.00
0.60682	58.00
0.62348	58.00
0.64015	58.00
0.65682	58.00
0.67348	58.00
0.69015	58.00
0.70682	58.00
0.72348	58.00
0.74015	58.00
0.75682	58.00
0.77348	58.00
0.79015	58.00
0.80682	58.00
0.82348	58.00
0.84015	58.00
0.85682	58.00
0.87348	58.00
0.89015	58.00
0.90682	58.00
0.92348	58.00
0.94015	58.00
0.95682	58.00
0.97348	58.00
0.99015	58.00
1.00682	58.00
1.02348	58.00
1.04015	58.00
1.05682	58.00
1.07348	58.00
1.09015	58.00
1.10682	58.00
1.12348	58.00
1.14015	58.00
1.15682	58.00
1.17348	58.00
1.19015	58.00
1.20682	58.00
1.22348	58.00
1.24015	58.00
1.25682	58.00
1.27348	58.00
1.29015	58.00
1.30682	58.00
1.32348	58.00
1.34015	58.00
1.35682	58.00
1.37348	58.00
1.39015	58.00
1.40682	58.00
1.42348	58.00
1.44015	58.00
1.45682	58.00
1.47348	58.00
1.49015	58.00
1.50682	58.00
1.52348	58.00
1.54015	58.00
1.55682	58.00
1.57348	58.00
1.59015	58.00
1.60682	58.00
1.62348	58.00
1.64015	58.00
1.65682	58.00
1.67348	58.01
1.69015	58.00
1.70682	58.00
1.72348	58.00
1.74015	58.00
1.75682	58.00
1.77348	58.00
1.79015	58.00
1.80682	58.00
1.82348	58.00
1.84015	58.00
1.85682	58.00
1.87348	58.00
1.89015	58.00
1.90682	58.00
1.92348	58.00
1.94015	58.00
1.95682	58.00
1.97348	58.00
1.99015	58.00
2.00682	58.00
2.02348	58.00
2.04015	58.00
2.05682	58.00
2.07348	58.00
2.09015	58.00
2.10682	58.00
2.12348	58.00
2.14015	58.00
2.15682	58.00
2.17348	58.00
2.19015	58.00
2.20682	58.00
2.22348	58.00
2.24015	58.00
2.25682	58.00
2.27348	58.00
2.29015	58.00
2.30682	58.00
2.32348	58.00
2.34015	58.00
2.35682	58.00
2.37348	58.00
2.39015	57.99
2.40682	57.99
2.42348	58.00
2.44015	58.00
2.45682	58.00
2.47348	58.00
2.49015	58.00
2.50682	57.99
2.52348	57.99
2.54015	58.00
2.55682	58.00
2.57348	58.00
2.59015	58.00
2.60682	58.00
2.62348	58.00
2.64015	58.00
2.65682	58.00
2.67348	58.00
2.69015	58.00
2.70682	58.00
2.72348	58.00
2.74015	58.00
2.75682	58.00
2.77348	58.00
2.79015	58.00
2.80682	58.00
2.82348	58.00
2.84015	58.00
2.85682	58.00
2.87348	58.00
2.89015	58.00
2.90682	58.00
2.92348	58.00
2.94015	58.00
2.95682	58.00
2.97348	58.00
2.99015	58.00
3.00682	58.00
3.02348	58.00
3.04015	58.00
3.05682	58.00
3.07348	58.00
3.09015	58.00
3.10682	58.00
3.12348	58.00
3.14015	58.00
3.15682	58.00
3.17348	58.00
3.19015	58.00
3.20682	58.00
3.22348	58.00
3.24015	58.00
3.25682	58.00
3.27348	58.00
3.29015	58.00
3.30682	58.00
3.32348	58.00
3.34015	58.00
3.35682	58.00
3.37348	58.00
3.39015	58.00
3.40682	58.00
3.42348	58.00
3.44015	58.00
3.45682	58.00
3.47348	58.00
3.49015	58.00
3.50682	58.00
3.52348	58.00
3.54015	58.00
3.55682	58.00
3.57348	58.00
3.59015	58.00
3.60682	58.00
3.62348	58.00
3.64015	58.00
3.65682	58.00
3.67348	58.00
3.69015	58.00
3.70682	58.00
3.72348	58.00
3.74015	58.00
3.75682	58.00
3.77348	58.00
3.79015	58.00
3.80682	58.00
3.82348	58.00
3.84015	58.00
3.85682	58.00
3.87348	58.00
3.89015	58.00
3.90682	58.00
3.92348	58.00
3.94015	58.00
3.95682	58.00
3.97348	58.00
3.99015	58.00

[Status Trace (Carrier Gas Flow)]
Interval(msec)	1000
# of Points	240
Start Time(min)	0.007
End Time(min)	3.990
Intensity Units	
Intensity Multiplier	1
R.Time (min)	Intensity
0.00682	34.52
0.02348	34.53
0.04015	34.55
0.05682	34.55
0.07348	34.50
0.09015	34.52
0.10682	34.52
0.12348	34.52
0.14015	34.52
0.15682	34.52
0.17348	34.52
0.19015	34.52
0.20682	34.52
0.22348	34.52
0.24015	34.52
0.25682	34.52
0.27348	34.51
0.29015	34.52
0.30682	34.53
0.32348	34.52
0.34015	34.52
0.35682	34.52
0.37348	34.52
0.39015	34.52
0.40682	34.52
0.42348	34.52
0.44015	34.51
0.45682	34.52
0.47348	34.52
0.49015	34.51
0.50682	34.52
0.52348	34.52
0.54015	34.51
0.55682	34.52
0.57348	34.52
0.59015	34.52
0.60682	34.51
0.62348	34.52
0.64015	34.51
0.65682	34.52
0.67348	34.51
0.69015	34.53
0.70682	34.52
0.72348	34.51
0.74015	34.52
0.75682	34.52
0.77348	34.53
0.79015	34.52
0.80682	34.52
0.82348	34.52
0.84015	34.52
0.85682	34.52
0.87348	34.52
0.89015	34.52
0.90682	34.52
0.92348	34.51
0.94015	34.52
0.95682	34.52
0.97348	34.52
0.99015	34.52
1.00682	34.52
1.02348	34.52
1.04015	34.52
1.05682	34.52
1.07348	34.51
1.09015	34.52
1.10682	34.52
1.12348	34.52
1.14015	34.52
1.15682	34.52
1.17348	34.52
1.19015	34.52
1.20682	34.52
1.22348	34.52
1.24015	34.51
1.25682	34.51
1.27348	34.52
1.29015	34.52
1.30682	34.51
1.32348	34.52
1.34015	34.52
1.35682	34.52
1.37348	34.52
1.39015	34.52
1.40682	34.52
1.42348	34.52
1.44015	34.52
1.45682	34.52
1.47348	34.52
1.49015	34.52
1.50682	34.52
1.52348	34.52
1.54015	34.52
1.55682	34.52
1.57348	34.52
1.59015	34.52
1.60682	34.52
1.62348	34.52
1.64015	34.52
1.65682	34.52
1.67348	34.52
1.69015	34.52
1.70682	34.52
1.72348	34.52
1.74015	34.52
1.75682	34.52
1.77348	34.52
1.79015	34.52
1.80682	34.52
1.82348	34.52
1.84015	34.51
1.85682	34.52
1.87348	34.52
1.89015	34.51
1.90682	34.52
1.92348	34.52
1.94015	34.52
1.95682	34.52
1.97348	34.52
1.99015	34.51
2.00682	34.52
2.02348	34.51
2.04015	34.52
2.05682	34.52
2.07348	34.52
2.09015	34.52
2.10682	34.52
2.12348	34.51
2.14015	34.52
2.15682	34.52
2.17348	34.52
2.19015	34.52
2.20682	34.52
2.22348	34.52
2.24015	34.52
2.25682	34.52
2.27348	34.52
2.29015	34.52
2.30682	34.52
2.32348	34.52
2.34015	34.52
2.35682	34.52
2.37348	34.52
2.39015	34.52
2.40682	34.53
2.42348	34.52
2.44015	34.52
2.45682	34.52
2.47348	34.53
2.49015	34.51
2.50682	34.39
2.52348	34.52
2.54015	34.52
2.55682	34.52
2.57348	34.52
2.59015	34.51
2.60682	34.52
2.62348	34.52
2.64015	34.52
2.65682	34.52
2.67348	34.51
2.69015	34.52
2.70682	34.52
2.72348	34.53
2.74015	34.51
2.75682	34.52
2.77348	34.52
2.79015	34.51
2.80682	34.52
2.82348	34.51
2.84015	34.52
2.85682	34.52
2.87348	34.51
2.89015	34.52
2.90682	34.52
2.92348	34.52
2.94015	34.52
2.95682	34.51
2.97348	34.52
2.99015	34.52
3.00682	34.52
3.02348	34.52
3.04015	34.52
3.05682	34.52
3.07348	34.52
3.09015	34.52
3.10682	34.52
3.12348	34.52
3.14015	34.51
3.15682	34.52
3.17348	34.52
3.19015	34.52
3.20682	34.52
3.22348	34.52
3.24015	34.51
3.25682	34.51
3.27348	34.51
3.29015	34.51
3.30682	34.52
3.32348	34.52
3.34015	34.52
3.35682	34.52
3.37348	34.52
3.39015	34.52
3.40682	34.53
3.42348	34.52
3.44015	34.52
3.45682	34.52
3.47348	34.53
3.49015	34.52
3.50682	34.51
3.52348	34.52
3.54015	34.52
3.55682	34.52
3.57348	34.52
3.59015	34.52
3.60682	34.52
3.62348	34.52
3.64015	34.53
3.65682	34.52
3.67348	34.52
3.69015	34.52
3.70682	34.52
3.72348	34.52
3.74015	34.52
3.75682	34.52
3.77348	34.53
3.79015	34.52
3.80682	34.52
3.82348	34.53
3.84015	34.52
3.85682	34.51
3.87348	34.52
3.89015	34.52
3.90682	34.51
3.92348	34.52
3.94015	34.52
3.95682	34.52
3.97348	34.52
3.99015	34.52

[Status Trace (Column Flow)]
Interval(msec)	1000
# of Points	240
Start Time(min)	0.007
End Time(min)	3.990
Intensity Units	
Intensity Multiplier	1
R.Time (min)	Intensity
0.00682	5.50
0.02348	5.21
0.04015	5.37
0.05682	5.62
0.07348	5.68
0.09015	5.51
0.10682	5.49
0.12348	5.50
0.14015	5.50
0.15682	5.50
0.17348	5.50
0.19015	5.50
0.20682	5.50
0.22348	5.50
0.24015	5.50
0.25682	5.50
0.27348	5.50
0.29015	5.50
0.30682	5.50
0.32348	5.50
0.34015	5.50
0.35682	5.50
0.37348	5.50
0.39015	5.50
0.40682	5.50
0.42348	5.50
0.44015	5.50
0.45682	5.50
0.47348	5.50
0.49015	5.50
0.50682	5.50
0.52348	5.50
0.54015	5.50
0.55682	5.50
0.57348	5.50
0.59015	5.50
0.60682	5.50
0.62348	5.50
0.64015	5.50
0.65682	5.50
0.67348	5.50
0.69015	5.50
0.70682	5.50
0.72348	5.50
0.74015	5.50
0.75682	5.50
0.77348	5.50
0.79015	5.50
0.80682	5.50
0.82348	5.50
0.84015	5.50
0.85682	5.50
0.87348	5.50
0.89015	5.50
0.90682	5.50
0.92348	5.50
0.94015	5.50
0.95682	5.50
0.97348	5.50
0.99015	5.50
1.00682	5.50
1.02348	5.50
1.04015	5.50
1.05682	5.50
1.07348	5.50
1.09015	5.50
1.10682	5.50
1.12348	5.50
1.14015	5.50
1.15682	5.50
1.17348	5.50
1.19015	5.50
1.20682	5.50
1.22348	5.50
1.24015	5.50
1.25682	5.50
1.27348	5.50
1.29015	5.50
1.30682	5.50
1.32348	5.50
1.34015	5.50
1.35682	5.50
1.37348	5.50
1.39015	5.50
1.40682	5.50
1.42348	5.50
1.44015	5.50
1.45682	5.50
1.47348	5.50
1.49015	5.50
1.50682	5.50
1.52348	5.50
1.54015	5.50
1.55682	5.50
1.57348	5.50
1.59015	5.50
1.60682	5.50
1.62348	5.49
1.64015	5.49
1.65682	5.48
1.67348	5.47
1.69015	5.46
1.70682	5.45
1.72348	5.44
1.74015	5.43
1.75682	5.42
1.77348	5.41
1.79015	5.40
1.80682	5.39
1.82348	5.38
1.84015	5.37
1.85682	5.36
1.87348	5.35
1.89015	5.34
1.90682	5.33
1.92348	5.32
1.94015	5.31
1.95682	5.30
1.97348	5.29
1.99015	5.28
2.00682	5.27
2.02348	5.26
2.04015	5.25
2.05682	5.24
2.07348	5.23
2.09015	5.22
2.10682	5.21
2.12348	5.20
2.14015	5.19
2.15682	5.18
2.17348	5.18
2.19015	5.17
2.20682	5.16
2.22348	5.15
2.24015	5.14
2.25682	5.13
2.27348	5.12
2.29015	5.11
2.30682	5.10
2.32348	5.09
2.34015	5.08
2.35682	5.07
2.37348	5.07
2.39015	5.06
2.40682	5.06
2.42348	5.06
2.44015	5.07
2.45682	5.06
2.47348	5.06
2.49015	5.06
2.50682	5.06
2.52348	5.06
2.54015	5.06
2.55682	5.06
2.57348	5.06
2.59015	5.06
2.60682	5.06
2.62348	5.06
2.64015	5.06
2.65682	5.06
2.67348	5.06
2.69015	5.06
2.70682	5.06
2.72348	5.06
2.74015	5.06
2.75682	5.06
2.77348	5.06
2.79015	5.06
2.80682	5.06
2.82348	5.06
2.84015	5.06
2.85682	5.06
2.87348	5.06
2.89015	5.06
2.90682	5.06
2.92348	5.06
2.94015	5.06
2.95682	5.06
2.97348	5.06
2.99015	5.06
3.00682	5.06
3.02348	5.06
3.04015	5.06
3.05682	5.06
3.07348	5.06
3.09015	5.06
3.10682	5.06
3.12348	5.06
3.14015	5.06
3.15682	5.05
3.17348	5.06
3.19015	5.05
3.20682	5.05
3.22348	5.05
3.24015	5.05
3.25682	5.05
3.27348	5.05
3.29015	5.05
3.30682	5.05
3.32348	5.05
3.34015	5.06
3.35682	5.06
3.37348	5.06
3.39015	5.06
3.40682	5.06
3.42348	5.06
3.44015	5.06
3.45682	5.06
3.47348	5.06
3.49015	5.06
3.50682	5.06
3.52348	5.06
3.54015	5.06
3.55682	5.06
3.57348	5.06
3.59015	5.06
3.60682	5.06
3.62348	5.06
3.64015	5.06
3.65682	5.06
3.67348	5.06
3.69015	5.06
3.70682	5.06
3.72348	5.06
3.74015	5.06
3.75682	5.06
3.77348	5.06
3.79015	5.06
3.80682	5.06
3.82348	5.06
3.84015	5.06
3.85682	5.06
3.87348	5.06
3.89015	5.06
3.90682	5.06
3.92348	5.06
3.94015	5.06
3.95682	5.06
3.97348	5.06
3.99015	5.06

[Status Trace (Linear Velocity)]
Interval(msec)	1000
# of Points	240
Start Time(min)	0.007
End Time(min)	3.990
Intensity Units	
Intensity Multiplier	1
R.Time (min)	Intensity
0.00682	39.01
0.02348	37.36
0.04015	38.27
0.05682	39.71
0.07348	40.03
0.09015	39.09
0.10682	38.99
0.12348	39.01
0.14015	39.01
0.15682	39.01
0.17348	39.01
0.19015	39.01
0.20682	39.01
0.22348	39.01
0.24015	39.01
0.25682	39.01
0.27348	39.01
0.29015	39.01
0.30682	39.01
0.32348	39.01
0.34015	39.01
0.35682	39.01
0.37348	39.01
0.39015	39.01
0.40682	39.01
0.42348	39.01
0.44015	39.01
0.45682	39.01
0.47348	39.01
0.49015	39.01
0.50682	39.02
0.52348	39.02
0.54015	39.01
0.55682	39.01
0.57348	39.01
0.59015	39.01
0.60682	39.01
0.62348	39.01
0.64015	39.01
0.65682	39.01
0.67348	39.01
0.69015	39.01
0.70682	39.01
0.72348	39.01
0.74015	39.01
0.75682	39.01
0.77348	39.01
0.79015	39.01
0.80682	39.01
0.82348	39.01
0.84015	39.01
0.85682	39.01
0.87348	39.01
0.89015	39.01
0.90682	39.01
0.92348	39.01
0.94015	39.01
0.95682	39.01
0.97348	39.01
0.99015	39.01
1.00682	39.01
1.02348	39.01
1.04015	39.01
1.05682	39.01
1.07348	39.01
1.09015	39.01
1.10682	39.01
1.12348	39.01
1.14015	39.01
1.15682	39.01
1.17348	39.01
1.19015	39.01
1.20682	39.01
1.22348	39.01
1.24015	39.01
1.25682	39.01
1.27348	39.01
1.29015	39.01
1.30682	39.01
1.32348	39.01
1.34015	39.01
1.35682	39.01
1.37348	39.01
1.39015	39.01
1.40682	39.01
1.42348	39.01
1.44015	39.01
1.45682	39.01
1.47348	39.01
1.49015	39.01
1.50682	39.01
1.52348	39.01
1.54015	39.01
1.55682	39.02
1.57348	39.01
1.59015	39.01
1.60682	39.01
1.62348	39.00
1.64015	38.98
1.65682	38.96
1.67348	38.93
1.69015	38.89
1.70682	38.86
1.72348	38.83
1.74015	38.79
1.75682	38.76
1.77348	38.73
1.79015	38.70
1.80682	38.67
1.82348	38.64
1.84015	38.61
1.85682	38.57
1.87348	38.54
1.89015	38.51
1.90682	38.48
1.92348	38.45
1.94015	38.42
1.95682	38.39
1.97348	38.36
1.99015	38.33
2.00682	38.30
2.02348	38.27
2.04015	38.24
2.05682	38.21
2.07348	38.18
2.09015	38.15
2.10682	38.12
2.12348	38.10
2.14015	38.06
2.15682	38.03
2.17348	38.00
2.19015	37.98
2.20682	37.94
2.22348	37.91
2.24015	37.88
2.25682	37.86
2.27348	37.82
2.29015	37.79
2.30682	37.77
2.32348	37.73
2.34015	37.71
2.35682	37.68
2.37348	37.66
2.39015	37.65
2.40682	37.65
2.42348	37.65
2.44015	37.65
2.45682	37.65
2.47348	37.65
2.49015	37.65
2.50682	37.65
2.52348	37.64
2.54015	37.65
2.55682	37.65
2.57348	37.65
2.59015	37.65
2.60682	37.65
2.62348	37.64
2.64015	37.64
2.65682	37.64
2.67348	37.64
2.69015	37.64
2.70682	37.64
2.72348	37.64
2.74015	37.64
2.75682	37.64
2.77348	37.64
2.79015	37.64
2.80682	37.64
2.82348	37.64
2.84015	37.64
2.85682	37.64
2.87348	37.64
2.89015	37.64
2.90682	37.64
2.92348	37.64
2.94015	37.64
2.95682	37.63
2.97348	37.63
2.99015	37.63
3.00682	37.63
3.02348	37.63
3.04015	37.63
3.05682	37.63
3.07348	37.62
3.09015	37.62
3.10682	37.62
3.12348	37.62
3.14015	37.62
3.15682	37.62
3.17348	37.62
3.19015	37.62
3.20682	37.62
3.22348	37.62
3.24015	37.62
3.25682	37.62
3.27348	37.62
3.29015	37.62
3.30682	37.62
3.32348	37.62
3.34015	37.62
3.35682	37.62
3.37348	37.63
3.39015	37.62
3.40682	37.62
3.42348	37.62
3.44015	37.62
3.45682	37.63
3.47348	37.63
3.49015	37.63
3.50682	37.63
3.52348	37.63
3.54015	37.63
3.55682	37.63
3.57348	37.63
3.59015	37.63
3.60682	37.63
3.62348	37.63
3.64015	37.63
3.65682	37.63
3.67348	37.62
3.69015	37.63
3.70682	37.62
3.72348	37.62
3.74015	37.62
3.75682	37.62
3.77348	37.62
3.79015	37.62
3.80682	37.62
3.82348	37.62
3.84015	37.62
3.85682	37.62
3.87348	37.62
3.89015	37.62
3.90682	37.62
3.92348	37.62
3.94015	37.62
3.95682	37.62
3.97348	37.62
3.99015	37.62

