[Header]
Application Name	LabSolutions
Version	5.110
Data File Name	C:\Users\User\Desktop\Junior\UIC Prairie Sampling\6.15.23\06152023_015.gcd
Output Date	6/26/2023
Output Time	12:05:07 PM

[File Information]
Type	Data File
Generated	6/23/2023 12:28:39 PM
Generated by	System Administrator
Modified	6/23/2023 12:36:13 PM
Modified by	System Administrator

[Sample Information]
Operator Name	System Administrator
Acquired	6/23/2023 12:32:12 PM
Sample Type	0:Unknown
Level	0
Sample Name	015
Sample ID	015
ISTD Amount1	1
ISTD Amount2	1
ISTD Amount3	1
ISTD Amount4	1
ISTD Amount5	1
ISTD Amount6	1
ISTD Amount7	1
ISTD Amount8	1
ISTD Amount9	1
ISTD Amount10	1
ISTD Amount11	1
ISTD Amount12	1
ISTD Amount13	1
ISTD Amount14	1
ISTD Amount15	1
ISTD Amount16	1
ISTD Amount17	1
ISTD Amount18	1
ISTD Amount19	1
ISTD Amount20	1
ISTD Amount21	1
ISTD Amount22	1
ISTD Amount23	1
ISTD Amount24	1
ISTD Amount25	1
ISTD Amount26	1
ISTD Amount27	1
ISTD Amount28	1
ISTD Amount29	1
ISTD Amount30	1
ISTD Amount31	1
ISTD Amount32	1
Sample Amount	1
Dilution Factor	1
Vial#	14
Injection Volume	1
Injection Count	1
Bar Code	

[Original Files]
Data File	C:\Users\User\Desktop\Junior\UIC Prairie Sampling\6.15.23\06152023_015.gcd
Method File	C:\LabSolutions\Data\GHG_4min_2022\ghg3_togas_w_acet_4 min_new_int.gcm
Batch File	C:\LabSolutions\Data\AutoSamplerTesting\06152023.gcb
Report Format File	c:\LabSolutions\System\DEFAULT.lsr

[File Description]


[Configuration]
Instrument Name	C0B7VH3-Instrument1
Instrument #	1
Line #	1
# of Detectors	3
Detector ID	DET#1	DET#2	DET#3
Detector Name	FID	PTCD	ECD
# of Channels	1	1	1

[Peak Table(Ch1)]
# of Peaks	3
Peak#	R.Time	I.Time	F.Time	Area	Height	A/H	Conc.	Mark	ID#	Name	k'	Plate #	Plate Ht.	Tailing	Resolution	Sep.Factor	Area Ratio	Height Ratio	Conc. %	Norm Conc.
1	1.472	1.424	1.531	5660	2764	2.048	0.000	   	1	CO	0.000	9733	15.412	1.382	0.000	0.000	0	0	0.000	0.000
2	1.560	1.531	1.615	4252	2205	1.928	20.730	 V 	2	CH4	0.060	11894	12.612	1.270	1.506	0.000	0	0	10.025	10.025
3	1.989	1.945	2.422	965382	462937	2.085	186.047	   	3	CO2	0.351	17505	8.569	1.285	7.311	5.875	0	0	89.975	89.975

[Peak Table(Ch2)]
# of Peaks	0

[Peak Table(Ch3)]
# of Peaks	4
Peak#	R.Time	I.Time	F.Time	Area	Height	A/H	Conc.	Mark	ID#	Name	k'	Plate #	Plate Ht.	Tailing	Resolution	Sep.Factor	Area Ratio	Height Ratio	Conc. %	Norm Conc.
1	2.499	2.440	2.543	3899	779	5.007	0.000	   			0.000	1411	106.327	0.000	0.000	0.000	0	0	0.000	0.000
2	2.565	2.543	2.656	4216	728	5.795	0.000	 V 			0.026	459	327.070	0.000	0.177	0.000	0	0	0.000	0.000
3	2.719	2.656	2.818	4943	561	8.804	0.000	 V 			0.088	30	5008.734	0.000	0.125	3.333	0	0	0.000	0.000
4	2.887	2.818	3.632	31171	5098	6.114	0.461	 V 	1	N2O	0.156	11913	12.592	0.000	0.161	1.767	0	0	100.000	100.000

[Compound Results(Ch1)]
# of IDs	6
ID#	Name	R.Time	Area	Height	Conc.	Curve	3rd	2nd	1st	Constant	Area Ratio	Height Ratio	Conc. %	Norm Conc.
1	CO	1.472	5660	2764	0.000	Linear	0.000000e+00	0.000000e+00	0.000000e+00	0.000000e+00	0	0	0.000	0.000
2	CH4	1.560	4252	2205	20.730	Linear	0.000000e+00	0.000000e+00	2.051179e+002	0.000000e+00	0	0	10.025	10.025
3	CO2	1.989	965382	462937	186.047	Linear	0.000000e+00	0.000000e+00	5.188919e+003	0.000000e+00	0	0	89.975	89.975
4	Ethylene	0.000	0	0	0.000	Linear	0.000000e+00	0.000000e+00	0.000000e+00	0.000000e+00	0	0	0.000	0.000
5	Acetylene	0.000	0	0	0.000	Linear	0.000000e+00	0.000000e+00	0.000000e+00	0.000000e+00	0	0	0.000	0.000
6	Ethane	0.000	0	0	0.000	Linear	0.000000e+00	0.000000e+00	0.000000e+00	0.000000e+00	0	0	0.000	0.000

[Compound Results(Ch2)]
# of IDs	5
ID#	Name	R.Time	Area	Height	Conc.	Curve	3rd	2nd	1st	Constant	Area Ratio	Height Ratio	Conc. %	Norm Conc.
1	Hydrogen	0.000	0	0	0.000	Linear	0.000000e+00	0.000000e+00	0.000000e+00	0.000000e+00	0	0	0.000	0.000
2	Oxygen	0.000	0	0	0.000	Linear	0.000000e+00	0.000000e+00	0.000000e+00	0.000000e+00	0	0	0.000	0.000
3	Nitrogen	0.000	0	0	0.000	Linear	0.000000e+00	0.000000e+00	0.000000e+00	0.000000e+00	0	0	0.000	0.000
4	Methane	0.000	0	0	0.000	Linear	0.000000e+00	0.000000e+00	0.000000e+00	0.000000e+00	0	0	0.000	0.000
5	Carbon Monoxide	0.000	0	0	0.000	Linear	0.000000e+00	0.000000e+00	0.000000e+00	0.000000e+00	0	0	0.000	0.000

[Compound Results(Ch3)]
# of IDs	2
ID#	Name	R.Time	Area	Height	Conc.	Curve	3rd	2nd	1st	Constant	Area Ratio	Height Ratio	Conc. %	Norm Conc.
1	N2O	2.887	31171	5098	0.461	Linear	0.000000e+00	0.000000e+00	6.759880e+004	0.000000e+00	0	0	100.000	100.000
2	SF6	0.000	0	0	0.000	Linear	0.000000e+00	0.000000e+00	0.000000e+00	0.000000e+00	0	0	0.000	0.000

[Group Results(Ch1)]
# of Groups	0

[Group Results(Ch2)]
# of Groups	0

[Group Results(Ch3)]
# of Groups	0

[Chromatogram (Ch1)]
Interval(msec)	220
# of Points	1091
Start Time(min)	0.002
End Time(min)	3.998
R.Time (min)	Intensity
0.00167	-48
0.00533	-45
0.00900	-41
0.01267	-33
0.01633	-25
0.02000	-17
0.02367	-12
0.02733	-8
0.03100	-4
0.03467	0
0.03833	3
0.04200	1
0.04567	-3
0.04933	-8
0.05300	-15
0.05667	-25
0.06033	-32
0.06400	-34
0.06767	-30
0.07133	-23
0.07500	-15
0.07867	-5
0.08233	6
0.08600	13
0.08967	16
0.09333	20
0.09700	22
0.10067	20
0.10433	15
0.10800	9
0.11167	2
0.11533	-5
0.11900	-12
0.12267	-21
0.12633	-28
0.13000	-29
0.13367	-25
0.13733	-19
0.14100	-16
0.14467	-16
0.14833	-17
0.15200	-19
0.15567	-22
0.15933	-27
0.16300	-29
0.16667	-30
0.17033	-30
0.17400	-31
0.17767	-29
0.18133	-23
0.18500	-17
0.18867	-11
0.19233	-7
0.19600	-3
0.19967	-3
0.20333	-5
0.20700	-11
0.21067	-18
0.21433	-25
0.21800	-31
0.22167	-33
0.22533	-33
0.22900	-31
0.23267	-28
0.23633	-24
0.24000	-21
0.24367	-17
0.24733	-12
0.25100	-7
0.25467	-5
0.25833	-5
0.26200	-9
0.26567	-14
0.26933	-18
0.27300	-19
0.27667	-16
0.28033	-13
0.28400	-13
0.28767	-16
0.29133	-20
0.29500	-19
0.29867	-9
0.30233	2
0.30600	6
0.30967	1
0.31333	-7
0.31700	-11
0.32067	-12
0.32433	-17
0.32800	-26
0.33167	-31
0.33533	-32
0.33900	-34
0.34267	-36
0.34633	-40
0.35000	-41
0.35367	-39
0.35733	-34
0.36100	-31
0.36467	-32
0.36833	-35
0.37200	-38
0.37567	-38
0.37933	-39
0.38300	-38
0.38667	-34
0.39033	-30
0.39400	-28
0.39767	-27
0.40133	-27
0.40500	-30
0.40867	-32
0.41233	-32
0.41600	-32
0.41967	-35
0.42333	-37
0.42700	-34
0.43067	-30
0.43433	-27
0.43800	-24
0.44167	-20
0.44533	-20
0.44900	-27
0.45267	-37
0.45633	-46
0.46000	-49
0.46367	-48
0.46733	-50
0.47100	-54
0.47467	-57
0.47833	-60
0.48200	-62
0.48567	-60
0.48933	-59
0.49300	-56
0.49667	-51
0.50033	-46
0.50400	-41
0.50767	-38
0.51133	-36
0.51500	-34
0.51867	-36
0.52233	-39
0.52600	-42
0.52967	-41
0.53333	-38
0.53700	-37
0.54067	-36
0.54433	-36
0.54800	-34
0.55167	-35
0.55533	-36
0.55900	-37
0.56267	-39
0.56633	-43
0.57000	-44
0.57367	-44
0.57733	-40
0.58100	-39
0.58467	-40
0.58833	-41
0.59200	-45
0.59567	-52
0.59933	-55
0.60300	-55
0.60667	-56
0.61033	-57
0.61400	-56
0.61767	-55
0.62133	-51
0.62500	-45
0.62867	-39
0.63233	-34
0.63600	-32
0.63967	-34
0.64333	-40
0.64700	-47
0.65067	-53
0.65433	-54
0.65800	-48
0.66167	-43
0.66533	-42
0.66900	-46
0.67267	-48
0.67633	-46
0.68000	-42
0.68367	-40
0.68733	-40
0.69100	-42
0.69467	-40
0.69833	-36
0.70200	-32
0.70567	-34
0.70933	-44
0.71300	-61
0.71667	-81
0.72033	-96
0.72400	-109
0.72767	-118
0.73133	-124
0.73500	-123
0.73867	-119
0.74233	-111
0.74600	-98
0.74967	-90
0.75333	-84
0.75700	-78
0.76067	-75
0.76433	-75
0.76800	-77
0.77167	-79
0.77533	-77
0.77900	-73
0.78267	-70
0.78633	-68
0.79000	-63
0.79367	-54
0.79733	-45
0.80100	-39
0.80467	-37
0.80833	-42
0.81200	-52
0.81567	-59
0.81933	-63
0.82300	-62
0.82667	-58
0.83033	-55
0.83400	-54
0.83767	-52
0.84133	-50
0.84500	-52
0.84867	-54
0.85233	-56
0.85600	-56
0.85967	-55
0.86333	-54
0.86700	-55
0.87067	-56
0.87433	-56
0.87800	-58
0.88167	-63
0.88533	-69
0.88900	-75
0.89267	-81
0.89633	-84
0.90000	-84
0.90367	-83
0.90733	-79
0.91100	-74
0.91467	-70
0.91833	-68
0.92200	-67
0.92567	-64
0.92933	-64
0.93300	-62
0.93667	-59
0.94033	-55
0.94400	-53
0.94767	-54
0.95133	-57
0.95500	-61
0.95867	-65
0.96233	-70
0.96600	-75
0.96967	-80
0.97333	-84
0.97700	-86
0.98067	-87
0.98433	-87
0.98800	-88
0.99167	-87
0.99533	-85
0.99900	-80
1.00267	-73
1.00633	-69
1.01000	-68
1.01367	-67
1.01733	-65
1.02100	-63
1.02467	-62
1.02833	-63
1.03200	-65
1.03567	-68
1.03933	-73
1.04300	-80
1.04667	-85
1.05033	-87
1.05400	-86
1.05767	-84
1.06133	-82
1.06500	-81
1.06867	-78
1.07233	-73
1.07600	-67
1.07967	-66
1.08333	-70
1.08700	-75
1.09067	-82
1.09433	-93
1.09800	-101
1.10167	-101
1.10533	-96
1.10900	-92
1.11267	-90
1.11633	-89
1.12000	-88
1.12367	-85
1.12733	-78
1.13100	-70
1.13467	-64
1.13833	-61
1.14200	-63
1.14567	-69
1.14933	-74
1.15300	-79
1.15667	-85
1.16033	-89
1.16400	-89
1.16767	-86
1.17133	-79
1.17500	-70
1.17867	-67
1.18233	-70
1.18600	-78
1.18967	-89
1.19333	-99
1.19700	-103
1.20067	-101
1.20433	-96
1.20800	-93
1.21167	-96
1.21533	-99
1.21900	-101
1.22267	-102
1.22633	-103
1.23000	-103
1.23367	-101
1.23733	-96
1.24100	-90
1.24467	-86
1.24833	-87
1.25200	-92
1.25567	-96
1.25933	-99
1.26300	-102
1.26667	-104
1.27033	-104
1.27400	-106
1.27767	-109
1.28133	-108
1.28500	-108
1.28867	-112
1.29233	-114
1.29600	-113
1.29967	-107
1.30333	-94
1.30700	-83
1.31067	-75
1.31433	-67
1.31800	-61
1.32167	-61
1.32533	-69
1.32900	-76
1.33267	-84
1.33633	-90
1.34000	-95
1.34367	-102
1.34733	-108
1.35100	-111
1.35467	-110
1.35833	-110
1.36200	-115
1.36567	-119
1.36933	-120
1.37300	-118
1.37667	-115
1.38033	-110
1.38400	-104
1.38767	-97
1.39133	-92
1.39500	-92
1.39867	-92
1.40233	-90
1.40600	-90
1.40967	-97
1.41333	-106
1.41700	-112
1.42067	-112
1.42433	-108
1.42800	-100
1.43167	-93
1.43533	-80
1.43900	-65
1.44267	-49
1.44633	47
1.45000	343
1.45367	828
1.45733	1380
1.46100	1886
1.46467	2295
1.46833	2568
1.47200	2658
1.47567	2538
1.47933	2237
1.48300	1832
1.48667	1414
1.49033	1040
1.49400	739
1.49767	511
1.50133	343
1.50500	222
1.50867	139
1.51233	86
1.51600	53
1.51967	24
1.52333	-8
1.52700	-39
1.53067	-56
1.53433	-30
1.53800	105
1.54167	398
1.54533	818
1.54900	1266
1.55267	1658
1.55633	1945
1.56000	2103
1.56367	2102
1.56733	1926
1.57100	1614
1.57467	1243
1.57833	887
1.58200	589
1.58567	362
1.58933	202
1.59300	95
1.59667	25
1.60033	-20
1.60400	-51
1.60767	-75
1.61133	-92
1.61500	-100
1.61867	-102
1.62233	-100
1.62600	-101
1.62967	-105
1.63333	-109
1.63700	-113
1.64067	-116
1.64433	-117
1.64800	-117
1.65167	-119
1.65533	-123
1.65900	-126
1.66267	-129
1.66633	-132
1.67000	-132
1.67367	-131
1.67733	-129
1.68100	-129
1.68467	-128
1.68833	-128
1.69200	-127
1.69567	-125
1.69933	-122
1.70300	-118
1.70667	-116
1.71033	-117
1.71400	-121
1.71767	-127
1.72133	-131
1.72500	-134
1.72867	-135
1.73233	-135
1.73600	-132
1.73967	-129
1.74333	-128
1.74700	-130
1.75067	-130
1.75433	-127
1.75800	-125
1.76167	-125
1.76533	-129
1.76900	-134
1.77267	-138
1.77633	-145
1.78000	-151
1.78367	-156
1.78733	-157
1.79100	-155
1.79467	-151
1.79833	-145
1.80200	-138
1.80567	-130
1.80933	-124
1.81300	-118
1.81667	-114
1.82033	-112
1.82400	-113
1.82767	-119
1.83133	-125
1.83500	-126
1.83867	-124
1.84233	-125
1.84600	-131
1.84967	-140
1.85333	-144
1.85700	-146
1.86067	-150
1.86433	-154
1.86800	-157
1.87167	-156
1.87533	-152
1.87900	-149
1.88267	-147
1.88633	-145
1.89000	-141
1.89367	-137
1.89733	-135
1.90100	-138
1.90467	-141
1.90833	-142
1.91200	-142
1.91567	-140
1.91933	-134
1.92300	-126
1.92667	-118
1.93033	-113
1.93400	-115
1.93767	-122
1.94133	-129
1.94500	-121
1.94867	-32
1.95233	488
1.95600	2816
1.95967	10674
1.96333	30960
1.96700	71806
1.97067	136897
1.97433	220590
1.97800	309212
1.98167	387128
1.98533	441131
1.98900	462840
1.99267	449884
1.99633	406820
2.00000	344080
2.00367	274406
2.00733	208520
2.01100	152767
2.01467	109197
2.01833	77014
2.02200	54150
2.02567	38317
2.02933	27521
2.03300	20203
2.03667	15234
2.04033	11828
2.04400	9460
2.04767	7782
2.05133	6563
2.05500	5656
2.05867	4965
2.06233	4427
2.06600	3998
2.06967	3647
2.07333	3354
2.07700	3104
2.08067	2889
2.08433	2700
2.08800	2536
2.09167	2392
2.09533	2263
2.09900	2147
2.10267	2041
2.10633	1943
2.11000	1850
2.11367	1762
2.11733	1680
2.12100	1606
2.12467	1538
2.12833	1473
2.13200	1412
2.13567	1356
2.13933	1306
2.14300	1258
2.14667	1215
2.15033	1176
2.15400	1136
2.15767	1097
2.16133	1059
2.16500	1022
2.16867	990
2.17233	961
2.17600	934
2.17967	908
2.18333	882
2.18700	856
2.19067	833
2.19433	813
2.19800	793
2.20167	773
2.20533	753
2.20900	731
2.21267	707
2.21633	679
2.22000	646
2.22367	615
2.22733	589
2.23100	570
2.23467	557
2.23833	549
2.24200	541
2.24567	533
2.24933	525
2.25300	516
2.25667	511
2.26033	508
2.26400	501
2.26767	487
2.27133	471
2.27500	455
2.27867	440
2.28233	426
2.28600	413
2.28967	400
2.29333	388
2.29700	377
2.30067	368
2.30433	363
2.30800	365
2.31167	370
2.31533	375
2.31900	369
2.32267	356
2.32633	343
2.33000	330
2.33367	317
2.33733	302
2.34100	286
2.34467	268
2.34833	253
2.35200	242
2.35567	235
2.35933	233
2.36300	234
2.36667	235
2.37033	235
2.37400	241
2.37767	252
2.38133	261
2.38500	266
2.38867	259
2.39233	244
2.39600	228
2.39967	215
2.40333	207
2.40700	198
2.41067	185
2.41433	172
2.41800	159
2.42167	149
2.42533	145
2.42900	145
2.43267	146
2.43633	148
2.44000	152
2.44367	156
2.44733	157
2.45100	159
2.45467	160
2.45833	158
2.46200	154
2.46567	154
2.46933	156
2.47300	160
2.47667	164
2.48033	162
2.48400	156
2.48767	149
2.49133	145
2.49500	146
2.49867	147
2.50233	142
2.50600	134
2.50967	131
2.51333	134
2.51700	135
2.52067	129
2.52433	123
2.52800	118
2.53167	114
2.53533	111
2.53900	109
2.54267	106
2.54633	99
2.55000	92
2.55367	88
2.55733	89
2.56100	90
2.56467	91
2.56833	92
2.57200	89
2.57567	82
2.57933	78
2.58300	78
2.58667	83
2.59033	90
2.59400	92
2.59767	89
2.60133	82
2.60500	77
2.60867	80
2.61233	86
2.61600	89
2.61967	87
2.62333	84
2.62700	76
2.63067	67
2.63433	57
2.63800	48
2.64167	44
2.64533	45
2.64900	46
2.65267	45
2.65633	43
2.66000	43
2.66367	45
2.66733	46
2.67100	48
2.67467	49
2.67833	47
2.68200	42
2.68567	38
2.68933	37
2.69300	37
2.69667	38
2.70033	38
2.70400	35
2.70767	30
2.71133	24
2.71500	18
2.71867	14
2.72233	12
2.72600	13
2.72967	16
2.73333	22
2.73700	30
2.74067	35
2.74433	39
2.74800	44
2.75167	48
2.75533	48
2.75900	39
2.76267	25
2.76633	15
2.77000	7
2.77367	1
2.77733	-1
2.78100	-2
2.78467	3
2.78833	10
2.79200	17
2.79567	19
2.79933	15
2.80300	10
2.80667	4
2.81033	-2
2.81400	-9
2.81767	-17
2.82133	-21
2.82500	-21
2.82867	-18
2.83233	-13
2.83600	-6
2.83967	-1
2.84333	-1
2.84700	-5
2.85067	-8
2.85433	-12
2.85800	-13
2.86167	-11
2.86533	-10
2.86900	-9
2.87267	-8
2.87633	-9
2.88000	-11
2.88367	-14
2.88733	-16
2.89100	-16
2.89467	-14
2.89833	-12
2.90200	-11
2.90567	-13
2.90933	-14
2.91300	-10
2.91667	-1
2.92033	7
2.92400	9
2.92767	7
2.93133	1
2.93500	-8
2.93867	-17
2.94233	-24
2.94600	-29
2.94967	-33
2.95333	-37
2.95700	-41
2.96067	-42
2.96433	-38
2.96800	-29
2.97167	-20
2.97533	-14
2.97900	-11
2.98267	-8
2.98633	-7
2.99000	-6
2.99367	-7
2.99733	-7
3.00100	-8
3.00467	-15
3.00833	-23
3.01200	-28
3.01567	-26
3.01933	-22
3.02300	-20
3.02667	-20
3.03033	-21
3.03400	-20
3.03767	-18
3.04133	-20
3.04500	-25
3.04867	-27
3.05233	-27
3.05600	-26
3.05967	-23
3.06333	-19
3.06700	-17
3.07067	-22
3.07433	-28
3.07800	-34
3.08167	-39
3.08533	-44
3.08900	-49
3.09267	-49
3.09633	-43
3.10000	-38
3.10367	-34
3.10733	-30
3.11100	-29
3.11467	-36
3.11833	-44
3.12200	-52
3.12567	-57
3.12933	-61
3.13300	-64
3.13667	-66
3.14033	-65
3.14400	-61
3.14767	-57
3.15133	-52
3.15500	-43
3.15867	-37
3.16233	-36
3.16600	-40
3.16967	-47
3.17333	-54
3.17700	-55
3.18067	-50
3.18433	-48
3.18800	-52
3.19167	-55
3.19533	-55
3.19900	-54
3.20267	-54
3.20633	-56
3.21000	-62
3.21367	-68
3.21733	-71
3.22100	-70
3.22467	-66
3.22833	-64
3.23200	-63
3.23567	-58
3.23933	-47
3.24300	-40
3.24667	-36
3.25033	-38
3.25400	-44
3.25767	-47
3.26133	-48
3.26500	-52
3.26867	-55
3.27233	-57
3.27600	-58
3.27967	-61
3.28333	-65
3.28700	-63
3.29067	-58
3.29433	-53
3.29800	-50
3.30167	-46
3.30533	-45
3.30900	-45
3.31267	-48
3.31633	-50
3.32000	-54
3.32367	-61
3.32733	-68
3.33100	-74
3.33467	-78
3.33833	-79
3.34200	-76
3.34567	-69
3.34933	-65
3.35300	-65
3.35667	-66
3.36033	-68
3.36400	-69
3.36767	-70
3.37133	-72
3.37500	-72
3.37867	-72
3.38233	-73
3.38600	-71
3.38967	-72
3.39333	-74
3.39700	-73
3.40067	-69
3.40433	-63
3.40800	-53
3.41167	-42
3.41533	-32
3.41900	-28
3.42267	-32
3.42633	-47
3.43000	-63
3.43367	-76
3.43733	-85
3.44100	-92
3.44467	-97
3.44833	-98
3.45200	-93
3.45567	-88
3.45933	-84
3.46300	-82
3.46667	-84
3.47033	-85
3.47400	-89
3.47767	-93
3.48133	-95
3.48500	-93
3.48867	-91
3.49233	-88
3.49600	-81
3.49967	-74
3.50333	-73
3.50700	-77
3.51067	-80
3.51433	-84
3.51800	-87
3.52167	-84
3.52533	-78
3.52900	-72
3.53267	-66
3.53633	-61
3.54000	-58
3.54367	-58
3.54733	-61
3.55100	-64
3.55467	-68
3.55833	-72
3.56200	-76
3.56567	-78
3.56933	-79
3.57300	-79
3.57667	-77
3.58033	-74
3.58400	-74
3.58767	-80
3.59133	-84
3.59500	-81
3.59867	-74
3.60233	-72
3.60600	-77
3.60967	-85
3.61333	-90
3.61700	-90
3.62067	-84
3.62433	-73
3.62800	-65
3.63167	-66
3.63533	-72
3.63900	-81
3.64267	-86
3.64633	-88
3.65000	-90
3.65367	-90
3.65733	-93
3.66100	-99
3.66467	-102
3.66833	-99
3.67200	-95
3.67567	-90
3.67933	-88
3.68300	-90
3.68667	-95
3.69033	-98
3.69400	-97
3.69767	-92
3.70133	-87
3.70500	-84
3.70867	-80
3.71233	-75
3.71600	-71
3.71967	-70
3.72333	-73
3.72700	-80
3.73067	-87
3.73433	-94
3.73800	-102
3.74167	-110
3.74533	-116
3.74900	-123
3.75267	-127
3.75633	-127
3.76000	-125
3.76367	-121
3.76733	-116
3.77100	-112
3.77467	-109
3.77833	-107
3.78200	-106
3.78567	-104
3.78933	-99
3.79300	-94
3.79667	-90
3.80033	-89
3.80400	-89
3.80767	-91
3.81133	-92
3.81500	-90
3.81867	-89
3.82233	-92
3.82600	-98
3.82967	-101
3.83333	-104
3.83700	-106
3.84067	-105
3.84433	-98
3.84800	-91
3.85167	-85
3.85533	-82
3.85900	-83
3.86267	-89
3.86633	-93
3.87000	-97
3.87367	-100
3.87733	-103
3.88100	-102
3.88467	-99
3.88833	-96
3.89200	-95
3.89567	-95
3.89933	-98
3.90300	-98
3.90667	-98
3.91033	-95
3.91400	-91
3.91767	-90
3.92133	-92
3.92500	-95
3.92867	-98
3.93233	-98
3.93600	-95
3.93967	-90
3.94333	-86
3.94700	-86
3.95067	-93
3.95433	-99
3.95800	-98
3.96167	-93
3.96533	-92
3.96900	-93
3.97267	-97
3.97633	-101
3.98000	-106
3.98367	-111
3.98733	-118
3.99100	-124
3.99467	-129
3.99833	-133

[Chromatogram (Ch2)]
Interval(msec)	220
# of Points	1091
Start Time(min)	0.002
End Time(min)	3.998
R.Time (min)	Intensity
0.00167	-1
0.00533	-1
0.00900	-0
0.01267	-0
0.01633	-0
0.02000	-0
0.02367	-0
0.02733	-0
0.03100	-0
0.03467	-0
0.03833	-0
0.04200	-0
0.04567	-0
0.04933	-0
0.05300	-0
0.05667	-1
0.06033	-1
0.06400	-1
0.06767	-1
0.07133	-1
0.07500	-1
0.07867	-1
0.08233	-1
0.08600	-1
0.08967	-1
0.09333	-1
0.09700	-0
0.10067	0
0.10433	0
0.10800	1
0.11167	1
0.11533	1
0.11900	1
0.12267	1
0.12633	1
0.13000	1
0.13367	1
0.13733	1
0.14100	1
0.14467	1
0.14833	1
0.15200	1
0.15567	1
0.15933	1
0.16300	1
0.16667	1
0.17033	0
0.17400	-0
0.17767	-1
0.18133	-1
0.18500	-1
0.18867	-2
0.19233	-2
0.19600	-2
0.19967	-3
0.20333	-3
0.20700	-3
0.21067	-3
0.21433	-3
0.21800	-3
0.22167	-3
0.22533	-3
0.22900	-3
0.23267	-3
0.23633	-2
0.24000	-2
0.24367	-2
0.24733	-2
0.25100	-2
0.25467	-2
0.25833	-2
0.26200	-1
0.26567	-1
0.26933	-1
0.27300	-2
0.27667	-2
0.28033	-2
0.28400	-2
0.28767	-3
0.29133	-3
0.29500	-3
0.29867	-3
0.30233	-3
0.30600	-3
0.30967	-4
0.31333	-4
0.31700	-4
0.32067	-4
0.32433	-4
0.32800	-4
0.33167	-4
0.33533	-4
0.33900	-4
0.34267	-4
0.34633	-4
0.35000	-4
0.35367	-4
0.35733	-4
0.36100	-4
0.36467	-4
0.36833	-4
0.37200	-4
0.37567	-4
0.37933	-4
0.38300	-4
0.38667	-4
0.39033	-4
0.39400	-4
0.39767	-4
0.40133	-4
0.40500	-4
0.40867	-4
0.41233	-4
0.41600	-4
0.41967	-4
0.42333	-4
0.42700	-4
0.43067	-4
0.43433	-4
0.43800	-4
0.44167	-4
0.44533	-3
0.44900	-3
0.45267	-3
0.45633	-3
0.46000	-3
0.46367	-3
0.46733	-3
0.47100	-3
0.47467	-3
0.47833	-3
0.48200	-3
0.48567	-3
0.48933	-3
0.49300	-2
0.49667	-2
0.50033	-2
0.50400	-2
0.50767	-2
0.51133	-1
0.51500	-1
0.51867	-2
0.52233	-2
0.52600	-2
0.52967	-2
0.53333	-3
0.53700	-3
0.54067	-3
0.54433	-4
0.54800	-4
0.55167	-5
0.55533	-5
0.55900	-5
0.56267	-5
0.56633	-6
0.57000	-6
0.57367	-6
0.57733	-6
0.58100	-7
0.58467	-7
0.58833	-7
0.59200	-7
0.59567	-6
0.59933	-6
0.60300	-6
0.60667	-6
0.61033	-6
0.61400	-5
0.61767	-5
0.62133	-5
0.62500	-5
0.62867	-5
0.63233	-5
0.63600	-5
0.63967	-5
0.64333	-4
0.64700	-4
0.65067	-4
0.65433	-4
0.65800	-4
0.66167	-4
0.66533	-4
0.66900	-4
0.67267	-4
0.67633	-4
0.68000	-5
0.68367	-5
0.68733	-5
0.69100	-5
0.69467	-5
0.69833	-5
0.70200	-5
0.70567	-4
0.70933	-4
0.71300	-3
0.71667	-3
0.72033	-3
0.72400	-3
0.72767	-2
0.73133	-2
0.73500	-2
0.73867	-2
0.74233	-2
0.74600	-2
0.74967	-3
0.75333	-3
0.75700	-3
0.76067	-3
0.76433	-3
0.76800	-3
0.77167	-3
0.77533	-3
0.77900	-3
0.78267	-3
0.78633	-3
0.79000	-3
0.79367	-3
0.79733	-3
0.80100	-3
0.80467	-3
0.80833	-3
0.81200	-3
0.81567	-3
0.81933	-3
0.82300	-3
0.82667	-3
0.83033	-3
0.83400	-3
0.83767	-3
0.84133	-3
0.84500	-3
0.84867	-3
0.85233	-4
0.85600	-4
0.85967	-4
0.86333	-4
0.86700	-5
0.87067	-5
0.87433	-5
0.87800	-5
0.88167	-5
0.88533	-5
0.88900	-5
0.89267	-5
0.89633	-5
0.90000	-5
0.90367	-5
0.90733	-5
0.91100	-5
0.91467	-5
0.91833	-5
0.92200	-5
0.92567	-5
0.92933	-4
0.93300	-4
0.93667	-4
0.94033	-4
0.94400	-4
0.94767	-4
0.95133	-4
0.95500	-4
0.95867	-5
0.96233	-4
0.96600	-4
0.96967	-4
0.97333	-3
0.97700	-3
0.98067	-2
0.98433	-2
0.98800	-2
0.99167	-1
0.99533	-1
0.99900	-1
1.00267	-1
1.00633	-1
1.01000	-0
1.01367	-0
1.01733	-0
1.02100	-0
1.02467	-0
1.02833	-0
1.03200	-0
1.03567	-0
1.03933	-1
1.04300	-1
1.04667	-1
1.05033	-2
1.05400	-2
1.05767	-3
1.06133	-3
1.06500	-3
1.06867	-4
1.07233	-4
1.07600	-4
1.07967	-5
1.08333	-5
1.08700	-5
1.09067	-5
1.09433	-5
1.09800	-6
1.10167	-6
1.10533	-6
1.10900	-6
1.11267	-6
1.11633	-6
1.12000	-6
1.12367	-6
1.12733	-6
1.13100	-6
1.13467	-6
1.13833	-6
1.14200	-6
1.14567	-6
1.14933	-6
1.15300	-6
1.15667	-6
1.16033	-6
1.16400	-6
1.16767	-6
1.17133	-6
1.17500	-6
1.17867	-6
1.18233	-6
1.18600	-6
1.18967	-5
1.19333	-5
1.19700	-5
1.20067	-5
1.20433	-4
1.20800	-4
1.21167	-4
1.21533	-4
1.21900	-4
1.22267	-4
1.22633	-4
1.23000	-4
1.23367	-4
1.23733	-4
1.24100	-4
1.24467	-4
1.24833	-4
1.25200	-4
1.25567	-4
1.25933	-4
1.26300	-3
1.26667	-3
1.27033	-3
1.27400	-3
1.27767	-3
1.28133	-3
1.28500	-3
1.28867	-3
1.29233	-3
1.29600	-3
1.29967	-4
1.30333	-4
1.30700	-4
1.31067	-5
1.31433	-5
1.31800	-5
1.32167	-6
1.32533	-6
1.32900	-6
1.33267	-6
1.33633	-7
1.34000	-7
1.34367	-7
1.34733	-7
1.35100	-8
1.35467	-8
1.35833	-8
1.36200	-7
1.36567	-7
1.36933	-7
1.37300	-7
1.37667	-7
1.38033	-6
1.38400	-6
1.38767	-5
1.39133	-5
1.39500	-5
1.39867	-5
1.40233	-5
1.40600	-5
1.40967	-5
1.41333	-5
1.41700	-5
1.42067	-5
1.42433	-5
1.42800	-5
1.43167	-5
1.43533	-6
1.43900	-6
1.44267	-6
1.44633	-6
1.45000	-6
1.45367	-7
1.45733	-7
1.46100	-7
1.46467	-7
1.46833	-7
1.47200	-7
1.47567	-6
1.47933	-6
1.48300	-6
1.48667	-6
1.49033	-6
1.49400	-6
1.49767	-6
1.50133	-5
1.50500	-5
1.50867	-5
1.51233	-5
1.51600	-5
1.51967	-5
1.52333	-5
1.52700	-5
1.53067	-5
1.53433	-6
1.53800	-6
1.54167	-6
1.54533	-6
1.54900	-6
1.55267	-6
1.55633	-6
1.56000	-6
1.56367	-7
1.56733	-7
1.57100	-7
1.57467	-6
1.57833	-6
1.58200	-6
1.58567	-6
1.58933	-7
1.59300	-7
1.59667	-8
1.60033	-8
1.60400	-9
1.60767	-11
1.61133	-12
1.61500	-14
1.61867	-16
1.62233	-18
1.62600	-21
1.62967	-24
1.63333	-27
1.63700	-30
1.64067	-34
1.64433	-37
1.64800	-40
1.65167	-43
1.65533	-47
1.65900	-50
1.66267	-54
1.66633	-58
1.67000	-62
1.67367	-67
1.67733	-71
1.68100	-75
1.68467	-80
1.68833	-83
1.69200	-86
1.69567	-89
1.69933	-91
1.70300	-93
1.70667	-95
1.71033	-97
1.71400	-98
1.71767	-99
1.72133	-100
1.72500	-102
1.72867	-103
1.73233	-103
1.73600	-104
1.73967	-104
1.74333	-104
1.74700	-104
1.75067	-104
1.75433	-103
1.75800	-103
1.76167	-104
1.76533	-104
1.76900	-105
1.77267	-106
1.77633	-106
1.78000	-106
1.78367	-106
1.78733	-105
1.79100	-104
1.79467	-104
1.79833	-103
1.80200	-103
1.80567	-103
1.80933	-103
1.81300	-103
1.81667	-103
1.82033	-104
1.82400	-104
1.82767	-104
1.83133	-104
1.83500	-104
1.83867	-104
1.84233	-105
1.84600	-105
1.84967	-105
1.85333	-105
1.85700	-105
1.86067	-105
1.86433	-105
1.86800	-105
1.87167	-105
1.87533	-106
1.87900	-106
1.88267	-105
1.88633	-105
1.89000	-105
1.89367	-105
1.89733	-105
1.90100	-105
1.90467	-105
1.90833	-105
1.91200	-104
1.91567	-104
1.91933	-104
1.92300	-104
1.92667	-104
1.93033	-104
1.93400	-104
1.93767	-104
1.94133	-104
1.94500	-103
1.94867	-103
1.95233	-103
1.95600	-103
1.95967	-103
1.96333	-102
1.96700	-101
1.97067	-100
1.97433	-100
1.97800	-100
1.98167	-100
1.98533	-100
1.98900	-100
1.99267	-100
1.99633	-101
2.00000	-101
2.00367	-101
2.00733	-101
2.01100	-100
2.01467	-100
2.01833	-99
2.02200	-99
2.02567	-99
2.02933	-98
2.03300	-98
2.03667	-97
2.04033	-97
2.04400	-97
2.04767	-97
2.05133	-97
2.05500	-97
2.05867	-97
2.06233	-97
2.06600	-96
2.06967	-96
2.07333	-95
2.07700	-94
2.08067	-94
2.08433	-94
2.08800	-94
2.09167	-94
2.09533	-93
2.09900	-93
2.10267	-93
2.10633	-92
2.11000	-92
2.11367	-91
2.11733	-90
2.12100	-90
2.12467	-90
2.12833	-90
2.13200	-90
2.13567	-89
2.13933	-89
2.14300	-89
2.14667	-89
2.15033	-88
2.15400	-88
2.15767	-87
2.16133	-87
2.16500	-88
2.16867	-88
2.17233	-88
2.17600	-88
2.17967	-87
2.18333	-87
2.18700	-87
2.19067	-86
2.19433	-86
2.19800	-86
2.20167	-85
2.20533	-85
2.20900	-85
2.21267	-85
2.21633	-84
2.22000	-84
2.22367	-84
2.22733	-84
2.23100	-84
2.23467	-84
2.23833	-83
2.24200	-82
2.24567	-81
2.24933	-80
2.25300	-79
2.25667	-78
2.26033	-77
2.26400	-77
2.26767	-77
2.27133	-77
2.27500	-78
2.27867	-78
2.28233	-79
2.28600	-79
2.28967	-79
2.29333	-78
2.29700	-77
2.30067	-77
2.30433	-76
2.30800	-76
2.31167	-76
2.31533	-76
2.31900	-77
2.32267	-77
2.32633	-78
2.33000	-77
2.33367	-77
2.33733	-76
2.34100	-75
2.34467	-73
2.34833	-72
2.35200	-70
2.35567	-68
2.35933	-67
2.36300	-66
2.36667	-65
2.37033	-63
2.37400	-61
2.37767	-58
2.38133	-55
2.38500	-52
2.38867	-48
2.39233	-44
2.39600	-40
2.39967	-36
2.40333	-32
2.40700	-28
2.41067	-24
2.41433	-21
2.41800	-18
2.42167	-15
2.42533	-13
2.42900	-11
2.43267	-9
2.43633	-6
2.44000	-4
2.44367	-2
2.44733	-0
2.45100	2
2.45467	3
2.45833	4
2.46200	4
2.46567	5
2.46933	6
2.47300	7
2.47667	8
2.48033	9
2.48400	9
2.48767	10
2.49133	10
2.49500	10
2.49867	11
2.50233	11
2.50600	11
2.50967	11
2.51333	11
2.51700	11
2.52067	11
2.52433	11
2.52800	11
2.53167	11
2.53533	11
2.53900	11
2.54267	11
2.54633	11
2.55000	10
2.55367	10
2.55733	9
2.56100	9
2.56467	9
2.56833	9
2.57200	9
2.57567	10
2.57933	10
2.58300	11
2.58667	11
2.59033	11
2.59400	12
2.59767	12
2.60133	13
2.60500	13
2.60867	13
2.61233	13
2.61600	14
2.61967	14
2.62333	14
2.62700	14
2.63067	14
2.63433	14
2.63800	13
2.64167	13
2.64533	13
2.64900	14
2.65267	14
2.65633	15
2.66000	16
2.66367	17
2.66733	18
2.67100	19
2.67467	20
2.67833	20
2.68200	21
2.68567	21
2.68933	20
2.69300	20
2.69667	20
2.70033	20
2.70400	20
2.70767	20
2.71133	21
2.71500	21
2.71867	22
2.72233	23
2.72600	23
2.72967	24
2.73333	25
2.73700	25
2.74067	25
2.74433	25
2.74800	25
2.75167	24
2.75533	24
2.75900	24
2.76267	24
2.76633	23
2.77000	23
2.77367	24
2.77733	24
2.78100	24
2.78467	24
2.78833	24
2.79200	24
2.79567	25
2.79933	25
2.80300	25
2.80667	25
2.81033	25
2.81400	25
2.81767	26
2.82133	26
2.82500	26
2.82867	26
2.83233	26
2.83600	26
2.83967	26
2.84333	26
2.84700	26
2.85067	26
2.85433	25
2.85800	24
2.86167	22
2.86533	18
2.86900	11
2.87267	0
2.87633	-14
2.88000	-33
2.88367	-57
2.88733	-86
2.89100	-121
2.89467	-160
2.89833	-205
2.90200	-253
2.90567	-306
2.90933	-363
2.91300	-422
2.91667	-483
2.92033	-545
2.92400	-608
2.92767	-671
2.93133	-732
2.93500	-792
2.93867	-847
2.94233	-900
2.94600	-953
2.94967	-1008
2.95333	-1061
2.95700	-1100
2.96067	-1118
2.96433	-1111
2.96800	-1079
2.97167	-1027
2.97533	-960
2.97900	-884
2.98267	-803
2.98633	-722
2.99000	-643
2.99367	-567
2.99733	-498
3.00100	-434
3.00467	-377
3.00833	-325
3.01200	-280
3.01567	-240
3.01933	-205
3.02300	-174
3.02667	-148
3.03033	-125
3.03400	-105
3.03767	-88
3.04133	-73
3.04500	-61
3.04867	-51
3.05233	-42
3.05600	-34
3.05967	-27
3.06333	-22
3.06700	-17
3.07067	-13
3.07433	-10
3.07800	-7
3.08167	-4
3.08533	-2
3.08900	0
3.09267	2
3.09633	4
3.10000	5
3.10367	6
3.10733	8
3.11100	8
3.11467	9
3.11833	10
3.12200	11
3.12567	11
3.12933	12
3.13300	13
3.13667	13
3.14033	13
3.14400	13
3.14767	14
3.15133	14
3.15500	14
3.15867	14
3.16233	14
3.16600	14
3.16967	15
3.17333	15
3.17700	16
3.18067	16
3.18433	16
3.18800	17
3.19167	17
3.19533	17
3.19900	18
3.20267	18
3.20633	18
3.21000	19
3.21367	19
3.21733	20
3.22100	20
3.22467	20
3.22833	20
3.23200	21
3.23567	21
3.23933	21
3.24300	22
3.24667	22
3.25033	22
3.25400	23
3.25767	23
3.26133	23
3.26500	23
3.26867	23
3.27233	23
3.27600	23
3.27967	23
3.28333	23
3.28700	23
3.29067	23
3.29433	23
3.29800	23
3.30167	24
3.30533	24
3.30900	24
3.31267	24
3.31633	24
3.32000	24
3.32367	24
3.32733	24
3.33100	24
3.33467	24
3.33833	24
3.34200	24
3.34567	24
3.34933	24
3.35300	24
3.35667	24
3.36033	23
3.36400	24
3.36767	24
3.37133	24
3.37500	24
3.37867	24
3.38233	24
3.38600	24
3.38967	24
3.39333	24
3.39700	24
3.40067	24
3.40433	25
3.40800	25
3.41167	25
3.41533	25
3.41900	25
3.42267	25
3.42633	25
3.43000	25
3.43367	25
3.43733	25
3.44100	25
3.44467	25
3.44833	25
3.45200	25
3.45567	25
3.45933	25
3.46300	25
3.46667	26
3.47033	26
3.47400	26
3.47767	26
3.48133	26
3.48500	26
3.48867	26
3.49233	26
3.49600	26
3.49967	26
3.50333	26
3.50700	26
3.51067	26
3.51433	26
3.51800	26
3.52167	26
3.52533	26
3.52900	26
3.53267	26
3.53633	26
3.54000	26
3.54367	26
3.54733	26
3.55100	26
3.55467	26
3.55833	26
3.56200	25
3.56567	25
3.56933	25
3.57300	25
3.57667	25
3.58033	25
3.58400	25
3.58767	25
3.59133	25
3.59500	25
3.59867	25
3.60233	25
3.60600	25
3.60967	25
3.61333	25
3.61700	25
3.62067	25
3.62433	25
3.62800	26
3.63167	26
3.63533	25
3.63900	25
3.64267	25
3.64633	26
3.65000	26
3.65367	26
3.65733	26
3.66100	26
3.66467	26
3.66833	26
3.67200	26
3.67567	26
3.67933	25
3.68300	25
3.68667	25
3.69033	25
3.69400	25
3.69767	25
3.70133	25
3.70500	25
3.70867	25
3.71233	25
3.71600	25
3.71967	25
3.72333	25
3.72700	26
3.73067	26
3.73433	26
3.73800	27
3.74167	27
3.74533	27
3.74900	27
3.75267	27
3.75633	27
3.76000	27
3.76367	27
3.76733	27
3.77100	27
3.77467	27
3.77833	26
3.78200	26
3.78567	26
3.78933	26
3.79300	26
3.79667	25
3.80033	25
3.80400	25
3.80767	25
3.81133	25
3.81500	25
3.81867	25
3.82233	25
3.82600	25
3.82967	25
3.83333	25
3.83700	25
3.84067	26
3.84433	26
3.84800	26
3.85167	26
3.85533	26
3.85900	26
3.86267	26
3.86633	26
3.87000	26
3.87367	26
3.87733	25
3.88100	25
3.88467	26
3.88833	26
3.89200	26
3.89567	26
3.89933	26
3.90300	26
3.90667	26
3.91033	26
3.91400	26
3.91767	26
3.92133	26
3.92500	26
3.92867	27
3.93233	27
3.93600	27
3.93967	27
3.94333	26
3.94700	26
3.95067	26
3.95433	26
3.95800	25
3.96167	25
3.96533	25
3.96900	25
3.97267	25
3.97633	25
3.98000	25
3.98367	25
3.98733	25
3.99100	25
3.99467	25
3.99833	25

[Chromatogram (Ch3)]
Interval(msec)	220
# of Points	1091
Start Time(min)	0.002
End Time(min)	3.998
R.Time (min)	Intensity
0.00167	1
0.00533	3
0.00900	4
0.01267	2
0.01633	-0
0.02000	-0
0.02367	1
0.02733	2
0.03100	3
0.03467	1
0.03833	-1
0.04200	-2
0.04567	-1
0.04933	-1
0.05300	2
0.05667	4
0.06033	5
0.06400	4
0.06767	3
0.07133	2
0.07500	4
0.07867	7
0.08233	7
0.08600	9
0.08967	10
0.09333	8
0.09700	6
0.10067	4
0.10433	2
0.10800	-0
0.11167	-3
0.11533	-2
0.11900	0
0.12267	3
0.12633	4
0.13000	5
0.13367	6
0.13733	8
0.14100	10
0.14467	9
0.14833	7
0.15200	5
0.15567	2
0.15933	2
0.16300	3
0.16667	3
0.17033	3
0.17400	4
0.17767	5
0.18133	5
0.18500	3
0.18867	2
0.19233	4
0.19600	6
0.19967	6
0.20333	7
0.20700	9
0.21067	8
0.21433	6
0.21800	6
0.22167	4
0.22533	4
0.22900	5
0.23267	5
0.23633	4
0.24000	5
0.24367	5
0.24733	7
0.25100	9
0.25467	9
0.25833	8
0.26200	8
0.26567	8
0.26933	7
0.27300	7
0.27667	8
0.28033	11
0.28400	14
0.28767	15
0.29133	14
0.29500	9
0.29867	7
0.30233	6
0.30600	4
0.30967	3
0.31333	6
0.31700	7
0.32067	9
0.32433	11
0.32800	12
0.33167	10
0.33533	7
0.33900	5
0.34267	6
0.34633	6
0.35000	8
0.35367	10
0.35733	10
0.36100	9
0.36467	9
0.36833	9
0.37200	9
0.37567	10
0.37933	12
0.38300	11
0.38667	11
0.39033	10
0.39400	9
0.39767	8
0.40133	7
0.40500	9
0.40867	9
0.41233	9
0.41600	9
0.41967	7
0.42333	7
0.42700	9
0.43067	9
0.43433	9
0.43800	10
0.44167	9
0.44533	6
0.44900	5
0.45267	5
0.45633	6
0.46000	8
0.46367	9
0.46733	10
0.47100	10
0.47467	9
0.47833	7
0.48200	8
0.48567	10
0.48933	13
0.49300	15
0.49667	15
0.50033	14
0.50400	16
0.50767	16
0.51133	16
0.51500	15
0.51867	15
0.52233	16
0.52600	15
0.52967	14
0.53333	13
0.53700	14
0.54067	14
0.54433	13
0.54800	12
0.55167	12
0.55533	13
0.55900	12
0.56267	11
0.56633	8
0.57000	6
0.57367	5
0.57733	6
0.58100	9
0.58467	12
0.58833	13
0.59200	13
0.59567	12
0.59933	11
0.60300	11
0.60667	13
0.61033	12
0.61400	11
0.61767	11
0.62133	10
0.62500	10
0.62867	11
0.63233	13
0.63600	12
0.63967	13
0.64333	13
0.64700	14
0.65067	16
0.65433	15
0.65800	13
0.66167	13
0.66533	12
0.66900	11
0.67267	12
0.67633	13
0.68000	14
0.68367	13
0.68733	14
0.69100	16
0.69467	16
0.69833	14
0.70200	12
0.70567	11
0.70933	12
0.71300	14
0.71667	16
0.72033	16
0.72400	14
0.72767	15
0.73133	17
0.73500	18
0.73867	18
0.74233	18
0.74600	20
0.74967	22
0.75333	21
0.75700	20
0.76067	18
0.76433	16
0.76800	16
0.77167	18
0.77533	19
0.77900	19
0.78267	19
0.78633	19
0.79000	19
0.79367	20
0.79733	19
0.80100	20
0.80467	20
0.80833	19
0.81200	19
0.81567	17
0.81933	15
0.82300	15
0.82667	15
0.83033	16
0.83400	18
0.83767	19
0.84133	19
0.84500	18
0.84867	19
0.85233	20
0.85600	21
0.85967	21
0.86333	20
0.86700	19
0.87067	19
0.87433	19
0.87800	18
0.88167	17
0.88533	16
0.88900	16
0.89267	16
0.89633	15
0.90000	15
0.90367	15
0.90733	17
0.91100	18
0.91467	18
0.91833	19
0.92200	18
0.92567	19
0.92933	20
0.93300	19
0.93667	17
0.94033	14
0.94400	13
0.94767	15
0.95133	15
0.95500	14
0.95867	15
0.96233	17
0.96600	16
0.96967	16
0.97333	18
0.97700	19
0.98067	20
0.98433	19
0.98800	18
0.99167	18
0.99533	18
0.99900	17
1.00267	16
1.00633	17
1.01000	18
1.01367	19
1.01733	21
1.02100	23
1.02467	25
1.02833	26
1.03200	25
1.03567	21
1.03933	20
1.04300	20
1.04667	22
1.05033	22
1.05400	21
1.05767	19
1.06133	17
1.06500	16
1.06867	15
1.07233	14
1.07600	14
1.07967	17
1.08333	18
1.08700	21
1.09067	22
1.09433	22
1.09800	22
1.10167	23
1.10533	23
1.10900	23
1.11267	23
1.11633	22
1.12000	20
1.12367	19
1.12733	19
1.13100	19
1.13467	19
1.13833	21
1.14200	23
1.14567	23
1.14933	23
1.15300	23
1.15667	22
1.16033	24
1.16400	25
1.16767	26
1.17133	24
1.17500	24
1.17867	24
1.18233	23
1.18600	24
1.18967	26
1.19333	27
1.19700	27
1.20067	27
1.20433	27
1.20800	27
1.21167	28
1.21533	29
1.21900	29
1.22267	29
1.22633	30
1.23000	29
1.23367	27
1.23733	24
1.24100	24
1.24467	22
1.24833	21
1.25200	21
1.25567	20
1.25933	19
1.26300	21
1.26667	22
1.27033	22
1.27400	23
1.27767	25
1.28133	26
1.28500	28
1.28867	29
1.29233	28
1.29600	24
1.29967	24
1.30333	23
1.30700	23
1.31067	25
1.31433	25
1.31800	25
1.32167	25
1.32533	27
1.32900	28
1.33267	28
1.33633	27
1.34000	26
1.34367	25
1.34733	25
1.35100	23
1.35467	23
1.35833	24
1.36200	26
1.36567	26
1.36933	24
1.37300	25
1.37667	26
1.38033	26
1.38400	28
1.38767	29
1.39133	31
1.39500	32
1.39867	32
1.40233	31
1.40600	31
1.40967	30
1.41333	31
1.41700	30
1.42067	28
1.42433	24
1.42800	22
1.43167	23
1.43533	25
1.43900	27
1.44267	27
1.44633	25
1.45000	25
1.45367	25
1.45733	26
1.46100	27
1.46467	29
1.46833	28
1.47200	27
1.47567	27
1.47933	25
1.48300	24
1.48667	24
1.49033	24
1.49400	24
1.49767	24
1.50133	24
1.50500	24
1.50867	23
1.51233	21
1.51600	21
1.51967	22
1.52333	23
1.52700	21
1.53067	20
1.53433	21
1.53800	24
1.54167	23
1.54533	22
1.54900	22
1.55267	22
1.55633	22
1.56000	22
1.56367	23
1.56733	23
1.57100	23
1.57467	23
1.57833	23
1.58200	25
1.58567	26
1.58933	27
1.59300	29
1.59667	28
1.60033	27
1.60400	26
1.60767	26
1.61133	25
1.61500	25
1.61867	26
1.62233	28
1.62600	31
1.62967	32
1.63333	32
1.63700	33
1.64067	35
1.64433	35
1.64800	32
1.65167	32
1.65533	31
1.65900	30
1.66267	30
1.66633	30
1.67000	31
1.67367	32
1.67733	31
1.68100	31
1.68467	30
1.68833	32
1.69200	34
1.69567	35
1.69933	33
1.70300	33
1.70667	35
1.71033	35
1.71400	36
1.71767	35
1.72133	37
1.72500	36
1.72867	35
1.73233	36
1.73600	37
1.73967	39
1.74333	39
1.74700	38
1.75067	37
1.75433	34
1.75800	32
1.76167	33
1.76533	35
1.76900	37
1.77267	37
1.77633	39
1.78000	42
1.78367	44
1.78733	43
1.79100	42
1.79467	44
1.79833	44
1.80200	45
1.80567	46
1.80933	46
1.81300	46
1.81667	46
1.82033	47
1.82400	48
1.82767	49
1.83133	48
1.83500	48
1.83867	47
1.84233	45
1.84600	44
1.84967	43
1.85333	44
1.85700	46
1.86067	49
1.86433	49
1.86800	49
1.87167	49
1.87533	51
1.87900	52
1.88267	53
1.88633	55
1.89000	55
1.89367	53
1.89733	52
1.90100	50
1.90467	50
1.90833	50
1.91200	52
1.91567	53
1.91933	52
1.92300	53
1.92667	55
1.93033	56
1.93400	57
1.93767	58
1.94133	60
1.94500	61
1.94867	62
1.95233	63
1.95600	65
1.95967	66
1.96333	64
1.96700	64
1.97067	64
1.97433	64
1.97800	64
1.98167	65
1.98533	67
1.98900	70
1.99267	69
1.99633	69
2.00000	70
2.00367	70
2.00733	71
2.01100	70
2.01467	70
2.01833	72
2.02200	73
2.02567	75
2.02933	75
2.03300	75
2.03667	75
2.04033	78
2.04400	80
2.04767	84
2.05133	86
2.05500	87
2.05867	88
2.06233	87
2.06600	87
2.06967	87
2.07333	87
2.07700	85
2.08067	86
2.08433	87
2.08800	87
2.09167	87
2.09533	88
2.09900	90
2.10267	93
2.10633	96
2.11000	97
2.11367	97
2.11733	96
2.12100	96
2.12467	95
2.12833	97
2.13200	99
2.13567	99
2.13933	98
2.14300	97
2.14667	97
2.15033	99
2.15400	100
2.15767	101
2.16133	102
2.16500	100
2.16867	99
2.17233	102
2.17600	104
2.17967	104
2.18333	105
2.18700	106
2.19067	107
2.19433	108
2.19800	107
2.20167	107
2.20533	108
2.20900	109
2.21267	110
2.21633	111
2.22000	113
2.22367	113
2.22733	112
2.23100	110
2.23467	108
2.23833	108
2.24200	110
2.24567	110
2.24933	110
2.25300	109
2.25667	109
2.26033	108
2.26400	109
2.26767	110
2.27133	111
2.27500	112
2.27867	112
2.28233	111
2.28600	110
2.28967	110
2.29333	109
2.29700	109
2.30067	110
2.30433	111
2.30800	111
2.31167	112
2.31533	115
2.31900	116
2.32267	116
2.32633	118
2.33000	119
2.33367	121
2.33733	123
2.34100	122
2.34467	121
2.34833	122
2.35200	123
2.35567	123
2.35933	124
2.36300	126
2.36667	127
2.37033	126
2.37400	127
2.37767	127
2.38133	127
2.38500	126
2.38867	126
2.39233	126
2.39600	129
2.39967	131
2.40333	134
2.40700	138
2.41067	141
2.41433	144
2.41800	146
2.42167	148
2.42533	148
2.42900	148
2.43267	149
2.43633	148
2.44000	154
2.44367	220
2.44733	356
2.45100	509
2.45467	631
2.45833	723
2.46200	787
2.46567	828
2.46933	850
2.47300	859
2.47667	867
2.48033	877
2.48400	888
2.48767	902
2.49133	920
2.49500	935
2.49867	943
2.50233	943
2.50600	933
2.50967	916
2.51333	897
2.51700	878
2.52067	866
2.52433	858
2.52800	853
2.53167	852
2.53533	853
2.53900	853
2.54267	853
2.54633	858
2.55000	866
2.55367	878
2.55733	890
2.56100	900
2.56467	904
2.56833	903
2.57200	899
2.57567	891
2.57933	880
2.58300	864
2.58667	848
2.59033	830
2.59400	812
2.59767	794
2.60133	780
2.60500	769
2.60867	760
2.61233	752
2.61600	746
2.61967	741
2.62333	736
2.62700	731
2.63067	727
2.63433	723
2.63800	718
2.64167	714
2.64533	712
2.64900	711
2.65267	712
2.65633	711
2.66000	712
2.66367	715
2.66733	717
2.67100	718
2.67467	722
2.67833	727
2.68200	732
2.68567	737
2.68933	741
2.69300	744
2.69667	747
2.70033	753
2.70400	758
2.70767	761
2.71133	763
2.71500	764
2.71867	766
2.72233	765
2.72600	764
2.72967	762
2.73333	759
2.73700	756
2.74067	750
2.74433	744
2.74800	736
2.75167	729
2.75533	724
2.75900	715
2.76267	706
2.76633	698
2.77000	691
2.77367	686
2.77733	683
2.78100	680
2.78467	678
2.78833	673
2.79200	669
2.79567	668
2.79933	666
2.80300	664
2.80667	662
2.81033	658
2.81400	654
2.81767	652
2.82133	652
2.82500	654
2.82867	657
2.83233	668
2.83600	690
2.83967	735
2.84333	823
2.84700	977
2.85067	1220
2.85433	1567
2.85800	2019
2.86167	2557
2.86533	3148
2.86900	3743
2.87267	4293
2.87633	4754
2.88000	5091
2.88367	5285
2.88733	5332
2.89100	5250
2.89467	5065
2.89833	4802
2.90200	4489
2.90567	4150
2.90933	3806
2.91300	3470
2.91667	3150
2.92033	2853
2.92400	2582
2.92767	2337
2.93133	2119
2.93500	1926
2.93867	1757
2.94233	1609
2.94600	1480
2.94967	1368
2.95333	1273
2.95700	1190
2.96067	1117
2.96433	1055
2.96800	1002
2.97167	957
2.97533	919
2.97900	885
2.98267	856
2.98633	834
2.99000	814
2.99367	797
2.99733	782
3.00100	768
3.00467	757
3.00833	749
3.01200	741
3.01567	734
3.01933	729
3.02300	726
3.02667	726
3.03033	725
3.03400	726
3.03767	725
3.04133	723
3.04500	722
3.04867	721
3.05233	719
3.05600	719
3.05967	718
3.06333	716
3.06700	714
3.07067	715
3.07433	716
3.07800	714
3.08167	712
3.08533	711
3.08900	710
3.09267	710
3.09633	709
3.10000	707
3.10367	705
3.10733	704
3.11100	705
3.11467	707
3.11833	706
3.12200	704
3.12567	703
3.12933	700
3.13300	697
3.13667	694
3.14033	689
3.14400	683
3.14767	679
3.15133	676
3.15500	674
3.15867	673
3.16233	671
3.16600	670
3.16967	669
3.17333	668
3.17700	665
3.18067	663
3.18433	662
3.18800	662
3.19167	661
3.19533	658
3.19900	658
3.20267	657
3.20633	656
3.21000	653
3.21367	649
3.21733	648
3.22100	647
3.22467	646
3.22833	645
3.23200	641
3.23567	636
3.23933	632
3.24300	630
3.24667	628
3.25033	625
3.25400	622
3.25767	620
3.26133	618
3.26500	616
3.26867	613
3.27233	611
3.27600	608
3.27967	605
3.28333	602
3.28700	599
3.29067	594
3.29433	590
3.29800	589
3.30167	588
3.30533	584
3.30900	582
3.31267	581
3.31633	579
3.32000	579
3.32367	576
3.32733	573
3.33100	568
3.33467	563
3.33833	559
3.34200	555
3.34567	554
3.34933	551
3.35300	548
3.35667	544
3.36033	540
3.36400	538
3.36767	534
3.37133	529
3.37500	525
3.37867	521
3.38233	518
3.38600	514
3.38967	510
3.39333	506
3.39700	504
3.40067	503
3.40433	502
3.40800	498
3.41167	495
3.41533	492
3.41900	486
3.42267	481
3.42633	476
3.43000	472
3.43367	471
3.43733	469
3.44100	467
3.44467	467
3.44833	464
3.45200	459
3.45567	455
3.45933	452
3.46300	449
3.46667	445
3.47033	441
3.47400	438
3.47767	436
3.48133	434
3.48500	435
3.48867	437
3.49233	436
3.49600	433
3.49967	430
3.50333	427
3.50700	424
3.51067	419
3.51433	415
3.51800	413
3.52167	411
3.52533	410
3.52900	408
3.53267	404
3.53633	401
3.54000	400
3.54367	401
3.54733	400
3.55100	401
3.55467	399
3.55833	397
3.56200	393
3.56567	393
3.56933	392
3.57300	388
3.57667	385
3.58033	384
3.58400	383
3.58767	381
3.59133	380
3.59500	380
3.59867	380
3.60233	379
3.60600	377
3.60967	375
3.61333	373
3.61700	371
3.62067	370
3.62433	369
3.62800	369
3.63167	367
3.63533	366
3.63900	366
3.64267	365
3.64633	366
3.65000	367
3.65367	366
3.65733	365
3.66100	363
3.66467	363
3.66833	362
3.67200	361
3.67567	359
3.67933	356
3.68300	354
3.68667	354
3.69033	353
3.69400	353
3.69767	355
3.70133	356
3.70500	353
3.70867	350
3.71233	349
3.71600	349
3.71967	348
3.72333	347
3.72700	346
3.73067	346
3.73433	345
3.73800	346
3.74167	348
3.74533	349
3.74900	351
3.75267	352
3.75633	353
3.76000	355
3.76367	356
3.76733	356
3.77100	356
3.77467	354
3.77833	350
3.78200	350
3.78567	351
3.78933	352
3.79300	352
3.79667	353
3.80033	354
3.80400	353
3.80767	353
3.81133	356
3.81500	359
3.81867	359
3.82233	358
3.82600	356
3.82967	355
3.83333	354
3.83700	352
3.84067	350
3.84433	349
3.84800	351
3.85167	352
3.85533	353
3.85900	352
3.86267	354
3.86633	357
3.87000	358
3.87367	357
3.87733	359
3.88100	360
3.88467	358
3.88833	359
3.89200	360
3.89567	358
3.89933	355
3.90300	352
3.90667	351
3.91033	350
3.91400	350
3.91767	352
3.92133	355
3.92500	357
3.92867	359
3.93233	361
3.93600	361
3.93967	363
3.94333	364
3.94700	364
3.95067	363
3.95433	361
3.95800	361
3.96167	361
3.96533	360
3.96900	356
3.97267	352
3.97633	350
3.98000	351
3.98367	354
3.98733	357
3.99100	359
3.99467	359
3.99833	356

[Status Trace (Column Oven Temperature)]
Interval(msec)	1000
# of Points	240
Start Time(min)	0.016
End Time(min)	3.999
Intensity Units	
Intensity Multiplier	1
R.Time (min)	Intensity
0.01565	35.04
0.03232	35.03
0.04898	35.04
0.06565	35.04
0.08232	35.05
0.09898	35.04
0.11565	35.03
0.13232	35.01
0.14898	35.01
0.16565	35.00
0.18232	35.01
0.19898	35.01
0.21565	35.02
0.23232	35.01
0.24898	35.00
0.26565	34.99
0.28232	34.99
0.29898	35.00
0.31565	35.01
0.33232	35.01
0.34898	35.02
0.36565	35.03
0.38232	35.03
0.39898	35.04
0.41565	35.04
0.43232	35.04
0.44898	35.05
0.46565	35.04
0.48232	35.03
0.49898	35.02
0.51565	35.02
0.53232	35.02
0.54898	35.02
0.56565	35.03
0.58232	35.04
0.59898	35.05
0.61565	35.06
0.63232	35.06
0.64898	35.06
0.66565	35.06
0.68232	35.06
0.69898	35.05
0.71565	35.05
0.73232	35.04
0.74898	35.05
0.76565	35.04
0.78232	35.04
0.79898	35.03
0.81565	35.03
0.83232	35.03
0.84898	35.03
0.86565	35.03
0.88232	35.03
0.89898	35.03
0.91565	35.03
0.93232	35.04
0.94898	35.04
0.96565	35.03
0.98232	35.01
0.99898	35.00
1.01565	34.98
1.03232	34.97
1.04898	34.97
1.06565	34.98
1.08232	35.00
1.09898	35.00
1.11565	35.01
1.13232	35.01
1.14898	35.03
1.16565	35.04
1.18232	35.03
1.19898	35.02
1.21565	35.02
1.23232	35.01
1.24898	35.01
1.26565	34.99
1.28232	34.98
1.29898	34.99
1.31565	34.99
1.33232	35.00
1.34898	35.00
1.36565	35.01
1.38232	35.01
1.39898	34.99
1.41565	35.00
1.43232	35.01
1.44898	35.01
1.46565	34.99
1.48232	34.98
1.49898	34.98
1.51565	34.98
1.53232	34.98
1.54898	34.98
1.56565	34.99
1.58232	34.99
1.59898	35.01
1.61565	35.09
1.63232	35.24
1.64898	35.45
1.66565	35.73
1.68232	36.09
1.69898	36.44
1.71565	36.78
1.73232	37.14
1.74898	37.47
1.76565	37.82
1.78232	38.14
1.79898	38.45
1.81565	38.78
1.83232	39.10
1.84898	39.43
1.86565	39.75
1.88232	40.09
1.89898	40.42
1.91565	40.73
1.93232	41.06
1.94898	41.41
1.96565	41.72
1.98232	42.04
1.99898	42.37
2.01565	42.68
2.03232	43.00
2.04898	43.33
2.06565	43.65
2.08232	43.98
2.09898	44.32
2.11565	44.65
2.13232	44.98
2.14898	45.28
2.16565	45.63
2.18232	45.94
2.19898	46.28
2.21565	46.63
2.23232	46.97
2.24898	47.27
2.26565	47.62
2.28232	47.97
2.29898	48.27
2.31565	48.63
2.33232	48.98
2.34898	49.27
2.36565	49.52
2.38232	49.66
2.39898	49.68
2.41565	49.69
2.43232	49.69
2.44898	49.69
2.46565	49.72
2.48232	49.72
2.49898	49.73
2.51565	49.74
2.53232	49.74
2.54898	49.74
2.56565	49.76
2.58232	49.78
2.59898	49.79
2.61565	49.79
2.63232	49.83
2.64898	49.85
2.66565	49.83
2.68232	49.85
2.69898	49.86
2.71565	49.86
2.73232	49.84
2.74898	49.85
2.76565	49.86
2.78232	49.86
2.79898	49.87
2.81565	49.87
2.83232	49.87
2.84898	49.87
2.86565	49.87
2.88232	49.88
2.89898	49.88
2.91565	49.88
2.93232	49.90
2.94898	49.92
2.96565	49.94
2.98232	49.96
2.99898	49.98
3.01565	49.98
3.03232	49.99
3.04898	50.01
3.06565	50.02
3.08232	50.04
3.09898	50.04
3.11565	50.05
3.13232	50.07
3.14898	50.08
3.16565	50.09
3.18232	50.11
3.19898	50.11
3.21565	50.10
3.23232	50.10
3.24898	50.08
3.26565	50.08
3.28232	50.08
3.29898	50.08
3.31565	50.07
3.33232	50.07
3.34898	50.07
3.36565	50.07
3.38232	50.08
3.39898	50.07
3.41565	50.07
3.43232	50.07
3.44898	50.07
3.46565	50.07
3.48232	50.06
3.49898	50.06
3.51565	50.05
3.53232	50.06
3.54898	50.07
3.56565	50.07
3.58232	50.08
3.59898	50.08
3.61565	50.08
3.63232	50.09
3.64898	50.08
3.66565	50.08
3.68232	50.08
3.69898	50.09
3.71565	50.09
3.73232	50.08
3.74898	50.08
3.76565	50.07
3.78232	50.08
3.79898	50.09
3.81565	50.09
3.83232	50.08
3.84898	50.09
3.86565	50.08
3.88232	50.09
3.89898	50.09
3.91565	50.08
3.93232	50.08
3.94898	50.09
3.96565	50.09
3.98232	50.10
3.99898	50.10

[Status Trace (Injection Unit Temperature)]
Interval(msec)	1000
# of Points	240
Start Time(min)	0.016
End Time(min)	3.999
Intensity Units	
Intensity Multiplier	1
R.Time (min)	Intensity
0.01565	99.97
0.03232	99.97
0.04898	99.97
0.06565	99.97
0.08232	99.98
0.09898	99.98
0.11565	99.98
0.13232	99.97
0.14898	99.97
0.16565	99.98
0.18232	99.98
0.19898	99.98
0.21565	99.98
0.23232	99.98
0.24898	99.98
0.26565	99.98
0.28232	99.98
0.29898	99.98
0.31565	99.98
0.33232	99.98
0.34898	99.98
0.36565	99.98
0.38232	99.98
0.39898	99.98
0.41565	99.98
0.43232	99.98
0.44898	99.98
0.46565	99.99
0.48232	99.98
0.49898	99.98
0.51565	99.98
0.53232	99.98
0.54898	99.98
0.56565	99.98
0.58232	99.98
0.59898	99.98
0.61565	99.98
0.63232	99.98
0.64898	99.98
0.66565	99.98
0.68232	99.99
0.69898	99.98
0.71565	99.98
0.73232	99.98
0.74898	99.98
0.76565	99.98
0.78232	99.98
0.79898	99.98
0.81565	99.98
0.83232	99.98
0.84898	99.98
0.86565	99.98
0.88232	99.98
0.89898	99.98
0.91565	99.98
0.93232	99.98
0.94898	99.98
0.96565	99.98
0.98232	99.98
0.99898	99.98
1.01565	99.98
1.03232	99.98
1.04898	99.98
1.06565	99.98
1.08232	99.98
1.09898	99.98
1.11565	99.99
1.13232	99.98
1.14898	99.98
1.16565	99.98
1.18232	99.98
1.19898	99.98
1.21565	99.98
1.23232	99.99
1.24898	99.98
1.26565	99.98
1.28232	99.98
1.29898	99.99
1.31565	99.98
1.33232	99.98
1.34898	99.98
1.36565	99.98
1.38232	99.99
1.39898	99.99
1.41565	99.98
1.43232	99.99
1.44898	99.98
1.46565	99.98
1.48232	99.99
1.49898	99.99
1.51565	99.99
1.53232	99.99
1.54898	99.99
1.56565	99.99
1.58232	99.99
1.59898	99.99
1.61565	99.99
1.63232	99.99
1.64898	99.99
1.66565	99.99
1.68232	99.99
1.69898	99.98
1.71565	99.99
1.73232	99.99
1.74898	99.99
1.76565	99.99
1.78232	99.99
1.79898	99.99
1.81565	99.99
1.83232	99.99
1.84898	99.99
1.86565	99.98
1.88232	99.98
1.89898	99.98
1.91565	99.99
1.93232	99.98
1.94898	99.98
1.96565	99.98
1.98232	99.98
1.99898	99.98
2.01565	99.98
2.03232	99.97
2.04898	99.98
2.06565	99.98
2.08232	99.97
2.09898	99.97
2.11565	99.97
2.13232	99.97
2.14898	99.97
2.16565	99.97
2.18232	99.97
2.19898	99.97
2.21565	99.97
2.23232	99.97
2.24898	99.97
2.26565	99.96
2.28232	99.96
2.29898	99.97
2.31565	99.97
2.33232	99.96
2.34898	99.96
2.36565	99.96
2.38232	99.97
2.39898	99.96
2.41565	99.96
2.43232	99.96
2.44898	99.97
2.46565	99.97
2.48232	99.97
2.49898	99.96
2.51565	99.97
2.53232	99.97
2.54898	99.97
2.56565	99.96
2.58232	99.97
2.59898	99.97
2.61565	99.97
2.63232	99.97
2.64898	99.98
2.66565	99.98
2.68232	99.98
2.69898	99.98
2.71565	99.99
2.73232	99.98
2.74898	99.99
2.76565	99.99
2.78232	99.99
2.79898	99.99
2.81565	100.00
2.83232	99.99
2.84898	99.99
2.86565	100.00
2.88232	100.00
2.89898	100.00
2.91565	100.00
2.93232	100.00
2.94898	100.01
2.96565	100.01
2.98232	100.01
2.99898	100.01
3.01565	100.01
3.03232	100.01
3.04898	100.01
3.06565	100.01
3.08232	100.02
3.09898	100.02
3.11565	100.02
3.13232	100.02
3.14898	100.02
3.16565	100.03
3.18232	100.02
3.19898	100.03
3.21565	100.03
3.23232	100.03
3.24898	100.03
3.26565	100.03
3.28232	100.03
3.29898	100.03
3.31565	100.03
3.33232	100.04
3.34898	100.04
3.36565	100.04
3.38232	100.04
3.39898	100.04
3.41565	100.04
3.43232	100.04
3.44898	100.04
3.46565	100.04
3.48232	100.04
3.49898	100.04
3.51565	100.04
3.53232	100.05
3.54898	100.05
3.56565	100.05
3.58232	100.04
3.59898	100.05
3.61565	100.05
3.63232	100.05
3.64898	100.05
3.66565	100.05
3.68232	100.05
3.69898	100.05
3.71565	100.05
3.73232	100.04
3.74898	100.05
3.76565	100.05
3.78232	100.05
3.79898	100.05
3.81565	100.05
3.83232	100.05
3.84898	100.05
3.86565	100.05
3.88232	100.05
3.89898	100.05
3.91565	100.05
3.93232	100.05
3.94898	100.05
3.96565	100.05
3.98232	100.05
3.99898	100.05

[Status Trace (Carrier Gas Pressure)]
Interval(msec)	1000
# of Points	240
Start Time(min)	0.016
End Time(min)	3.999
Intensity Units	
Intensity Multiplier	1
R.Time (min)	Intensity
0.01565	57.15
0.03232	55.72
0.04898	58.13
0.06565	59.88
0.08232	58.61
0.09898	57.97
0.11565	57.99
0.13232	58.01
0.14898	58.01
0.16565	58.00
0.18232	58.00
0.19898	58.00
0.21565	58.00
0.23232	58.00
0.24898	58.00
0.26565	58.00
0.28232	58.00
0.29898	58.00
0.31565	58.00
0.33232	58.00
0.34898	58.00
0.36565	58.00
0.38232	58.00
0.39898	58.00
0.41565	58.00
0.43232	58.00
0.44898	58.00
0.46565	58.00
0.48232	58.00
0.49898	58.00
0.51565	58.00
0.53232	58.00
0.54898	58.00
0.56565	58.00
0.58232	58.00
0.59898	58.00
0.61565	58.00
0.63232	58.00
0.64898	58.00
0.66565	58.00
0.68232	58.00
0.69898	58.00
0.71565	58.00
0.73232	58.00
0.74898	58.00
0.76565	58.00
0.78232	58.00
0.79898	58.00
0.81565	58.00
0.83232	58.00
0.84898	58.00
0.86565	58.00
0.88232	58.00
0.89898	58.00
0.91565	58.00
0.93232	58.00
0.94898	58.00
0.96565	58.00
0.98232	58.00
0.99898	58.00
1.01565	58.00
1.03232	58.00
1.04898	58.00
1.06565	58.00
1.08232	58.00
1.09898	58.00
1.11565	58.00
1.13232	58.00
1.14898	58.00
1.16565	58.00
1.18232	58.00
1.19898	58.00
1.21565	58.00
1.23232	58.00
1.24898	58.00
1.26565	58.00
1.28232	58.00
1.29898	58.00
1.31565	58.00
1.33232	58.00
1.34898	58.00
1.36565	58.00
1.38232	58.00
1.39898	58.00
1.41565	58.00
1.43232	58.00
1.44898	58.00
1.46565	58.00
1.48232	58.00
1.49898	58.00
1.51565	58.00
1.53232	58.00
1.54898	58.00
1.56565	58.00
1.58232	58.00
1.59898	58.00
1.61565	58.00
1.63232	58.00
1.64898	58.00
1.66565	58.01
1.68232	58.01
1.69898	58.00
1.71565	58.00
1.73232	58.00
1.74898	58.00
1.76565	58.00
1.78232	58.00
1.79898	58.00
1.81565	58.00
1.83232	58.00
1.84898	58.00
1.86565	58.00
1.88232	58.00
1.89898	58.00
1.91565	58.00
1.93232	58.00
1.94898	58.00
1.96565	58.00
1.98232	58.00
1.99898	58.00
2.01565	58.00
2.03232	58.00
2.04898	58.00
2.06565	58.00
2.08232	58.00
2.09898	58.00
2.11565	58.00
2.13232	58.00
2.14898	58.00
2.16565	58.00
2.18232	58.00
2.19898	58.00
2.21565	58.00
2.23232	58.00
2.24898	58.00
2.26565	58.00
2.28232	58.00
2.29898	58.00
2.31565	58.00
2.33232	58.00
2.34898	58.00
2.36565	58.00
2.38232	57.99
2.39898	57.99
2.41565	58.00
2.43232	58.00
2.44898	58.00
2.46565	58.00
2.48232	58.00
2.49898	58.00
2.51565	57.99
2.53232	57.99
2.54898	58.00
2.56565	58.00
2.58232	58.00
2.59898	58.00
2.61565	58.00
2.63232	58.00
2.64898	58.00
2.66565	58.00
2.68232	58.00
2.69898	58.00
2.71565	58.00
2.73232	58.00
2.74898	58.00
2.76565	58.00
2.78232	58.00
2.79898	58.00
2.81565	58.00
2.83232	58.00
2.84898	58.00
2.86565	58.00
2.88232	58.00
2.89898	58.00
2.91565	58.00
2.93232	58.00
2.94898	58.00
2.96565	58.00
2.98232	58.00
2.99898	58.00
3.01565	58.00
3.03232	58.00
3.04898	58.00
3.06565	58.00
3.08232	58.00
3.09898	58.00
3.11565	58.00
3.13232	58.00
3.14898	58.00
3.16565	58.00
3.18232	58.00
3.19898	58.00
3.21565	58.00
3.23232	58.00
3.24898	58.00
3.26565	58.00
3.28232	58.00
3.29898	58.00
3.31565	58.00
3.33232	58.00
3.34898	58.00
3.36565	58.00
3.38232	58.00
3.39898	58.00
3.41565	58.00
3.43232	58.00
3.44898	58.00
3.46565	58.00
3.48232	58.00
3.49898	58.00
3.51565	58.00
3.53232	58.00
3.54898	58.00
3.56565	58.00
3.58232	58.00
3.59898	58.00
3.61565	58.00
3.63232	58.00
3.64898	58.00
3.66565	58.00
3.68232	58.00
3.69898	58.00
3.71565	58.00
3.73232	58.00
3.74898	58.00
3.76565	58.00
3.78232	58.00
3.79898	58.00
3.81565	58.00
3.83232	58.00
3.84898	58.00
3.86565	58.00
3.88232	58.00
3.89898	58.00
3.91565	58.00
3.93232	58.00
3.94898	58.00
3.96565	58.00
3.98232	58.00
3.99898	58.00

[Status Trace (Carrier Gas Flow)]
Interval(msec)	1000
# of Points	240
Start Time(min)	0.016
End Time(min)	3.999
Intensity Units	
Intensity Multiplier	1
R.Time (min)	Intensity
0.01565	33.88
0.03232	34.54
0.04898	34.54
0.06565	34.52
0.08232	34.51
0.09898	34.51
0.11565	34.52
0.13232	34.52
0.14898	34.52
0.16565	34.52
0.18232	34.52
0.19898	34.52
0.21565	34.52
0.23232	34.52
0.24898	34.52
0.26565	34.52
0.28232	34.52
0.29898	34.52
0.31565	34.52
0.33232	34.52
0.34898	34.51
0.36565	34.52
0.38232	34.52
0.39898	34.52
0.41565	34.52
0.43232	34.52
0.44898	34.52
0.46565	34.52
0.48232	34.52
0.49898	34.52
0.51565	34.52
0.53232	34.52
0.54898	34.52
0.56565	34.52
0.58232	34.51
0.59898	34.52
0.61565	34.52
0.63232	34.52
0.64898	34.52
0.66565	34.52
0.68232	34.52
0.69898	34.52
0.71565	34.52
0.73232	34.52
0.74898	34.52
0.76565	34.52
0.78232	34.52
0.79898	34.52
0.81565	34.52
0.83232	34.51
0.84898	34.52
0.86565	34.52
0.88232	34.52
0.89898	34.52
0.91565	34.52
0.93232	34.52
0.94898	34.52
0.96565	34.52
0.98232	34.52
0.99898	34.52
1.01565	34.52
1.03232	34.52
1.04898	34.52
1.06565	34.52
1.08232	34.51
1.09898	34.52
1.11565	34.53
1.13232	34.52
1.14898	34.52
1.16565	34.52
1.18232	34.52
1.19898	34.52
1.21565	34.52
1.23232	34.52
1.24898	34.52
1.26565	34.52
1.28232	34.52
1.29898	34.52
1.31565	34.52
1.33232	34.52
1.34898	34.52
1.36565	34.51
1.38232	34.52
1.39898	34.52
1.41565	34.52
1.43232	34.51
1.44898	34.52
1.46565	34.52
1.48232	34.52
1.49898	34.52
1.51565	34.52
1.53232	34.52
1.54898	34.51
1.56565	34.52
1.58232	34.51
1.59898	34.52
1.61565	34.52
1.63232	34.52
1.64898	34.52
1.66565	34.52
1.68232	34.51
1.69898	34.51
1.71565	34.52
1.73232	34.52
1.74898	34.52
1.76565	34.52
1.78232	34.51
1.79898	34.52
1.81565	34.52
1.83232	34.52
1.84898	34.52
1.86565	34.51
1.88232	34.52
1.89898	34.52
1.91565	34.51
1.93232	34.52
1.94898	34.52
1.96565	34.52
1.98232	34.51
1.99898	34.52
2.01565	34.51
2.03232	34.51
2.04898	34.52
2.06565	34.52
2.08232	34.51
2.09898	34.52
2.11565	34.52
2.13232	34.52
2.14898	34.52
2.16565	34.52
2.18232	34.53
2.19898	34.53
2.21565	34.51
2.23232	34.51
2.24898	34.52
2.26565	34.52
2.28232	34.52
2.29898	34.52
2.31565	34.52
2.33232	34.52
2.34898	34.52
2.36565	34.52
2.38232	34.51
2.39898	34.52
2.41565	34.52
2.43232	34.52
2.44898	34.52
2.46565	34.51
2.48232	34.52
2.49898	34.52
2.51565	34.52
2.53232	34.52
2.54898	34.52
2.56565	34.52
2.58232	34.52
2.59898	34.52
2.61565	34.52
2.63232	34.52
2.64898	34.52
2.66565	34.52
2.68232	34.52
2.69898	34.51
2.71565	34.52
2.73232	34.52
2.74898	34.52
2.76565	34.52
2.78232	34.52
2.79898	34.52
2.81565	34.52
2.83232	34.53
2.84898	34.52
2.86565	34.51
2.88232	34.52
2.89898	34.52
2.91565	34.52
2.93232	34.52
2.94898	34.52
2.96565	34.52
2.98232	34.52
2.99898	34.52
3.01565	34.52
3.03232	34.51
3.04898	34.52
3.06565	34.52
3.08232	34.52
3.09898	34.52
3.11565	34.52
3.13232	34.52
3.14898	34.52
3.16565	34.52
3.18232	34.52
3.19898	34.52
3.21565	34.52
3.23232	34.52
3.24898	34.52
3.26565	34.52
3.28232	34.51
3.29898	34.52
3.31565	34.52
3.33232	34.52
3.34898	34.52
3.36565	34.52
3.38232	34.52
3.39898	34.52
3.41565	34.52
3.43232	34.52
3.44898	34.52
3.46565	34.52
3.48232	34.52
3.49898	34.52
3.51565	34.51
3.53232	34.52
3.54898	34.52
3.56565	34.52
3.58232	34.51
3.59898	34.51
3.61565	34.52
3.63232	34.53
3.64898	34.52
3.66565	34.52
3.68232	34.53
3.69898	34.52
3.71565	34.52
3.73232	34.52
3.74898	34.53
3.76565	34.51
3.78232	34.52
3.79898	34.52
3.81565	34.52
3.83232	34.52
3.84898	34.51
3.86565	34.52
3.88232	34.52
3.89898	34.51
3.91565	34.52
3.93232	34.52
3.94898	34.52
3.96565	34.52
3.98232	34.52
3.99898	34.52

[Status Trace (Column Flow)]
Interval(msec)	1000
# of Points	240
Start Time(min)	0.016
End Time(min)	3.999
Intensity Units	
Intensity Multiplier	1
R.Time (min)	Intensity
0.01565	5.40
0.03232	5.24
0.04898	5.52
0.06565	5.72
0.08232	5.57
0.09898	5.50
0.11565	5.50
0.13232	5.50
0.14898	5.50
0.16565	5.50
0.18232	5.50
0.19898	5.50
0.21565	5.50
0.23232	5.50
0.24898	5.50
0.26565	5.50
0.28232	5.50
0.29898	5.50
0.31565	5.50
0.33232	5.50
0.34898	5.50
0.36565	5.50
0.38232	5.50
0.39898	5.50
0.41565	5.50
0.43232	5.50
0.44898	5.50
0.46565	5.50
0.48232	5.50
0.49898	5.50
0.51565	5.50
0.53232	5.50
0.54898	5.50
0.56565	5.50
0.58232	5.50
0.59898	5.50
0.61565	5.50
0.63232	5.50
0.64898	5.50
0.66565	5.50
0.68232	5.50
0.69898	5.50
0.71565	5.50
0.73232	5.50
0.74898	5.50
0.76565	5.50
0.78232	5.50
0.79898	5.50
0.81565	5.50
0.83232	5.50
0.84898	5.50
0.86565	5.50
0.88232	5.50
0.89898	5.50
0.91565	5.50
0.93232	5.50
0.94898	5.50
0.96565	5.50
0.98232	5.50
0.99898	5.50
1.01565	5.50
1.03232	5.50
1.04898	5.50
1.06565	5.50
1.08232	5.50
1.09898	5.50
1.11565	5.50
1.13232	5.50
1.14898	5.50
1.16565	5.50
1.18232	5.50
1.19898	5.50
1.21565	5.50
1.23232	5.50
1.24898	5.50
1.26565	5.50
1.28232	5.50
1.29898	5.50
1.31565	5.50
1.33232	5.50
1.34898	5.50
1.36565	5.50
1.38232	5.50
1.39898	5.50
1.41565	5.50
1.43232	5.50
1.44898	5.50
1.46565	5.50
1.48232	5.50
1.49898	5.50
1.51565	5.50
1.53232	5.50
1.54898	5.50
1.56565	5.50
1.58232	5.50
1.59898	5.50
1.61565	5.50
1.63232	5.49
1.64898	5.49
1.66565	5.48
1.68232	5.47
1.69898	5.46
1.71565	5.45
1.73232	5.44
1.74898	5.42
1.76565	5.41
1.78232	5.40
1.79898	5.39
1.81565	5.38
1.83232	5.37
1.84898	5.37
1.86565	5.36
1.88232	5.35
1.89898	5.34
1.91565	5.33
1.93232	5.32
1.94898	5.31
1.96565	5.30
1.98232	5.29
1.99898	5.28
2.01565	5.27
2.03232	5.26
2.04898	5.25
2.06565	5.24
2.08232	5.23
2.09898	5.22
2.11565	5.21
2.13232	5.20
2.14898	5.19
2.16565	5.18
2.18232	5.17
2.19898	5.16
2.21565	5.15
2.23232	5.14
2.24898	5.14
2.26565	5.13
2.28232	5.12
2.29898	5.11
2.31565	5.10
2.33232	5.09
2.34898	5.08
2.36565	5.07
2.38232	5.07
2.39898	5.07
2.41565	5.07
2.43232	5.07
2.44898	5.07
2.46565	5.07
2.48232	5.07
2.49898	5.07
2.51565	5.07
2.53232	5.07
2.54898	5.07
2.56565	5.07
2.58232	5.07
2.59898	5.06
2.61565	5.06
2.63232	5.06
2.64898	5.06
2.66565	5.06
2.68232	5.06
2.69898	5.06
2.71565	5.06
2.73232	5.06
2.74898	5.06
2.76565	5.06
2.78232	5.06
2.79898	5.06
2.81565	5.06
2.83232	5.06
2.84898	5.06
2.86565	5.06
2.88232	5.06
2.89898	5.06
2.91565	5.06
2.93232	5.06
2.94898	5.06
2.96565	5.06
2.98232	5.06
2.99898	5.06
3.01565	5.06
3.03232	5.06
3.04898	5.06
3.06565	5.06
3.08232	5.06
3.09898	5.06
3.11565	5.06
3.13232	5.06
3.14898	5.06
3.16565	5.06
3.18232	5.06
3.19898	5.06
3.21565	5.06
3.23232	5.06
3.24898	5.06
3.26565	5.06
3.28232	5.06
3.29898	5.06
3.31565	5.06
3.33232	5.06
3.34898	5.06
3.36565	5.06
3.38232	5.06
3.39898	5.06
3.41565	5.06
3.43232	5.06
3.44898	5.06
3.46565	5.06
3.48232	5.06
3.49898	5.06
3.51565	5.06
3.53232	5.06
3.54898	5.06
3.56565	5.06
3.58232	5.06
3.59898	5.06
3.61565	5.06
3.63232	5.06
3.64898	5.06
3.66565	5.06
3.68232	5.06
3.69898	5.06
3.71565	5.06
3.73232	5.06
3.74898	5.06
3.76565	5.06
3.78232	5.06
3.79898	5.06
3.81565	5.06
3.83232	5.06
3.84898	5.06
3.86565	5.06
3.88232	5.06
3.89898	5.06
3.91565	5.06
3.93232	5.06
3.94898	5.06
3.96565	5.06
3.98232	5.06
3.99898	5.06

[Status Trace (Linear Velocity)]
Interval(msec)	1000
# of Points	240
Start Time(min)	0.016
End Time(min)	3.999
Intensity Units	
Intensity Multiplier	1
R.Time (min)	Intensity
0.01565	38.45
0.03232	37.52
0.04898	39.09
0.06565	40.24
0.08232	39.41
0.09898	38.99
0.11565	39.01
0.13232	39.02
0.14898	39.02
0.16565	39.02
0.18232	39.01
0.19898	39.01
0.21565	39.01
0.23232	39.01
0.24898	39.01
0.26565	39.01
0.28232	39.01
0.29898	39.01
0.31565	39.01
0.33232	39.01
0.34898	39.01
0.36565	39.01
0.38232	39.01
0.39898	39.01
0.41565	39.01
0.43232	39.01
0.44898	39.01
0.46565	39.01
0.48232	39.01
0.49898	39.01
0.51565	39.01
0.53232	39.01
0.54898	39.01
0.56565	39.01
0.58232	39.01
0.59898	39.01
0.61565	39.01
0.63232	39.01
0.64898	39.01
0.66565	39.01
0.68232	39.01
0.69898	39.01
0.71565	39.01
0.73232	39.01
0.74898	39.01
0.76565	39.01
0.78232	39.01
0.79898	39.01
0.81565	39.01
0.83232	39.01
0.84898	39.01
0.86565	39.01
0.88232	39.01
0.89898	39.01
0.91565	39.01
0.93232	39.01
0.94898	39.01
0.96565	39.01
0.98232	39.01
0.99898	39.01
1.01565	39.01
1.03232	39.01
1.04898	39.02
1.06565	39.01
1.08232	39.01
1.09898	39.01
1.11565	39.01
1.13232	39.01
1.14898	39.01
1.16565	39.01
1.18232	39.01
1.19898	39.01
1.21565	39.01
1.23232	39.01
1.24898	39.01
1.26565	39.01
1.28232	39.01
1.29898	39.01
1.31565	39.01
1.33232	39.01
1.34898	39.01
1.36565	39.01
1.38232	39.01
1.39898	39.01
1.41565	39.01
1.43232	39.01
1.44898	39.01
1.46565	39.01
1.48232	39.01
1.49898	39.01
1.51565	39.01
1.53232	39.01
1.54898	39.01
1.56565	39.01
1.58232	39.01
1.59898	39.01
1.61565	39.01
1.63232	38.99
1.64898	38.97
1.66565	38.94
1.68232	38.91
1.69898	38.87
1.71565	38.84
1.73232	38.81
1.74898	38.78
1.76565	38.74
1.78232	38.71
1.79898	38.68
1.81565	38.65
1.83232	38.62
1.84898	38.59
1.86565	38.56
1.88232	38.53
1.89898	38.50
1.91565	38.47
1.93232	38.44
1.94898	38.41
1.96565	38.38
1.98232	38.35
1.99898	38.32
2.01565	38.29
2.03232	38.26
2.04898	38.23
2.06565	38.20
2.08232	38.17
2.09898	38.14
2.11565	38.11
2.13232	38.08
2.14898	38.05
2.16565	38.02
2.18232	37.99
2.19898	37.96
2.21565	37.93
2.23232	37.90
2.24898	37.87
2.26565	37.84
2.28232	37.81
2.29898	37.78
2.31565	37.75
2.33232	37.72
2.34898	37.69
2.36565	37.67
2.38232	37.65
2.39898	37.65
2.41565	37.65
2.43232	37.65
2.44898	37.65
2.46565	37.65
2.48232	37.65
2.49898	37.65
2.51565	37.64
2.53232	37.64
2.54898	37.65
2.56565	37.65
2.58232	37.65
2.59898	37.65
2.61565	37.65
2.63232	37.64
2.64898	37.64
2.66565	37.64
2.68232	37.64
2.69898	37.64
2.71565	37.64
2.73232	37.64
2.74898	37.64
2.76565	37.64
2.78232	37.64
2.79898	37.64
2.81565	37.64
2.83232	37.64
2.84898	37.64
2.86565	37.64
2.88232	37.64
2.89898	37.64
2.91565	37.64
2.93232	37.64
2.94898	37.64
2.96565	37.63
2.98232	37.63
2.99898	37.63
3.01565	37.63
3.03232	37.63
3.04898	37.63
3.06565	37.63
3.08232	37.62
3.09898	37.62
3.11565	37.62
3.13232	37.62
3.14898	37.62
3.16565	37.62
3.18232	37.62
3.19898	37.62
3.21565	37.62
3.23232	37.62
3.24898	37.62
3.26565	37.62
3.28232	37.62
3.29898	37.62
3.31565	37.62
3.33232	37.62
3.34898	37.62
3.36565	37.62
3.38232	37.62
3.39898	37.62
3.41565	37.62
3.43232	37.62
3.44898	37.62
3.46565	37.62
3.48232	37.62
3.49898	37.62
3.51565	37.62
3.53232	37.62
3.54898	37.62
3.56565	37.62
3.58232	37.62
3.59898	37.62
3.61565	37.62
3.63232	37.62
3.64898	37.62
3.66565	37.62
3.68232	37.62
3.69898	37.62
3.71565	37.62
3.73232	37.62
3.74898	37.62
3.76565	37.62
3.78232	37.62
3.79898	37.62
3.81565	37.62
3.83232	37.62
3.84898	37.62
3.86565	37.62
3.88232	37.62
3.89898	37.62
3.91565	37.62
3.93232	37.62
3.94898	37.62
3.96565	37.62
3.98232	37.62
3.99898	37.62

