[Header]
Application Name	LabSolutions
Version	5.110
Data File Name	C:\Users\User\Desktop\Junior\UIC Prairie Sampling\6.15.23\06152023_086.gcd
Output Date	6/26/2023
Output Time	12:05:13 PM

[File Information]
Type	Data File
Generated	6/23/2023 9:23:17 PM
Generated by	System Administrator
Modified	6/23/2023 9:30:49 PM
Modified by	System Administrator

[Sample Information]
Operator Name	System Administrator
Acquired	6/23/2023 9:26:49 PM
Sample Type	0:Unknown
Level	0
Sample Name	086
Sample ID	086
ISTD Amount1	1
ISTD Amount2	1
ISTD Amount3	1
ISTD Amount4	1
ISTD Amount5	1
ISTD Amount6	1
ISTD Amount7	1
ISTD Amount8	1
ISTD Amount9	1
ISTD Amount10	1
ISTD Amount11	1
ISTD Amount12	1
ISTD Amount13	1
ISTD Amount14	1
ISTD Amount15	1
ISTD Amount16	1
ISTD Amount17	1
ISTD Amount18	1
ISTD Amount19	1
ISTD Amount20	1
ISTD Amount21	1
ISTD Amount22	1
ISTD Amount23	1
ISTD Amount24	1
ISTD Amount25	1
ISTD Amount26	1
ISTD Amount27	1
ISTD Amount28	1
ISTD Amount29	1
ISTD Amount30	1
ISTD Amount31	1
ISTD Amount32	1
Sample Amount	1
Dilution Factor	1
Vial#	85
Injection Volume	1
Injection Count	1
Bar Code	

[Original Files]
Data File	C:\Users\User\Desktop\Junior\UIC Prairie Sampling\6.15.23\06152023_086.gcd
Method File	C:\LabSolutions\Data\GHG_4min_2022\ghg3_togas_w_acet_4 min_new_int.gcm
Batch File	C:\LabSolutions\Data\AutoSamplerTesting\06152023.gcb
Report Format File	c:\LabSolutions\System\DEFAULT.lsr

[File Description]


[Configuration]
Instrument Name	C0B7VH3-Instrument1
Instrument #	1
Line #	1
# of Detectors	3
Detector ID	DET#1	DET#2	DET#3
Detector Name	FID	PTCD	ECD
# of Channels	1	1	1

[Peak Table(Ch1)]
# of Peaks	3
Peak#	R.Time	I.Time	F.Time	Area	Height	A/H	Conc.	Mark	ID#	Name	k'	Plate #	Plate Ht.	Tailing	Resolution	Sep.Factor	Area Ratio	Height Ratio	Conc. %	Norm Conc.
1	1.472	1.435	1.527	3620	1804	2.006	0.000	   	1	CO	0.000	9498	15.793	1.319	0.000	0.000	0	0	0.000	0.000
2	1.560	1.527	1.615	3918	2013	1.946	19.103	 V 	2	CH4	0.060	11716	12.803	1.258	1.491	0.000	0	0	2.494	2.494
3	1.989	1.930	2.818	3875702	1834515	2.113	746.919	   	3	CO2	0.351	17524	8.560	1.239	7.287	5.875	0	0	97.506	97.506

[Peak Table(Ch2)]
# of Peaks	0

[Peak Table(Ch3)]
# of Peaks	4
Peak#	R.Time	I.Time	F.Time	Area	Height	A/H	Conc.	Mark	ID#	Name	k'	Plate #	Plate Ht.	Tailing	Resolution	Sep.Factor	Area Ratio	Height Ratio	Conc. %	Norm Conc.
1	2.502	2.400	2.535	3792	822	4.610	0.000	   			0.000	1730	86.683	0.000	0.000	0.000	0	0	0.000	0.000
2	2.572	2.535	2.660	4857	768	6.324	0.000	 V 			0.028	466	321.575	0.000	0.194	0.000	0	0	0.000	0.000
3	2.730	2.660	2.818	5167	589	8.766	0.000	 V 			0.091	187	802.236	0.000	0.247	3.263	0	0	0.000	0.000
4	2.887	2.818	3.870	38898	6008	6.475	0.575	 V 	1	N2O	0.154	11894	12.612	0.000	0.349	1.694	0	0	100.000	100.000

[Compound Results(Ch1)]
# of IDs	6
ID#	Name	R.Time	Area	Height	Conc.	Curve	3rd	2nd	1st	Constant	Area Ratio	Height Ratio	Conc. %	Norm Conc.
1	CO	1.472	3620	1804	0.000	Linear	0.000000e+00	0.000000e+00	0.000000e+00	0.000000e+00	0	0	0.000	0.000
2	CH4	1.560	3918	2013	19.103	Linear	0.000000e+00	0.000000e+00	2.051179e+002	0.000000e+00	0	0	2.494	2.494
3	CO2	1.989	3875702	1834515	746.919	Linear	0.000000e+00	0.000000e+00	5.188919e+003	0.000000e+00	0	0	97.506	97.506
4	Ethylene	0.000	0	0	0.000	Linear	0.000000e+00	0.000000e+00	0.000000e+00	0.000000e+00	0	0	0.000	0.000
5	Acetylene	0.000	0	0	0.000	Linear	0.000000e+00	0.000000e+00	0.000000e+00	0.000000e+00	0	0	0.000	0.000
6	Ethane	0.000	0	0	0.000	Linear	0.000000e+00	0.000000e+00	0.000000e+00	0.000000e+00	0	0	0.000	0.000

[Compound Results(Ch2)]
# of IDs	5
ID#	Name	R.Time	Area	Height	Conc.	Curve	3rd	2nd	1st	Constant	Area Ratio	Height Ratio	Conc. %	Norm Conc.
1	Hydrogen	0.000	0	0	0.000	Linear	0.000000e+00	0.000000e+00	0.000000e+00	0.000000e+00	0	0	0.000	0.000
2	Oxygen	0.000	0	0	0.000	Linear	0.000000e+00	0.000000e+00	0.000000e+00	0.000000e+00	0	0	0.000	0.000
3	Nitrogen	0.000	0	0	0.000	Linear	0.000000e+00	0.000000e+00	0.000000e+00	0.000000e+00	0	0	0.000	0.000
4	Methane	0.000	0	0	0.000	Linear	0.000000e+00	0.000000e+00	0.000000e+00	0.000000e+00	0	0	0.000	0.000
5	Carbon Monoxide	0.000	0	0	0.000	Linear	0.000000e+00	0.000000e+00	0.000000e+00	0.000000e+00	0	0	0.000	0.000

[Compound Results(Ch3)]
# of IDs	2
ID#	Name	R.Time	Area	Height	Conc.	Curve	3rd	2nd	1st	Constant	Area Ratio	Height Ratio	Conc. %	Norm Conc.
1	N2O	2.887	38898	6008	0.575	Linear	0.000000e+00	0.000000e+00	6.759880e+004	0.000000e+00	0	0	100.000	100.000
2	SF6	0.000	0	0	0.000	Linear	0.000000e+00	0.000000e+00	0.000000e+00	0.000000e+00	0	0	0.000	0.000

[Group Results(Ch1)]
# of Groups	0

[Group Results(Ch2)]
# of Groups	0

[Group Results(Ch3)]
# of Groups	0

[Chromatogram (Ch1)]
Interval(msec)	220
# of Points	1091
Start Time(min)	0.002
End Time(min)	3.998
R.Time (min)	Intensity
0.00167	-34
0.00533	-28
0.00900	-19
0.01267	-16
0.01633	-15
0.02000	-14
0.02367	-14
0.02733	-16
0.03100	-16
0.03467	-14
0.03833	-8
0.04200	-4
0.04567	-5
0.04933	-10
0.05300	-16
0.05667	-17
0.06033	-15
0.06400	-13
0.06767	-10
0.07133	-5
0.07500	3
0.07867	10
0.08233	10
0.08600	6
0.08967	-0
0.09333	-7
0.09700	-12
0.10067	-17
0.10433	-19
0.10800	-15
0.11167	-10
0.11533	-5
0.11900	-3
0.12267	-8
0.12633	-17
0.13000	-25
0.13367	-30
0.13733	-30
0.14100	-27
0.14467	-23
0.14833	-22
0.15200	-24
0.15567	-23
0.15933	-21
0.16300	-17
0.16667	-13
0.17033	-11
0.17400	-12
0.17767	-13
0.18133	-16
0.18500	-17
0.18867	-16
0.19233	-15
0.19600	-12
0.19967	-8
0.20333	-7
0.20700	-10
0.21067	-15
0.21433	-18
0.21800	-20
0.22167	-17
0.22533	-11
0.22900	-9
0.23267	-9
0.23633	-9
0.24000	-8
0.24367	-8
0.24733	-16
0.25100	-29
0.25467	-40
0.25833	-46
0.26200	-50
0.26567	-49
0.26933	-49
0.27300	-51
0.27667	-48
0.28033	-45
0.28400	-43
0.28767	-40
0.29133	-36
0.29500	-33
0.29867	-34
0.30233	-37
0.30600	-43
0.30967	-47
0.31333	-48
0.31700	-48
0.32067	-47
0.32433	-46
0.32800	-42
0.33167	-36
0.33533	-28
0.33900	-21
0.34267	-17
0.34633	-16
0.35000	-16
0.35367	-19
0.35733	-25
0.36100	-31
0.36467	-36
0.36833	-36
0.37200	-36
0.37567	-36
0.37933	-36
0.38300	-36
0.38667	-35
0.39033	-32
0.39400	-30
0.39767	-28
0.40133	-24
0.40500	-21
0.40867	-21
0.41233	-27
0.41600	-33
0.41967	-37
0.42333	-33
0.42700	-24
0.43067	-16
0.43433	-15
0.43800	-18
0.44167	-24
0.44533	-33
0.44900	-40
0.45267	-44
0.45633	-45
0.46000	-46
0.46367	-46
0.46733	-46
0.47100	-44
0.47467	-39
0.47833	-38
0.48200	-42
0.48567	-46
0.48933	-48
0.49300	-49
0.49667	-47
0.50033	-43
0.50400	-38
0.50767	-32
0.51133	-26
0.51500	-22
0.51867	-25
0.52233	-33
0.52600	-41
0.52967	-51
0.53333	-61
0.53700	-70
0.54067	-78
0.54433	-81
0.54800	-78
0.55167	-70
0.55533	-60
0.55900	-51
0.56267	-46
0.56633	-45
0.57000	-48
0.57367	-51
0.57733	-50
0.58100	-47
0.58467	-48
0.58833	-47
0.59200	-45
0.59567	-39
0.59933	-34
0.60300	-35
0.60667	-38
0.61033	-44
0.61400	-51
0.61767	-57
0.62133	-58
0.62500	-57
0.62867	-55
0.63233	-50
0.63600	-43
0.63967	-35
0.64333	-28
0.64700	-28
0.65067	-35
0.65433	-42
0.65800	-49
0.66167	-54
0.66533	-54
0.66900	-52
0.67267	-50
0.67633	-47
0.68000	-43
0.68367	-38
0.68733	-35
0.69100	-36
0.69467	-42
0.69833	-50
0.70200	-55
0.70567	-59
0.70933	-60
0.71300	-58
0.71667	-55
0.72033	-54
0.72400	-51
0.72767	-50
0.73133	-46
0.73500	-42
0.73867	-41
0.74233	-40
0.74600	-38
0.74967	-34
0.75333	-32
0.75700	-30
0.76067	-31
0.76433	-38
0.76800	-52
0.77167	-71
0.77533	-89
0.77900	-99
0.78267	-102
0.78633	-97
0.79000	-89
0.79367	-81
0.79733	-74
0.80100	-68
0.80467	-64
0.80833	-63
0.81200	-60
0.81567	-55
0.81933	-50
0.82300	-49
0.82667	-49
0.83033	-48
0.83400	-48
0.83767	-49
0.84133	-51
0.84500	-52
0.84867	-56
0.85233	-63
0.85600	-70
0.85967	-74
0.86333	-74
0.86700	-70
0.87067	-63
0.87433	-60
0.87800	-61
0.88167	-60
0.88533	-61
0.88900	-63
0.89267	-64
0.89633	-59
0.90000	-53
0.90367	-52
0.90733	-56
0.91100	-62
0.91467	-66
0.91833	-68
0.92200	-70
0.92567	-72
0.92933	-71
0.93300	-65
0.93667	-62
0.94033	-59
0.94400	-60
0.94767	-64
0.95133	-67
0.95500	-69
0.95867	-70
0.96233	-70
0.96600	-70
0.96967	-71
0.97333	-68
0.97700	-63
0.98067	-57
0.98433	-53
0.98800	-53
0.99167	-56
0.99533	-55
0.99900	-56
1.00267	-56
1.00633	-58
1.01000	-63
1.01367	-65
1.01733	-63
1.02100	-59
1.02467	-61
1.02833	-65
1.03200	-66
1.03567	-61
1.03933	-53
1.04300	-51
1.04667	-53
1.05033	-58
1.05400	-63
1.05767	-64
1.06133	-63
1.06500	-63
1.06867	-62
1.07233	-62
1.07600	-63
1.07967	-64
1.08333	-62
1.08700	-60
1.09067	-60
1.09433	-61
1.09800	-61
1.10167	-60
1.10533	-55
1.10900	-51
1.11267	-52
1.11633	-59
1.12000	-71
1.12367	-81
1.12733	-90
1.13100	-96
1.13467	-102
1.13833	-108
1.14200	-109
1.14567	-106
1.14933	-103
1.15300	-99
1.15667	-93
1.16033	-86
1.16400	-80
1.16767	-76
1.17133	-72
1.17500	-68
1.17867	-65
1.18233	-66
1.18600	-68
1.18967	-70
1.19333	-73
1.19700	-78
1.20067	-80
1.20433	-82
1.20800	-84
1.21167	-84
1.21533	-82
1.21900	-80
1.22267	-77
1.22633	-74
1.23000	-72
1.23367	-65
1.23733	-54
1.24100	-46
1.24467	-46
1.24833	-54
1.25200	-63
1.25567	-69
1.25933	-74
1.26300	-81
1.26667	-86
1.27033	-91
1.27400	-96
1.27767	-102
1.28133	-106
1.28500	-106
1.28867	-106
1.29233	-104
1.29600	-100
1.29967	-95
1.30333	-91
1.30700	-84
1.31067	-77
1.31433	-71
1.31800	-69
1.32167	-71
1.32533	-75
1.32900	-74
1.33267	-73
1.33633	-73
1.34000	-75
1.34367	-75
1.34733	-79
1.35100	-88
1.35467	-95
1.35833	-104
1.36200	-113
1.36567	-116
1.36933	-112
1.37300	-106
1.37667	-101
1.38033	-98
1.38400	-94
1.38767	-92
1.39133	-91
1.39500	-91
1.39867	-93
1.40233	-99
1.40600	-105
1.40967	-109
1.41333	-108
1.41700	-104
1.42067	-97
1.42433	-88
1.42800	-83
1.43167	-82
1.43533	-77
1.43900	-64
1.44267	-54
1.44633	-5
1.45000	171
1.45367	478
1.45733	838
1.46100	1176
1.46467	1455
1.46833	1650
1.47200	1728
1.47567	1671
1.47933	1488
1.48300	1230
1.48667	955
1.49033	702
1.49400	493
1.49767	331
1.50133	213
1.50500	129
1.50867	66
1.51233	23
1.51600	-4
1.51967	-20
1.52333	-31
1.52700	-38
1.53067	-33
1.53433	8
1.53800	138
1.54167	404
1.54533	783
1.54900	1187
1.55267	1538
1.55633	1797
1.56000	1940
1.56367	1937
1.56733	1778
1.57100	1497
1.57467	1160
1.57833	835
1.58200	563
1.58567	359
1.58933	214
1.59300	115
1.59667	47
1.60033	-1
1.60400	-36
1.60767	-57
1.61133	-68
1.61500	-72
1.61867	-75
1.62233	-78
1.62600	-81
1.62967	-85
1.63333	-89
1.63700	-93
1.64067	-97
1.64433	-104
1.64800	-111
1.65167	-116
1.65533	-120
1.65900	-122
1.66267	-120
1.66633	-116
1.67000	-111
1.67367	-108
1.67733	-104
1.68100	-97
1.68467	-88
1.68833	-76
1.69200	-63
1.69567	-54
1.69933	-55
1.70300	-66
1.70667	-82
1.71033	-96
1.71400	-105
1.71767	-112
1.72133	-119
1.72500	-125
1.72867	-128
1.73233	-127
1.73600	-124
1.73967	-121
1.74333	-117
1.74700	-110
1.75067	-103
1.75433	-95
1.75800	-90
1.76167	-85
1.76533	-83
1.76900	-86
1.77267	-95
1.77633	-106
1.78000	-114
1.78367	-118
1.78733	-116
1.79100	-115
1.79467	-116
1.79833	-117
1.80200	-118
1.80567	-116
1.80933	-108
1.81300	-98
1.81667	-94
1.82033	-96
1.82400	-101
1.82767	-103
1.83133	-103
1.83500	-102
1.83867	-105
1.84233	-111
1.84600	-118
1.84967	-122
1.85333	-119
1.85700	-110
1.86067	-102
1.86433	-100
1.86800	-100
1.87167	-101
1.87533	-102
1.87900	-101
1.88267	-102
1.88633	-104
1.89000	-105
1.89367	-103
1.89733	-101
1.90100	-101
1.90467	-104
1.90833	-108
1.91200	-113
1.91567	-115
1.91933	-114
1.92300	-114
1.92667	-112
1.93033	-106
1.93400	-98
1.93767	-90
1.94133	-83
1.94500	-36
1.94867	348
1.95233	2751
1.95600	13911
1.95967	52936
1.96333	156014
1.96700	360572
1.97067	669902
1.97433	1037114
1.97800	1389005
1.98167	1661571
1.98533	1815021
1.98900	1834442
1.99267	1728709
1.99633	1526862
2.00000	1270618
2.00367	1002939
2.00733	757396
2.01100	552836
2.01467	394272
2.01833	277656
2.02200	194987
2.02567	137789
2.02933	98776
2.03300	72328
2.03667	54379
2.04033	42108
2.04400	33607
2.04767	27609
2.05133	23280
2.05500	20082
2.05867	17653
2.06233	15754
2.06600	14233
2.06967	12991
2.07333	11960
2.07700	11091
2.08067	10346
2.08433	9697
2.08800	9122
2.09167	8606
2.09533	8145
2.09900	7729
2.10267	7353
2.10633	7010
2.11000	6699
2.11367	6413
2.11733	6148
2.12100	5904
2.12467	5677
2.12833	5466
2.13200	5266
2.13567	5075
2.13933	4894
2.14300	4726
2.14667	4570
2.15033	4423
2.15400	4287
2.15767	4159
2.16133	4039
2.16500	3921
2.16867	3802
2.17233	3687
2.17600	3580
2.17967	3483
2.18333	3392
2.18700	3306
2.19067	3222
2.19433	3139
2.19800	3058
2.20167	2982
2.20533	2912
2.20900	2845
2.21267	2782
2.21633	2722
2.22000	2664
2.22367	2611
2.22733	2561
2.23100	2507
2.23467	2450
2.23833	2393
2.24200	2341
2.24567	2290
2.24933	2241
2.25300	2195
2.25667	2155
2.26033	2117
2.26400	2083
2.26767	2051
2.27133	2016
2.27500	1978
2.27867	1941
2.28233	1903
2.28600	1864
2.28967	1826
2.29333	1791
2.29700	1755
2.30067	1720
2.30433	1687
2.30800	1657
2.31167	1632
2.31533	1612
2.31900	1593
2.32267	1568
2.32633	1541
2.33000	1514
2.33367	1487
2.33733	1465
2.34100	1445
2.34467	1426
2.34833	1405
2.35200	1379
2.35567	1352
2.35933	1327
2.36300	1306
2.36667	1288
2.37033	1274
2.37400	1260
2.37767	1243
2.38133	1229
2.38500	1218
2.38867	1207
2.39233	1192
2.39600	1179
2.39967	1166
2.40333	1151
2.40700	1134
2.41067	1119
2.41433	1107
2.41800	1096
2.42167	1087
2.42533	1081
2.42900	1076
2.43267	1070
2.43633	1057
2.44000	1040
2.44367	1023
2.44733	1005
2.45100	988
2.45467	972
2.45833	955
2.46200	939
2.46567	926
2.46933	918
2.47300	911
2.47667	907
2.48033	902
2.48400	893
2.48767	882
2.49133	872
2.49500	860
2.49867	848
2.50233	838
2.50600	834
2.50967	830
2.51333	824
2.51700	816
2.52067	807
2.52433	798
2.52800	791
2.53167	781
2.53533	768
2.53900	755
2.54267	747
2.54633	745
2.55000	743
2.55367	736
2.55733	723
2.56100	709
2.56467	699
2.56833	692
2.57200	688
2.57567	686
2.57933	685
2.58300	681
2.58667	675
2.59033	671
2.59400	667
2.59767	659
2.60133	646
2.60500	632
2.60867	620
2.61233	611
2.61600	605
2.61967	604
2.62333	606
2.62700	611
2.63067	616
2.63433	616
2.63800	608
2.64167	598
2.64533	586
2.64900	576
2.65267	566
2.65633	560
2.66000	553
2.66367	545
2.66733	535
2.67100	525
2.67467	516
2.67833	511
2.68200	509
2.68567	510
2.68933	512
2.69300	513
2.69667	512
2.70033	508
2.70400	501
2.70767	494
2.71133	490
2.71500	490
2.71867	490
2.72233	489
2.72600	486
2.72967	481
2.73333	479
2.73700	472
2.74067	461
2.74433	452
2.74800	450
2.75167	451
2.75533	452
2.75900	450
2.76267	445
2.76633	441
2.77000	440
2.77367	440
2.77733	439
2.78100	436
2.78467	430
2.78833	427
2.79200	425
2.79567	421
2.79933	412
2.80300	405
2.80667	402
2.81033	400
2.81400	396
2.81767	395
2.82133	394
2.82500	392
2.82867	392
2.83233	393
2.83600	396
2.83967	400
2.84333	403
2.84700	404
2.85067	400
2.85433	394
2.85800	386
2.86167	376
2.86533	365
2.86900	359
2.87267	354
2.87633	348
2.88000	344
2.88367	345
2.88733	351
2.89100	359
2.89467	364
2.89833	367
2.90200	365
2.90567	359
2.90933	351
2.91300	343
2.91667	340
2.92033	337
2.92400	337
2.92767	339
2.93133	337
2.93500	330
2.93867	321
2.94233	315
2.94600	317
2.94967	323
2.95333	327
2.95700	327
2.96067	324
2.96433	317
2.96800	308
2.97167	302
2.97533	301
2.97900	305
2.98267	312
2.98633	315
2.99000	311
2.99367	305
2.99733	304
3.00100	303
3.00467	305
3.00833	304
3.01200	299
3.01567	291
3.01933	282
3.02300	275
3.02667	272
3.03033	274
3.03400	279
3.03767	286
3.04133	291
3.04500	293
3.04867	291
3.05233	285
3.05600	276
3.05967	268
3.06333	266
3.06700	267
3.07067	270
3.07433	272
3.07800	273
3.08167	274
3.08533	272
3.08900	269
3.09267	265
3.09633	260
3.10000	257
3.10367	256
3.10733	258
3.11100	265
3.11467	268
3.11833	265
3.12200	259
3.12567	250
3.12933	244
3.13300	242
3.13667	241
3.14033	238
3.14400	235
3.14767	233
3.15133	230
3.15500	228
3.15867	230
3.16233	234
3.16600	238
3.16967	240
3.17333	239
3.17700	235
3.18067	231
3.18433	229
3.18800	229
3.19167	230
3.19533	231
3.19900	234
3.20267	236
3.20633	237
3.21000	237
3.21367	235
3.21733	229
3.22100	222
3.22467	215
3.22833	212
3.23200	211
3.23567	212
3.23933	213
3.24300	211
3.24667	207
3.25033	206
3.25400	207
3.25767	209
3.26133	210
3.26500	208
3.26867	204
3.27233	202
3.27600	204
3.27967	207
3.28333	206
3.28700	202
3.29067	196
3.29433	190
3.29800	186
3.30167	183
3.30533	180
3.30900	179
3.31267	183
3.31633	190
3.32000	196
3.32367	200
3.32733	198
3.33100	188
3.33467	179
3.33833	173
3.34200	168
3.34567	164
3.34933	163
3.35300	164
3.35667	166
3.36033	171
3.36400	178
3.36767	187
3.37133	193
3.37500	192
3.37867	188
3.38233	188
3.38600	190
3.38967	186
3.39333	183
3.39700	182
3.40067	182
3.40433	183
3.40800	183
3.41167	179
3.41533	170
3.41900	161
3.42267	154
3.42633	149
3.43000	146
3.43367	143
3.43733	139
3.44100	137
3.44467	143
3.44833	155
3.45200	166
3.45567	171
3.45933	171
3.46300	168
3.46667	162
3.47033	155
3.47400	150
3.47767	147
3.48133	144
3.48500	140
3.48867	132
3.49233	125
3.49600	117
3.49967	110
3.50333	107
3.50700	107
3.51067	111
3.51433	119
3.51800	128
3.52167	140
3.52533	152
3.52900	160
3.53267	164
3.53633	163
3.54000	160
3.54367	158
3.54733	156
3.55100	151
3.55467	147
3.55833	142
3.56200	138
3.56567	133
3.56933	128
3.57300	125
3.57667	128
3.58033	133
3.58400	139
3.58767	142
3.59133	140
3.59500	136
3.59867	132
3.60233	127
3.60600	123
3.60967	118
3.61333	114
3.61700	112
3.62067	115
3.62433	122
3.62800	128
3.63167	130
3.63533	131
3.63900	131
3.64267	133
3.64633	134
3.65000	136
3.65367	138
3.65733	137
3.66100	132
3.66467	128
3.66833	128
3.67200	131
3.67567	131
3.67933	127
3.68300	123
3.68667	119
3.69033	115
3.69400	113
3.69767	115
3.70133	119
3.70500	123
3.70867	129
3.71233	131
3.71600	133
3.71967	135
3.72333	136
3.72700	135
3.73067	130
3.73433	128
3.73800	128
3.74167	132
3.74533	139
3.74900	143
3.75267	141
3.75633	136
3.76000	131
3.76367	130
3.76733	130
3.77100	129
3.77467	124
3.77833	114
3.78200	102
3.78567	92
3.78933	87
3.79300	83
3.79667	80
3.80033	79
3.80400	83
3.80767	97
3.81133	113
3.81500	123
3.81867	122
3.82233	114
3.82600	105
3.82967	98
3.83333	95
3.83700	96
3.84067	101
3.84433	107
3.84800	113
3.85167	115
3.85533	112
3.85900	108
3.86267	101
3.86633	95
3.87000	91
3.87367	90
3.87733	87
3.88100	89
3.88467	93
3.88833	94
3.89200	95
3.89567	98
3.89933	102
3.90300	105
3.90667	106
3.91033	102
3.91400	97
3.91767	91
3.92133	87
3.92500	85
3.92867	84
3.93233	87
3.93600	94
3.93967	100
3.94333	106
3.94700	109
3.95067	109
3.95433	105
3.95800	101
3.96167	101
3.96533	102
3.96900	102
3.97267	100
3.97633	95
3.98000	87
3.98367	78
3.98733	69
3.99100	62
3.99467	59
3.99833	56

[Chromatogram (Ch2)]
Interval(msec)	220
# of Points	1091
Start Time(min)	0.002
End Time(min)	3.998
R.Time (min)	Intensity
0.00167	-1
0.00533	-1
0.00900	-2
0.01267	-2
0.01633	-2
0.02000	-2
0.02367	-2
0.02733	-2
0.03100	-2
0.03467	-1
0.03833	-1
0.04200	-1
0.04567	-1
0.04933	-1
0.05300	-1
0.05667	-1
0.06033	-1
0.06400	-0
0.06767	-0
0.07133	0
0.07500	0
0.07867	0
0.08233	1
0.08600	1
0.08967	1
0.09333	1
0.09700	2
0.10067	2
0.10433	2
0.10800	2
0.11167	2
0.11533	2
0.11900	1
0.12267	1
0.12633	1
0.13000	1
0.13367	1
0.13733	1
0.14100	0
0.14467	0
0.14833	0
0.15200	0
0.15567	0
0.15933	0
0.16300	0
0.16667	0
0.17033	0
0.17400	0
0.17767	0
0.18133	-0
0.18500	-1
0.18867	-1
0.19233	-1
0.19600	-1
0.19967	-1
0.20333	-1
0.20700	-1
0.21067	-1
0.21433	-0
0.21800	-0
0.22167	0
0.22533	0
0.22900	1
0.23267	1
0.23633	1
0.24000	1
0.24367	1
0.24733	1
0.25100	1
0.25467	1
0.25833	0
0.26200	-0
0.26567	-1
0.26933	-1
0.27300	-1
0.27667	-1
0.28033	-2
0.28400	-2
0.28767	-2
0.29133	-2
0.29500	-2
0.29867	-2
0.30233	-2
0.30600	-2
0.30967	-2
0.31333	-2
0.31700	-2
0.32067	-1
0.32433	-1
0.32800	-0
0.33167	-0
0.33533	-0
0.33900	0
0.34267	0
0.34633	0
0.35000	0
0.35367	0
0.35733	0
0.36100	0
0.36467	0
0.36833	0
0.37200	-0
0.37567	-0
0.37933	-1
0.38300	-1
0.38667	-1
0.39033	-1
0.39400	-2
0.39767	-2
0.40133	-2
0.40500	-2
0.40867	-2
0.41233	-2
0.41600	-2
0.41967	-2
0.42333	-2
0.42700	-2
0.43067	-2
0.43433	-1
0.43800	-1
0.44167	-1
0.44533	-1
0.44900	-1
0.45267	-1
0.45633	-1
0.46000	-2
0.46367	-2
0.46733	-2
0.47100	-2
0.47467	-2
0.47833	-1
0.48200	-1
0.48567	-1
0.48933	-1
0.49300	-1
0.49667	-0
0.50033	-0
0.50400	0
0.50767	0
0.51133	0
0.51500	0
0.51867	1
0.52233	1
0.52600	1
0.52967	1
0.53333	1
0.53700	1
0.54067	1
0.54433	1
0.54800	1
0.55167	0
0.55533	0
0.55900	0
0.56267	0
0.56633	0
0.57000	-0
0.57367	-0
0.57733	-1
0.58100	-1
0.58467	-1
0.58833	-1
0.59200	-1
0.59567	-1
0.59933	-1
0.60300	-1
0.60667	-1
0.61033	-1
0.61400	-1
0.61767	-1
0.62133	-1
0.62500	-1
0.62867	-1
0.63233	-0
0.63600	-0
0.63967	-0
0.64333	-0
0.64700	-0
0.65067	-1
0.65433	-1
0.65800	-1
0.66167	-1
0.66533	-2
0.66900	-2
0.67267	-2
0.67633	-2
0.68000	-2
0.68367	-2
0.68733	-2
0.69100	-3
0.69467	-3
0.69833	-3
0.70200	-3
0.70567	-3
0.70933	-2
0.71300	-2
0.71667	-2
0.72033	-1
0.72400	-1
0.72767	-1
0.73133	-1
0.73500	-1
0.73867	-1
0.74233	-1
0.74600	-1
0.74967	-1
0.75333	-2
0.75700	-2
0.76067	-2
0.76433	-2
0.76800	-2
0.77167	-3
0.77533	-3
0.77900	-2
0.78267	-2
0.78633	-2
0.79000	-2
0.79367	-1
0.79733	-1
0.80100	-0
0.80467	0
0.80833	0
0.81200	0
0.81567	0
0.81933	0
0.82300	0
0.82667	-0
0.83033	-0
0.83400	-0
0.83767	-1
0.84133	-1
0.84500	-1
0.84867	-1
0.85233	-1
0.85600	-1
0.85967	-1
0.86333	-1
0.86700	-1
0.87067	-1
0.87433	-2
0.87800	-2
0.88167	-2
0.88533	-2
0.88900	-2
0.89267	-2
0.89633	-3
0.90000	-3
0.90367	-3
0.90733	-3
0.91100	-4
0.91467	-4
0.91833	-4
0.92200	-4
0.92567	-5
0.92933	-5
0.93300	-5
0.93667	-4
0.94033	-4
0.94400	-4
0.94767	-4
0.95133	-4
0.95500	-3
0.95867	-3
0.96233	-3
0.96600	-2
0.96967	-2
0.97333	-2
0.97700	-2
0.98067	-2
0.98433	-2
0.98800	-2
0.99167	-2
0.99533	-2
0.99900	-3
1.00267	-3
1.00633	-3
1.01000	-4
1.01367	-4
1.01733	-4
1.02100	-4
1.02467	-4
1.02833	-4
1.03200	-5
1.03567	-5
1.03933	-5
1.04300	-5
1.04667	-5
1.05033	-5
1.05400	-5
1.05767	-4
1.06133	-4
1.06500	-4
1.06867	-4
1.07233	-4
1.07600	-4
1.07967	-4
1.08333	-4
1.08700	-4
1.09067	-4
1.09433	-4
1.09800	-4
1.10167	-3
1.10533	-3
1.10900	-3
1.11267	-3
1.11633	-3
1.12000	-3
1.12367	-3
1.12733	-3
1.13100	-3
1.13467	-3
1.13833	-3
1.14200	-3
1.14567	-3
1.14933	-3
1.15300	-3
1.15667	-3
1.16033	-3
1.16400	-3
1.16767	-3
1.17133	-3
1.17500	-3
1.17867	-3
1.18233	-3
1.18600	-3
1.18967	-3
1.19333	-3
1.19700	-3
1.20067	-4
1.20433	-4
1.20800	-4
1.21167	-4
1.21533	-4
1.21900	-4
1.22267	-4
1.22633	-4
1.23000	-4
1.23367	-4
1.23733	-4
1.24100	-3
1.24467	-3
1.24833	-3
1.25200	-2
1.25567	-2
1.25933	-2
1.26300	-2
1.26667	-2
1.27033	-2
1.27400	-2
1.27767	-2
1.28133	-2
1.28500	-2
1.28867	-2
1.29233	-2
1.29600	-3
1.29967	-3
1.30333	-3
1.30700	-3
1.31067	-3
1.31433	-3
1.31800	-3
1.32167	-3
1.32533	-3
1.32900	-3
1.33267	-3
1.33633	-3
1.34000	-3
1.34367	-3
1.34733	-3
1.35100	-3
1.35467	-3
1.35833	-3
1.36200	-3
1.36567	-3
1.36933	-4
1.37300	-4
1.37667	-4
1.38033	-5
1.38400	-5
1.38767	-5
1.39133	-5
1.39500	-5
1.39867	-5
1.40233	-5
1.40600	-5
1.40967	-5
1.41333	-5
1.41700	-5
1.42067	-4
1.42433	-4
1.42800	-4
1.43167	-3
1.43533	-3
1.43900	-3
1.44267	-2
1.44633	-2
1.45000	-2
1.45367	-2
1.45733	-1
1.46100	-1
1.46467	-2
1.46833	-2
1.47200	-2
1.47567	-2
1.47933	-3
1.48300	-3
1.48667	-3
1.49033	-4
1.49400	-4
1.49767	-4
1.50133	-4
1.50500	-4
1.50867	-4
1.51233	-4
1.51600	-4
1.51967	-4
1.52333	-4
1.52700	-4
1.53067	-4
1.53433	-4
1.53800	-4
1.54167	-5
1.54533	-5
1.54900	-5
1.55267	-5
1.55633	-5
1.56000	-5
1.56367	-5
1.56733	-5
1.57100	-5
1.57467	-5
1.57833	-6
1.58200	-6
1.58567	-6
1.58933	-6
1.59300	-6
1.59667	-6
1.60033	-7
1.60400	-8
1.60767	-9
1.61133	-10
1.61500	-12
1.61867	-14
1.62233	-17
1.62600	-20
1.62967	-23
1.63333	-26
1.63700	-29
1.64067	-33
1.64433	-36
1.64800	-39
1.65167	-42
1.65533	-45
1.65900	-48
1.66267	-52
1.66633	-55
1.67000	-59
1.67367	-63
1.67733	-67
1.68100	-72
1.68467	-76
1.68833	-80
1.69200	-84
1.69567	-87
1.69933	-90
1.70300	-92
1.70667	-94
1.71033	-95
1.71400	-96
1.71767	-97
1.72133	-98
1.72500	-99
1.72867	-99
1.73233	-100
1.73600	-101
1.73967	-101
1.74333	-101
1.74700	-100
1.75067	-100
1.75433	-99
1.75800	-99
1.76167	-99
1.76533	-99
1.76900	-100
1.77267	-101
1.77633	-101
1.78000	-102
1.78367	-103
1.78733	-103
1.79100	-104
1.79467	-104
1.79833	-104
1.80200	-105
1.80567	-105
1.80933	-104
1.81300	-104
1.81667	-104
1.82033	-104
1.82400	-104
1.82767	-104
1.83133	-105
1.83500	-105
1.83867	-106
1.84233	-106
1.84600	-105
1.84967	-105
1.85333	-105
1.85700	-104
1.86067	-104
1.86433	-104
1.86800	-104
1.87167	-104
1.87533	-103
1.87900	-103
1.88267	-102
1.88633	-102
1.89000	-102
1.89367	-102
1.89733	-102
1.90100	-102
1.90467	-102
1.90833	-102
1.91200	-101
1.91567	-101
1.91933	-101
1.92300	-101
1.92667	-101
1.93033	-100
1.93400	-99
1.93767	-98
1.94133	-98
1.94500	-97
1.94867	-97
1.95233	-96
1.95600	-96
1.95967	-97
1.96333	-97
1.96700	-97
1.97067	-97
1.97433	-96
1.97800	-96
1.98167	-96
1.98533	-96
1.98900	-95
1.99267	-95
1.99633	-95
2.00000	-95
2.00367	-95
2.00733	-95
2.01100	-95
2.01467	-95
2.01833	-95
2.02200	-96
2.02567	-96
2.02933	-96
2.03300	-96
2.03667	-95
2.04033	-95
2.04400	-94
2.04767	-94
2.05133	-94
2.05500	-93
2.05867	-93
2.06233	-92
2.06600	-92
2.06967	-92
2.07333	-91
2.07700	-91
2.08067	-91
2.08433	-90
2.08800	-90
2.09167	-90
2.09533	-90
2.09900	-90
2.10267	-90
2.10633	-89
2.11000	-89
2.11367	-89
2.11733	-89
2.12100	-89
2.12467	-88
2.12833	-87
2.13200	-86
2.13567	-85
2.13933	-84
2.14300	-84
2.14667	-84
2.15033	-84
2.15400	-84
2.15767	-84
2.16133	-84
2.16500	-84
2.16867	-84
2.17233	-84
2.17600	-83
2.17967	-83
2.18333	-82
2.18700	-83
2.19067	-83
2.19433	-83
2.19800	-83
2.20167	-83
2.20533	-82
2.20900	-82
2.21267	-81
2.21633	-80
2.22000	-80
2.22367	-79
2.22733	-79
2.23100	-79
2.23467	-79
2.23833	-78
2.24200	-77
2.24567	-77
2.24933	-76
2.25300	-75
2.25667	-75
2.26033	-76
2.26400	-76
2.26767	-76
2.27133	-76
2.27500	-76
2.27867	-75
2.28233	-74
2.28600	-73
2.28967	-73
2.29333	-73
2.29700	-74
2.30067	-74
2.30433	-75
2.30800	-76
2.31167	-76
2.31533	-76
2.31900	-75
2.32267	-74
2.32633	-73
2.33000	-72
2.33367	-71
2.33733	-70
2.34100	-69
2.34467	-69
2.34833	-68
2.35200	-67
2.35567	-67
2.35933	-65
2.36300	-64
2.36667	-62
2.37033	-60
2.37400	-58
2.37767	-55
2.38133	-52
2.38500	-48
2.38867	-44
2.39233	-40
2.39600	-36
2.39967	-32
2.40333	-28
2.40700	-24
2.41067	-21
2.41433	-17
2.41800	-14
2.42167	-11
2.42533	-9
2.42900	-6
2.43267	-4
2.43633	-3
2.44000	-1
2.44367	1
2.44733	3
2.45100	4
2.45467	5
2.45833	6
2.46200	7
2.46567	8
2.46933	9
2.47300	10
2.47667	11
2.48033	11
2.48400	12
2.48767	13
2.49133	14
2.49500	14
2.49867	15
2.50233	15
2.50600	15
2.50967	15
2.51333	14
2.51700	14
2.52067	14
2.52433	13
2.52800	13
2.53167	13
2.53533	13
2.53900	12
2.54267	12
2.54633	11
2.55000	10
2.55367	10
2.55733	10
2.56100	10
2.56467	10
2.56833	11
2.57200	11
2.57567	12
2.57933	13
2.58300	14
2.58667	14
2.59033	15
2.59400	15
2.59767	15
2.60133	15
2.60500	15
2.60867	16
2.61233	16
2.61600	16
2.61967	16
2.62333	16
2.62700	17
2.63067	17
2.63433	17
2.63800	17
2.64167	17
2.64533	17
2.64900	17
2.65267	17
2.65633	17
2.66000	18
2.66367	19
2.66733	20
2.67100	20
2.67467	21
2.67833	22
2.68200	22
2.68567	22
2.68933	23
2.69300	23
2.69667	23
2.70033	24
2.70400	24
2.70767	24
2.71133	25
2.71500	25
2.71867	25
2.72233	25
2.72600	26
2.72967	26
2.73333	26
2.73700	26
2.74067	26
2.74433	27
2.74800	27
2.75167	27
2.75533	27
2.75900	27
2.76267	28
2.76633	28
2.77000	28
2.77367	28
2.77733	28
2.78100	27
2.78467	27
2.78833	27
2.79200	27
2.79567	27
2.79933	27
2.80300	27
2.80667	27
2.81033	27
2.81400	27
2.81767	28
2.82133	28
2.82500	28
2.82867	28
2.83233	28
2.83600	28
2.83967	28
2.84333	28
2.84700	28
2.85067	27
2.85433	27
2.85800	25
2.86167	23
2.86533	19
2.86900	12
2.87267	2
2.87633	-12
2.88000	-31
2.88367	-55
2.88733	-84
2.89100	-118
2.89467	-158
2.89833	-202
2.90200	-251
2.90567	-304
2.90933	-360
2.91300	-419
2.91667	-480
2.92033	-542
2.92400	-605
2.92767	-667
2.93133	-728
2.93500	-787
2.93867	-842
2.94233	-894
2.94600	-948
2.94967	-1003
2.95333	-1053
2.95700	-1089
2.96067	-1103
2.96433	-1092
2.96800	-1057
2.97167	-1003
2.97533	-935
2.97900	-859
2.98267	-779
2.98633	-699
2.99000	-621
2.99367	-548
2.99733	-479
3.00100	-417
3.00467	-361
3.00833	-311
3.01200	-267
3.01567	-228
3.01933	-194
3.02300	-165
3.02667	-139
3.03033	-117
3.03400	-98
3.03767	-82
3.04133	-68
3.04500	-56
3.04867	-46
3.05233	-37
3.05600	-29
3.05967	-23
3.06333	-17
3.06700	-12
3.07067	-8
3.07433	-4
3.07800	-1
3.08167	2
3.08533	4
3.08900	6
3.09267	8
3.09633	9
3.10000	11
3.10367	12
3.10733	13
3.11100	14
3.11467	15
3.11833	15
3.12200	15
3.12567	16
3.12933	16
3.13300	16
3.13667	16
3.14033	16
3.14400	17
3.14767	17
3.15133	17
3.15500	18
3.15867	18
3.16233	19
3.16600	19
3.16967	20
3.17333	20
3.17700	21
3.18067	21
3.18433	21
3.18800	22
3.19167	22
3.19533	22
3.19900	23
3.20267	23
3.20633	23
3.21000	23
3.21367	23
3.21733	23
3.22100	23
3.22467	23
3.22833	23
3.23200	23
3.23567	23
3.23933	23
3.24300	23
3.24667	23
3.25033	23
3.25400	23
3.25767	23
3.26133	23
3.26500	24
3.26867	24
3.27233	24
3.27600	24
3.27967	24
3.28333	24
3.28700	25
3.29067	25
3.29433	25
3.29800	25
3.30167	25
3.30533	25
3.30900	25
3.31267	25
3.31633	25
3.32000	25
3.32367	26
3.32733	26
3.33100	26
3.33467	26
3.33833	26
3.34200	26
3.34567	27
3.34933	27
3.35300	28
3.35667	28
3.36033	28
3.36400	28
3.36767	28
3.37133	28
3.37500	28
3.37867	28
3.38233	29
3.38600	29
3.38967	29
3.39333	29
3.39700	29
3.40067	29
3.40433	29
3.40800	29
3.41167	29
3.41533	29
3.41900	28
3.42267	28
3.42633	28
3.43000	28
3.43367	29
3.43733	29
3.44100	29
3.44467	29
3.44833	29
3.45200	29
3.45567	29
3.45933	29
3.46300	28
3.46667	28
3.47033	28
3.47400	28
3.47767	28
3.48133	28
3.48500	28
3.48867	28
3.49233	29
3.49600	29
3.49967	29
3.50333	29
3.50700	29
3.51067	29
3.51433	29
3.51800	29
3.52167	29
3.52533	29
3.52900	28
3.53267	28
3.53633	28
3.54000	28
3.54367	28
3.54733	28
3.55100	28
3.55467	28
3.55833	29
3.56200	29
3.56567	29
3.56933	29
3.57300	29
3.57667	29
3.58033	29
3.58400	30
3.58767	30
3.59133	30
3.59500	30
3.59867	30
3.60233	29
3.60600	29
3.60967	29
3.61333	28
3.61700	28
3.62067	28
3.62433	28
3.62800	28
3.63167	28
3.63533	28
3.63900	28
3.64267	28
3.64633	28
3.65000	28
3.65367	28
3.65733	28
3.66100	28
3.66467	28
3.66833	28
3.67200	28
3.67567	28
3.67933	28
3.68300	28
3.68667	28
3.69033	28
3.69400	27
3.69767	27
3.70133	27
3.70500	27
3.70867	27
3.71233	27
3.71600	27
3.71967	27
3.72333	27
3.72700	27
3.73067	27
3.73433	27
3.73800	27
3.74167	27
3.74533	27
3.74900	27
3.75267	27
3.75633	27
3.76000	27
3.76367	27
3.76733	27
3.77100	27
3.77467	27
3.77833	27
3.78200	27
3.78567	27
3.78933	27
3.79300	27
3.79667	27
3.80033	28
3.80400	28
3.80767	28
3.81133	28
3.81500	28
3.81867	28
3.82233	28
3.82600	28
3.82967	28
3.83333	28
3.83700	28
3.84067	28
3.84433	28
3.84800	28
3.85167	28
3.85533	28
3.85900	28
3.86267	28
3.86633	28
3.87000	28
3.87367	28
3.87733	28
3.88100	28
3.88467	28
3.88833	27
3.89200	27
3.89567	27
3.89933	28
3.90300	28
3.90667	28
3.91033	28
3.91400	28
3.91767	28
3.92133	28
3.92500	28
3.92867	28
3.93233	28
3.93600	28
3.93967	28
3.94333	28
3.94700	28
3.95067	28
3.95433	28
3.95800	28
3.96167	28
3.96533	29
3.96900	29
3.97267	29
3.97633	29
3.98000	29
3.98367	29
3.98733	29
3.99100	29
3.99467	29
3.99833	29

[Chromatogram (Ch3)]
Interval(msec)	220
# of Points	1091
Start Time(min)	0.002
End Time(min)	3.998
R.Time (min)	Intensity
0.00167	0
0.00533	2
0.00900	1
0.01267	1
0.01633	-1
0.02000	-2
0.02367	0
0.02733	2
0.03100	3
0.03467	4
0.03833	4
0.04200	3
0.04567	2
0.04933	1
0.05300	-0
0.05667	-0
0.06033	-1
0.06400	-2
0.06767	-4
0.07133	-4
0.07500	-5
0.07867	-4
0.08233	-3
0.08600	-4
0.08967	-2
0.09333	-3
0.09700	-3
0.10067	-3
0.10433	-2
0.10800	-1
0.11167	-2
0.11533	-2
0.11900	0
0.12267	2
0.12633	3
0.13000	3
0.13367	4
0.13733	3
0.14100	-0
0.14467	-2
0.14833	-4
0.15200	-3
0.15567	-3
0.15933	-4
0.16300	-4
0.16667	-1
0.17033	1
0.17400	4
0.17767	5
0.18133	7
0.18500	7
0.18867	7
0.19233	7
0.19600	6
0.19967	6
0.20333	4
0.20700	3
0.21067	3
0.21433	4
0.21800	4
0.22167	6
0.22533	7
0.22900	6
0.23267	5
0.23633	4
0.24000	5
0.24367	4
0.24733	5
0.25100	6
0.25467	6
0.25833	5
0.26200	5
0.26567	5
0.26933	5
0.27300	6
0.27667	7
0.28033	6
0.28400	5
0.28767	5
0.29133	4
0.29500	4
0.29867	5
0.30233	7
0.30600	8
0.30967	10
0.31333	10
0.31700	9
0.32067	8
0.32433	8
0.32800	10
0.33167	11
0.33533	10
0.33900	9
0.34267	8
0.34633	9
0.35000	8
0.35367	7
0.35733	6
0.36100	7
0.36467	7
0.36833	7
0.37200	7
0.37567	9
0.37933	10
0.38300	10
0.38667	10
0.39033	10
0.39400	11
0.39767	12
0.40133	12
0.40500	12
0.40867	11
0.41233	12
0.41600	12
0.41967	12
0.42333	11
0.42700	12
0.43067	13
0.43433	14
0.43800	13
0.44167	12
0.44533	11
0.44900	9
0.45267	11
0.45633	13
0.46000	14
0.46367	13
0.46733	12
0.47100	10
0.47467	9
0.47833	9
0.48200	10
0.48567	10
0.48933	8
0.49300	6
0.49667	7
0.50033	10
0.50400	11
0.50767	11
0.51133	9
0.51500	9
0.51867	9
0.52233	9
0.52600	10
0.52967	11
0.53333	11
0.53700	11
0.54067	11
0.54433	12
0.54800	14
0.55167	15
0.55533	15
0.55900	14
0.56267	14
0.56633	13
0.57000	13
0.57367	13
0.57733	13
0.58100	13
0.58467	13
0.58833	13
0.59200	12
0.59567	11
0.59933	10
0.60300	11
0.60667	12
0.61033	11
0.61400	12
0.61767	12
0.62133	11
0.62500	11
0.62867	14
0.63233	15
0.63600	15
0.63967	15
0.64333	14
0.64700	13
0.65067	12
0.65433	13
0.65800	13
0.66167	14
0.66533	14
0.66900	14
0.67267	14
0.67633	13
0.68000	12
0.68367	11
0.68733	9
0.69100	8
0.69467	11
0.69833	14
0.70200	15
0.70567	14
0.70933	13
0.71300	13
0.71667	14
0.72033	15
0.72400	16
0.72767	15
0.73133	16
0.73500	15
0.73867	16
0.74233	15
0.74600	13
0.74967	13
0.75333	13
0.75700	13
0.76067	15
0.76433	17
0.76800	17
0.77167	17
0.77533	18
0.77900	17
0.78267	15
0.78633	12
0.79000	10
0.79367	12
0.79733	16
0.80100	18
0.80467	18
0.80833	18
0.81200	17
0.81567	15
0.81933	14
0.82300	13
0.82667	12
0.83033	14
0.83400	15
0.83767	15
0.84133	16
0.84500	18
0.84867	19
0.85233	20
0.85600	19
0.85967	18
0.86333	18
0.86700	20
0.87067	19
0.87433	16
0.87800	15
0.88167	13
0.88533	13
0.88900	15
0.89267	17
0.89633	17
0.90000	17
0.90367	19
0.90733	19
0.91100	19
0.91467	18
0.91833	17
0.92200	19
0.92567	21
0.92933	22
0.93300	23
0.93667	23
0.94033	24
0.94400	25
0.94767	25
0.95133	22
0.95500	21
0.95867	21
0.96233	19
0.96600	17
0.96967	18
0.97333	18
0.97700	19
0.98067	20
0.98433	19
0.98800	20
0.99167	22
0.99533	22
0.99900	23
1.00267	23
1.00633	23
1.01000	25
1.01367	25
1.01733	24
1.02100	23
1.02467	24
1.02833	22
1.03200	21
1.03567	20
1.03933	19
1.04300	18
1.04667	17
1.05033	19
1.05400	20
1.05767	19
1.06133	18
1.06500	17
1.06867	17
1.07233	17
1.07600	18
1.07967	19
1.08333	19
1.08700	19
1.09067	17
1.09433	16
1.09800	16
1.10167	18
1.10533	20
1.10900	23
1.11267	26
1.11633	25
1.12000	23
1.12367	21
1.12733	18
1.13100	17
1.13467	17
1.13833	17
1.14200	17
1.14567	19
1.14933	21
1.15300	22
1.15667	22
1.16033	22
1.16400	22
1.16767	21
1.17133	19
1.17500	18
1.17867	19
1.18233	19
1.18600	20
1.18967	21
1.19333	23
1.19700	24
1.20067	24
1.20433	23
1.20800	22
1.21167	22
1.21533	23
1.21900	25
1.22267	26
1.22633	25
1.23000	24
1.23367	24
1.23733	24
1.24100	24
1.24467	25
1.24833	24
1.25200	23
1.25567	23
1.25933	24
1.26300	27
1.26667	29
1.27033	29
1.27400	28
1.27767	28
1.28133	27
1.28500	26
1.28867	27
1.29233	28
1.29600	28
1.29967	28
1.30333	27
1.30700	26
1.31067	26
1.31433	24
1.31800	23
1.32167	22
1.32533	22
1.32900	21
1.33267	23
1.33633	23
1.34000	23
1.34367	23
1.34733	25
1.35100	28
1.35467	31
1.35833	31
1.36200	30
1.36567	28
1.36933	26
1.37300	25
1.37667	25
1.38033	26
1.38400	27
1.38767	27
1.39133	28
1.39500	28
1.39867	27
1.40233	28
1.40600	27
1.40967	26
1.41333	24
1.41700	23
1.42067	23
1.42433	26
1.42800	29
1.43167	31
1.43533	30
1.43900	29
1.44267	29
1.44633	30
1.45000	31
1.45367	31
1.45733	28
1.46100	28
1.46467	26
1.46833	25
1.47200	24
1.47567	23
1.47933	23
1.48300	24
1.48667	25
1.49033	25
1.49400	24
1.49767	23
1.50133	24
1.50500	26
1.50867	28
1.51233	29
1.51600	30
1.51967	29
1.52333	29
1.52700	30
1.53067	30
1.53433	29
1.53800	31
1.54167	32
1.54533	34
1.54900	36
1.55267	35
1.55633	35
1.56000	36
1.56367	36
1.56733	34
1.57100	31
1.57467	29
1.57833	28
1.58200	29
1.58567	31
1.58933	32
1.59300	31
1.59667	30
1.60033	29
1.60400	30
1.60767	32
1.61133	33
1.61500	33
1.61867	33
1.62233	34
1.62600	34
1.62967	32
1.63333	31
1.63700	31
1.64067	32
1.64433	31
1.64800	32
1.65167	33
1.65533	35
1.65900	35
1.66267	36
1.66633	36
1.67000	36
1.67367	36
1.67733	35
1.68100	35
1.68467	36
1.68833	37
1.69200	38
1.69567	38
1.69933	37
1.70300	37
1.70667	37
1.71033	36
1.71400	37
1.71767	38
1.72133	39
1.72500	39
1.72867	38
1.73233	38
1.73600	35
1.73967	36
1.74333	37
1.74700	37
1.75067	39
1.75433	42
1.75800	43
1.76167	41
1.76533	39
1.76900	39
1.77267	38
1.77633	40
1.78000	41
1.78367	40
1.78733	39
1.79100	39
1.79467	41
1.79833	43
1.80200	46
1.80567	48
1.80933	48
1.81300	48
1.81667	48
1.82033	46
1.82400	46
1.82767	46
1.83133	47
1.83500	50
1.83867	51
1.84233	48
1.84600	45
1.84967	46
1.85333	47
1.85700	48
1.86067	50
1.86433	51
1.86800	54
1.87167	56
1.87533	57
1.87900	57
1.88267	56
1.88633	54
1.89000	57
1.89367	59
1.89733	61
1.90100	62
1.90467	61
1.90833	61
1.91200	64
1.91567	65
1.91933	65
1.92300	65
1.92667	63
1.93033	63
1.93400	63
1.93767	64
1.94133	65
1.94500	66
1.94867	67
1.95233	69
1.95600	71
1.95967	73
1.96333	74
1.96700	74
1.97067	73
1.97433	71
1.97800	70
1.98167	72
1.98533	74
1.98900	78
1.99267	80
1.99633	81
2.00000	80
2.00367	82
2.00733	83
2.01100	83
2.01467	85
2.01833	84
2.02200	83
2.02567	82
2.02933	81
2.03300	80
2.03667	82
2.04033	84
2.04400	87
2.04767	90
2.05133	93
2.05500	95
2.05867	96
2.06233	96
2.06600	96
2.06967	97
2.07333	98
2.07700	100
2.08067	100
2.08433	98
2.08800	98
2.09167	97
2.09533	94
2.09900	94
2.10267	96
2.10633	96
2.11000	97
2.11367	99
2.11733	101
2.12100	104
2.12467	105
2.12833	105
2.13200	106
2.13567	108
2.13933	108
2.14300	110
2.14667	112
2.15033	112
2.15400	110
2.15767	110
2.16133	112
2.16500	112
2.16867	111
2.17233	113
2.17600	112
2.17967	112
2.18333	114
2.18700	114
2.19067	115
2.19433	117
2.19800	118
2.20167	119
2.20533	121
2.20900	122
2.21267	123
2.21633	124
2.22000	124
2.22367	123
2.22733	124
2.23100	123
2.23467	125
2.23833	126
2.24200	126
2.24567	125
2.24933	124
2.25300	125
2.25667	126
2.26033	127
2.26400	130
2.26767	132
2.27133	131
2.27500	129
2.27867	130
2.28233	130
2.28600	130
2.28967	130
2.29333	131
2.29700	130
2.30067	130
2.30433	131
2.30800	132
2.31167	132
2.31533	132
2.31900	132
2.32267	131
2.32633	130
2.33000	130
2.33367	130
2.33733	132
2.34100	136
2.34467	137
2.34833	138
2.35200	137
2.35567	137
2.35933	137
2.36300	135
2.36667	138
2.37033	139
2.37400	137
2.37767	137
2.38133	136
2.38500	134
2.38867	131
2.39233	131
2.39600	131
2.39967	134
2.40333	140
2.40700	144
2.41067	147
2.41433	150
2.41800	152
2.42167	152
2.42533	151
2.42900	151
2.43267	152
2.43633	154
2.44000	160
2.44367	225
2.44733	364
2.45100	518
2.45467	638
2.45833	726
2.46200	791
2.46567	836
2.46933	861
2.47300	871
2.47667	875
2.48033	881
2.48400	896
2.48767	914
2.49133	933
2.49500	952
2.49867	968
2.50233	973
2.50600	966
2.50967	950
2.51333	930
2.51700	907
2.52067	887
2.52433	871
2.52800	860
2.53167	855
2.53533	852
2.53900	854
2.54267	859
2.54633	864
2.55000	870
2.55367	878
2.55733	890
2.56100	905
2.56467	917
2.56833	925
2.57200	929
2.57567	927
2.57933	917
2.58300	903
2.58667	885
2.59033	865
2.59400	846
2.59767	828
2.60133	815
2.60500	803
2.60867	791
2.61233	779
2.61600	768
2.61967	758
2.62333	748
2.62700	738
2.63067	728
2.63433	718
2.63800	710
2.64167	705
2.64533	700
2.64900	698
2.65267	695
2.65633	693
2.66000	692
2.66367	694
2.66733	695
2.67100	697
2.67467	698
2.67833	703
2.68200	708
2.68567	714
2.68933	720
2.69300	727
2.69667	732
2.70033	738
2.70400	743
2.70767	749
2.71133	757
2.71500	763
2.71867	767
2.72233	771
2.72600	773
2.72967	775
2.73333	774
2.73700	774
2.74067	772
2.74433	768
2.74800	766
2.75167	764
2.75533	760
2.75900	755
2.76267	749
2.76633	744
2.77000	739
2.77367	734
2.77733	728
2.78100	721
2.78467	715
2.78833	712
2.79200	708
2.79567	703
2.79933	701
2.80300	701
2.80667	702
2.81033	702
2.81400	701
2.81767	700
2.82133	701
2.82500	702
2.82867	704
2.83233	710
2.83600	729
2.83967	776
2.84333	872
2.84700	1040
2.85067	1309
2.85433	1699
2.85800	2211
2.86167	2829
2.86533	3515
2.86900	4216
2.87267	4878
2.87633	5444
2.88000	5869
2.88367	6129
2.88733	6217
2.89100	6149
2.89467	5951
2.89833	5657
2.90200	5295
2.90567	4899
2.90933	4495
2.91300	4096
2.91667	3714
2.92033	3356
2.92400	3027
2.92767	2728
2.93133	2460
2.93500	2223
2.93867	2016
2.94233	1835
2.94600	1676
2.94967	1535
2.95333	1414
2.95700	1309
2.96067	1217
2.96433	1140
2.96800	1073
2.97167	1017
2.97533	969
2.97900	926
2.98267	890
2.98633	861
2.99000	836
2.99367	814
2.99733	794
3.00100	778
3.00467	764
3.00833	752
3.01200	743
3.01567	737
3.01933	733
3.02300	730
3.02667	726
3.03033	722
3.03400	719
3.03767	717
3.04133	714
3.04500	713
3.04867	713
3.05233	713
3.05600	713
3.05967	712
3.06333	711
3.06700	711
3.07067	713
3.07433	715
3.07800	715
3.08167	715
3.08533	715
3.08900	716
3.09267	718
3.09633	717
3.10000	716
3.10367	713
3.10733	711
3.11100	709
3.11467	708
3.11833	707
3.12200	707
3.12567	708
3.12933	708
3.13300	709
3.13667	709
3.14033	709
3.14400	709
3.14767	709
3.15133	706
3.15500	703
3.15867	700
3.16233	698
3.16600	696
3.16967	695
3.17333	692
3.17700	691
3.18067	691
3.18433	690
3.18800	690
3.19167	690
3.19533	689
3.19900	688
3.20267	687
3.20633	686
3.21000	685
3.21367	684
3.21733	685
3.22100	686
3.22467	685
3.22833	683
3.23200	682
3.23567	681
3.23933	683
3.24300	683
3.24667	680
3.25033	675
3.25400	673
3.25767	674
3.26133	673
3.26500	674
3.26867	673
3.27233	668
3.27600	665
3.27967	663
3.28333	660
3.28700	657
3.29067	655
3.29433	654
3.29800	652
3.30167	651
3.30533	650
3.30900	648
3.31267	644
3.31633	641
3.32000	641
3.32367	640
3.32733	639
3.33100	639
3.33467	638
3.33833	634
3.34200	631
3.34567	629
3.34933	628
3.35300	627
3.35667	628
3.36033	627
3.36400	624
3.36767	621
3.37133	618
3.37500	614
3.37867	609
3.38233	605
3.38600	602
3.38967	600
3.39333	600
3.39700	599
3.40067	598
3.40433	597
3.40800	594
3.41167	591
3.41533	588
3.41900	584
3.42267	581
3.42633	579
3.43000	578
3.43367	575
3.43733	572
3.44100	570
3.44467	566
3.44833	559
3.45200	554
3.45567	551
3.45933	548
3.46300	545
3.46667	544
3.47033	542
3.47400	541
3.47767	539
3.48133	536
3.48500	534
3.48867	531
3.49233	528
3.49600	525
3.49967	521
3.50333	518
3.50700	515
3.51067	513
3.51433	509
3.51800	504
3.52167	502
3.52533	503
3.52900	503
3.53267	500
3.53633	496
3.54000	492
3.54367	489
3.54733	485
3.55100	484
3.55467	485
3.55833	484
3.56200	482
3.56567	479
3.56933	474
3.57300	470
3.57667	467
3.58033	464
3.58400	460
3.58767	457
3.59133	454
3.59500	452
3.59867	450
3.60233	449
3.60600	446
3.60967	443
3.61333	439
3.61700	437
3.62067	439
3.62433	440
3.62800	439
3.63167	435
3.63533	430
3.63900	425
3.64267	421
3.64633	420
3.65000	419
3.65367	418
3.65733	419
3.66100	418
3.66467	416
3.66833	414
3.67200	413
3.67567	409
3.67933	405
3.68300	403
3.68667	400
3.69033	398
3.69400	397
3.69767	395
3.70133	392
3.70500	391
3.70867	391
3.71233	392
3.71600	391
3.71967	389
3.72333	388
3.72700	388
3.73067	386
3.73433	386
3.73800	385
3.74167	385
3.74533	383
3.74900	380
3.75267	378
3.75633	377
3.76000	378
3.76367	377
3.76733	375
3.77100	375
3.77467	376
3.77833	377
3.78200	377
3.78567	375
3.78933	375
3.79300	375
3.79667	375
3.80033	374
3.80400	371
3.80767	367
3.81133	366
3.81500	366
3.81867	367
3.82233	367
3.82600	366
3.82967	363
3.83333	361
3.83700	361
3.84067	362
3.84433	364
3.84800	363
3.85167	364
3.85533	363
3.85900	363
3.86267	364
3.86633	364
3.87000	361
3.87367	359
3.87733	359
3.88100	360
3.88467	363
3.88833	364
3.89200	366
3.89567	367
3.89933	367
3.90300	367
3.90667	365
3.91033	363
3.91400	363
3.91767	365
3.92133	365
3.92500	367
3.92867	368
3.93233	369
3.93600	369
3.93967	368
3.94333	368
3.94700	369
3.95067	369
3.95433	369
3.95800	372
3.96167	373
3.96533	371
3.96900	370
3.97267	370
3.97633	372
3.98000	374
3.98367	374
3.98733	374
3.99100	372
3.99467	372
3.99833	371

[Status Trace (Column Oven Temperature)]
Interval(msec)	1000
# of Points	240
Start Time(min)	0.007
End Time(min)	3.990
Intensity Units	
Intensity Multiplier	1
R.Time (min)	Intensity
0.00668	35.08
0.02335	35.08
0.04002	35.08
0.05668	35.08
0.07335	35.07
0.09002	35.06
0.10668	35.06
0.12335	35.05
0.14002	35.05
0.15668	35.05
0.17335	35.06
0.19002	35.07
0.20668	35.07
0.22335	35.06
0.24002	35.05
0.25668	35.05
0.27335	35.06
0.29002	35.05
0.30668	35.06
0.32335	35.06
0.34002	35.05
0.35668	35.04
0.37335	35.05
0.39002	35.05
0.40668	35.05
0.42335	35.05
0.44002	35.04
0.45668	35.04
0.47335	35.04
0.49002	35.03
0.50668	35.03
0.52335	35.01
0.54002	35.01
0.55668	35.01
0.57335	35.01
0.59002	35.01
0.60668	35.02
0.62335	35.01
0.64002	35.00
0.65668	35.00
0.67335	35.00
0.69002	35.01
0.70668	35.01
0.72335	35.01
0.74002	35.01
0.75668	35.01
0.77335	35.01
0.79002	35.00
0.80668	34.99
0.82335	34.99
0.84002	34.99
0.85668	34.99
0.87335	34.99
0.89002	35.00
0.90668	35.00
0.92335	35.01
0.94002	35.01
0.95668	35.00
0.97335	35.00
0.99002	35.00
1.00668	35.01
1.02335	35.02
1.04002	35.03
1.05668	35.02
1.07335	35.03
1.09002	35.03
1.10668	35.02
1.12335	35.01
1.14002	35.00
1.15668	35.01
1.17335	35.01
1.19002	35.01
1.20668	35.01
1.22335	35.01
1.24002	35.00
1.25668	35.00
1.27335	34.99
1.29002	35.00
1.30668	34.99
1.32335	34.99
1.34002	34.98
1.35668	34.99
1.37335	35.00
1.39002	35.01
1.40668	35.01
1.42335	34.99
1.44002	34.98
1.45668	34.97
1.47335	34.96
1.49002	34.97
1.50668	34.98
1.52335	34.98
1.54002	34.98
1.55668	34.99
1.57335	35.00
1.59002	35.01
1.60668	35.05
1.62335	35.18
1.64002	35.38
1.65668	35.60
1.67335	35.92
1.69002	36.32
1.70668	36.63
1.72335	36.99
1.74002	37.34
1.75668	37.62
1.77335	37.96
1.79002	38.33
1.80668	38.64
1.82335	38.97
1.84002	39.33
1.85668	39.63
1.87335	39.96
1.89002	40.31
1.90668	40.61
1.92335	40.92
1.94002	41.26
1.95668	41.56
1.97335	41.88
1.99002	42.23
2.00668	42.53
2.02335	42.86
2.04002	43.23
2.05668	43.52
2.07335	43.86
2.09002	44.21
2.10668	44.52
2.12335	44.84
2.14002	45.17
2.15668	45.48
2.17335	45.79
2.19002	46.18
2.20668	46.46
2.22335	46.79
2.24002	47.14
2.25668	47.45
2.27335	47.78
2.29002	48.15
2.30668	48.48
2.32335	48.81
2.34002	49.16
2.35668	49.40
2.37335	49.59
2.39002	49.65
2.40668	49.65
2.42335	49.66
2.44002	49.66
2.45668	49.67
2.47335	49.67
2.49002	49.68
2.50668	49.69
2.52335	49.71
2.54002	49.71
2.55668	49.74
2.57335	49.74
2.59002	49.76
2.60668	49.78
2.62335	49.79
2.64002	49.84
2.65668	49.84
2.67335	49.84
2.69002	49.85
2.70668	49.84
2.72335	49.86
2.74002	49.85
2.75668	49.85
2.77335	49.86
2.79002	49.87
2.80668	49.86
2.82335	49.85
2.84002	49.87
2.85668	49.88
2.87335	49.88
2.89002	49.89
2.90668	49.90
2.92335	49.91
2.94002	49.93
2.95668	49.94
2.97335	49.95
2.99002	49.96
3.00668	49.97
3.02335	49.99
3.04002	50.00
3.05668	50.01
3.07335	50.01
3.09002	50.01
3.10668	50.01
3.12335	50.02
3.14002	50.04
3.15668	50.04
3.17335	50.04
3.19002	50.05
3.20668	50.05
3.22335	50.05
3.24002	50.08
3.25668	50.08
3.27335	50.09
3.29002	50.10
3.30668	50.10
3.32335	50.11
3.34002	50.10
3.35668	50.09
3.37335	50.07
3.39002	50.06
3.40668	50.05
3.42335	50.05
3.44002	50.04
3.45668	50.05
3.47335	50.05
3.49002	50.06
3.50668	50.06
3.52335	50.06
3.54002	50.06
3.55668	50.06
3.57335	50.05
3.59002	50.04
3.60668	50.04
3.62335	50.06
3.64002	50.05
3.65668	50.05
3.67335	50.06
3.69002	50.05
3.70668	50.05
3.72335	50.06
3.74002	50.06
3.75668	50.06
3.77335	50.08
3.79002	50.08
3.80668	50.07
3.82335	50.07
3.84002	50.07
3.85668	50.08
3.87335	50.08
3.89002	50.07
3.90668	50.08
3.92335	50.07
3.94002	50.07
3.95668	50.07
3.97335	50.07
3.99002	50.07

[Status Trace (Injection Unit Temperature)]
Interval(msec)	1000
# of Points	240
Start Time(min)	0.007
End Time(min)	3.990
Intensity Units	
Intensity Multiplier	1
R.Time (min)	Intensity
0.00668	99.98
0.02335	99.98
0.04002	99.98
0.05668	99.98
0.07335	99.98
0.09002	99.98
0.10668	99.98
0.12335	99.98
0.14002	99.98
0.15668	99.98
0.17335	99.99
0.19002	99.98
0.20668	99.98
0.22335	99.98
0.24002	99.99
0.25668	99.98
0.27335	99.99
0.29002	99.99
0.30668	99.98
0.32335	99.98
0.34002	99.98
0.35668	99.99
0.37335	99.99
0.39002	99.99
0.40668	99.98
0.42335	99.99
0.44002	99.99
0.45668	99.99
0.47335	99.99
0.49002	99.99
0.50668	99.99
0.52335	99.99
0.54002	99.99
0.55668	99.99
0.57335	99.98
0.59002	99.99
0.60668	99.98
0.62335	99.98
0.64002	99.99
0.65668	99.99
0.67335	99.99
0.69002	99.98
0.70668	99.99
0.72335	99.98
0.74002	99.99
0.75668	99.98
0.77335	99.98
0.79002	99.99
0.80668	99.99
0.82335	99.98
0.84002	99.99
0.85668	99.98
0.87335	99.99
0.89002	99.99
0.90668	99.98
0.92335	99.99
0.94002	99.98
0.95668	99.99
0.97335	99.99
0.99002	99.98
1.00668	99.99
1.02335	99.98
1.04002	99.98
1.05668	99.99
1.07335	99.98
1.09002	99.99
1.10668	99.99
1.12335	99.99
1.14002	99.99
1.15668	99.99
1.17335	99.99
1.19002	99.99
1.20668	99.98
1.22335	99.99
1.24002	99.99
1.25668	99.99
1.27335	99.99
1.29002	99.98
1.30668	99.98
1.32335	99.99
1.34002	99.99
1.35668	99.99
1.37335	99.99
1.39002	99.99
1.40668	99.99
1.42335	99.99
1.44002	99.99
1.45668	99.99
1.47335	99.99
1.49002	99.99
1.50668	99.98
1.52335	99.99
1.54002	99.99
1.55668	99.99
1.57335	99.99
1.59002	99.99
1.60668	99.99
1.62335	99.99
1.64002	99.99
1.65668	99.99
1.67335	99.99
1.69002	99.99
1.70668	99.99
1.72335	99.98
1.74002	99.98
1.75668	99.99
1.77335	99.99
1.79002	99.98
1.80668	99.98
1.82335	99.98
1.84002	99.98
1.85668	99.98
1.87335	99.98
1.89002	99.98
1.90668	99.98
1.92335	99.98
1.94002	99.98
1.95668	99.98
1.97335	99.98
1.99002	99.98
2.00668	99.97
2.02335	99.97
2.04002	99.97
2.05668	99.97
2.07335	99.98
2.09002	99.98
2.10668	99.97
2.12335	99.98
2.14002	99.97
2.15668	99.98
2.17335	99.97
2.19002	99.97
2.20668	99.97
2.22335	99.97
2.24002	99.97
2.25668	99.97
2.27335	99.97
2.29002	99.97
2.30668	99.97
2.32335	99.97
2.34002	99.97
2.35668	99.97
2.37335	99.97
2.39002	99.97
2.40668	99.97
2.42335	99.97
2.44002	99.97
2.45668	99.98
2.47335	99.97
2.49002	99.97
2.50668	99.98
2.52335	99.97
2.54002	99.98
2.55668	99.98
2.57335	99.98
2.59002	99.98
2.60668	99.98
2.62335	99.98
2.64002	99.98
2.65668	99.98
2.67335	99.99
2.69002	99.99
2.70668	99.99
2.72335	99.99
2.74002	99.99
2.75668	100.00
2.77335	100.00
2.79002	100.00
2.80668	100.00
2.82335	100.00
2.84002	100.00
2.85668	100.00
2.87335	100.01
2.89002	100.01
2.90668	100.01
2.92335	100.01
2.94002	100.01
2.95668	100.01
2.97335	100.01
2.99002	100.01
3.00668	100.02
3.02335	100.02
3.04002	100.02
3.05668	100.02
3.07335	100.02
3.09002	100.02
3.10668	100.02
3.12335	100.02
3.14002	100.03
3.15668	100.02
3.17335	100.02
3.19002	100.02
3.20668	100.03
3.22335	100.03
3.24002	100.03
3.25668	100.03
3.27335	100.03
3.29002	100.03
3.30668	100.04
3.32335	100.03
3.34002	100.04
3.35668	100.03
3.37335	100.04
3.39002	100.04
3.40668	100.04
3.42335	100.04
3.44002	100.04
3.45668	100.04
3.47335	100.04
3.49002	100.04
3.50668	100.04
3.52335	100.05
3.54002	100.04
3.55668	100.04
3.57335	100.04
3.59002	100.04
3.60668	100.05
3.62335	100.04
3.64002	100.04
3.65668	100.05
3.67335	100.04
3.69002	100.05
3.70668	100.05
3.72335	100.05
3.74002	100.05
3.75668	100.05
3.77335	100.05
3.79002	100.04
3.80668	100.05
3.82335	100.05
3.84002	100.05
3.85668	100.05
3.87335	100.05
3.89002	100.05
3.90668	100.05
3.92335	100.05
3.94002	100.05
3.95668	100.05
3.97335	100.05
3.99002	100.05

[Status Trace (Carrier Gas Pressure)]
Interval(msec)	1000
# of Points	240
Start Time(min)	0.007
End Time(min)	3.990
Intensity Units	
Intensity Multiplier	1
R.Time (min)	Intensity
0.00668	58.00
0.02335	55.57
0.04002	56.96
0.05668	59.03
0.07335	59.59
0.09002	58.10
0.10668	57.98
0.12335	58.01
0.14002	58.01
0.15668	58.01
0.17335	58.00
0.19002	58.00
0.20668	58.00
0.22335	58.00
0.24002	58.00
0.25668	58.00
0.27335	58.00
0.29002	58.00
0.30668	58.00
0.32335	58.00
0.34002	58.00
0.35668	58.00
0.37335	58.00
0.39002	58.00
0.40668	58.00
0.42335	58.00
0.44002	58.00
0.45668	58.00
0.47335	58.00
0.49002	58.00
0.50668	58.00
0.52335	58.00
0.54002	58.00
0.55668	58.00
0.57335	58.00
0.59002	58.00
0.60668	58.00
0.62335	58.00
0.64002	58.00
0.65668	58.00
0.67335	58.00
0.69002	58.00
0.70668	58.00
0.72335	58.00
0.74002	58.00
0.75668	58.00
0.77335	58.00
0.79002	58.00
0.80668	58.00
0.82335	58.00
0.84002	58.00
0.85668	58.00
0.87335	58.00
0.89002	58.00
0.90668	58.00
0.92335	58.00
0.94002	58.00
0.95668	58.00
0.97335	58.00
0.99002	58.00
1.00668	58.00
1.02335	58.00
1.04002	58.00
1.05668	58.00
1.07335	58.00
1.09002	58.00
1.10668	58.00
1.12335	58.00
1.14002	58.00
1.15668	58.00
1.17335	58.00
1.19002	58.00
1.20668	58.00
1.22335	58.00
1.24002	58.00
1.25668	58.00
1.27335	58.00
1.29002	58.00
1.30668	58.00
1.32335	58.00
1.34002	58.00
1.35668	58.00
1.37335	58.00
1.39002	58.00
1.40668	58.00
1.42335	58.00
1.44002	58.00
1.45668	58.00
1.47335	58.00
1.49002	58.00
1.50668	58.00
1.52335	58.00
1.54002	58.00
1.55668	58.00
1.57335	58.00
1.59002	58.00
1.60668	58.00
1.62335	58.00
1.64002	58.00
1.65668	58.00
1.67335	58.01
1.69002	58.01
1.70668	58.00
1.72335	58.00
1.74002	58.00
1.75668	58.00
1.77335	58.00
1.79002	58.00
1.80668	58.00
1.82335	58.00
1.84002	58.00
1.85668	58.00
1.87335	58.00
1.89002	58.00
1.90668	58.00
1.92335	58.00
1.94002	58.00
1.95668	58.00
1.97335	58.00
1.99002	58.00
2.00668	58.00
2.02335	58.00
2.04002	58.00
2.05668	58.00
2.07335	58.00
2.09002	58.00
2.10668	58.00
2.12335	58.00
2.14002	58.00
2.15668	58.00
2.17335	58.00
2.19002	58.00
2.20668	58.00
2.22335	58.00
2.24002	58.00
2.25668	58.00
2.27335	58.00
2.29002	58.00
2.30668	58.00
2.32335	58.00
2.34002	58.00
2.35668	58.00
2.37335	58.00
2.39002	57.99
2.40668	58.00
2.42335	58.00
2.44002	58.00
2.45668	58.00
2.47335	58.00
2.49002	58.00
2.50668	57.99
2.52335	57.99
2.54002	58.00
2.55668	58.00
2.57335	58.00
2.59002	58.00
2.60668	58.00
2.62335	58.00
2.64002	58.00
2.65668	58.00
2.67335	58.00
2.69002	58.00
2.70668	58.00
2.72335	58.00
2.74002	58.00
2.75668	58.00
2.77335	58.00
2.79002	58.00
2.80668	58.00
2.82335	58.00
2.84002	58.00
2.85668	58.00
2.87335	58.00
2.89002	58.00
2.90668	58.00
2.92335	58.00
2.94002	58.00
2.95668	58.00
2.97335	58.00
2.99002	58.00
3.00668	58.00
3.02335	58.00
3.04002	58.00
3.05668	58.00
3.07335	58.00
3.09002	58.00
3.10668	58.00
3.12335	58.00
3.14002	58.00
3.15668	58.00
3.17335	58.00
3.19002	58.00
3.20668	58.00
3.22335	58.00
3.24002	58.00
3.25668	58.00
3.27335	58.00
3.29002	58.00
3.30668	58.00
3.32335	58.00
3.34002	58.00
3.35668	58.00
3.37335	58.00
3.39002	58.00
3.40668	58.00
3.42335	58.00
3.44002	58.00
3.45668	58.00
3.47335	58.00
3.49002	58.00
3.50668	58.00
3.52335	58.00
3.54002	58.00
3.55668	58.00
3.57335	58.00
3.59002	58.00
3.60668	58.00
3.62335	58.00
3.64002	58.00
3.65668	58.00
3.67335	58.00
3.69002	58.00
3.70668	58.00
3.72335	58.00
3.74002	58.00
3.75668	58.00
3.77335	58.00
3.79002	58.00
3.80668	58.00
3.82335	58.00
3.84002	58.00
3.85668	58.00
3.87335	58.00
3.89002	58.00
3.90668	58.00
3.92335	58.00
3.94002	58.00
3.95668	58.00
3.97335	58.00
3.99002	58.00

[Status Trace (Carrier Gas Flow)]
Interval(msec)	1000
# of Points	240
Start Time(min)	0.007
End Time(min)	3.990
Intensity Units	
Intensity Multiplier	1
R.Time (min)	Intensity
0.00668	34.52
0.02335	34.53
0.04002	34.54
0.05668	34.54
0.07335	34.49
0.09002	34.52
0.10668	34.52
0.12335	34.52
0.14002	34.52
0.15668	34.52
0.17335	34.52
0.19002	34.52
0.20668	34.52
0.22335	34.51
0.24002	34.52
0.25668	34.52
0.27335	34.52
0.29002	34.52
0.30668	34.52
0.32335	34.51
0.34002	34.52
0.35668	34.52
0.37335	34.52
0.39002	34.52
0.40668	34.52
0.42335	34.52
0.44002	34.52
0.45668	34.52
0.47335	34.52
0.49002	34.52
0.50668	34.52
0.52335	34.52
0.54002	34.52
0.55668	34.52
0.57335	34.52
0.59002	34.53
0.60668	34.52
0.62335	34.52
0.64002	34.51
0.65668	34.52
0.67335	34.52
0.69002	34.52
0.70668	34.52
0.72335	34.52
0.74002	34.52
0.75668	34.52
0.77335	34.52
0.79002	34.52
0.80668	34.52
0.82335	34.52
0.84002	34.52
0.85668	34.52
0.87335	34.52
0.89002	34.52
0.90668	34.53
0.92335	34.52
0.94002	34.51
0.95668	34.52
0.97335	34.52
0.99002	34.52
1.00668	34.52
1.02335	34.52
1.04002	34.52
1.05668	34.52
1.07335	34.51
1.09002	34.52
1.10668	34.52
1.12335	34.52
1.14002	34.52
1.15668	34.52
1.17335	34.52
1.19002	34.52
1.20668	34.52
1.22335	34.52
1.24002	34.52
1.25668	34.52
1.27335	34.52
1.29002	34.52
1.30668	34.51
1.32335	34.52
1.34002	34.52
1.35668	34.52
1.37335	34.52
1.39002	34.52
1.40668	34.52
1.42335	34.52
1.44002	34.51
1.45668	34.52
1.47335	34.52
1.49002	34.52
1.50668	34.52
1.52335	34.52
1.54002	34.52
1.55668	34.52
1.57335	34.52
1.59002	34.52
1.60668	34.52
1.62335	34.52
1.64002	34.52
1.65668	34.52
1.67335	34.52
1.69002	34.52
1.70668	34.52
1.72335	34.52
1.74002	34.51
1.75668	34.53
1.77335	34.52
1.79002	34.52
1.80668	34.52
1.82335	34.52
1.84002	34.52
1.85668	34.52
1.87335	34.52
1.89002	34.52
1.90668	34.52
1.92335	34.52
1.94002	34.52
1.95668	34.52
1.97335	34.52
1.99002	34.52
2.00668	34.52
2.02335	34.52
2.04002	34.52
2.05668	34.52
2.07335	34.53
2.09002	34.52
2.10668	34.52
2.12335	34.52
2.14002	34.52
2.15668	34.52
2.17335	34.52
2.19002	34.53
2.20668	34.52
2.22335	34.52
2.24002	34.52
2.25668	34.52
2.27335	34.51
2.29002	34.52
2.30668	34.52
2.32335	34.51
2.34002	34.51
2.35668	34.52
2.37335	34.51
2.39002	34.51
2.40668	34.52
2.42335	34.51
2.44002	34.52
2.45668	34.51
2.47335	34.52
2.49002	34.52
2.50668	34.46
2.52335	34.52
2.54002	34.52
2.55668	34.52
2.57335	34.52
2.59002	34.52
2.60668	34.52
2.62335	34.52
2.64002	34.52
2.65668	34.52
2.67335	34.51
2.69002	34.52
2.70668	34.52
2.72335	34.52
2.74002	34.52
2.75668	34.52
2.77335	34.52
2.79002	34.52
2.80668	34.52
2.82335	34.52
2.84002	34.52
2.85668	34.52
2.87335	34.52
2.89002	34.52
2.90668	34.52
2.92335	34.51
2.94002	34.52
2.95668	34.52
2.97335	34.52
2.99002	34.52
3.00668	34.52
3.02335	34.52
3.04002	34.52
3.05668	34.52
3.07335	34.52
3.09002	34.52
3.10668	34.52
3.12335	34.52
3.14002	34.52
3.15668	34.52
3.17335	34.52
3.19002	34.52
3.20668	34.52
3.22335	34.52
3.24002	34.52
3.25668	34.52
3.27335	34.52
3.29002	34.52
3.30668	34.52
3.32335	34.52
3.34002	34.53
3.35668	34.52
3.37335	34.52
3.39002	34.52
3.40668	34.52
3.42335	34.52
3.44002	34.52
3.45668	34.51
3.47335	34.51
3.49002	34.52
3.50668	34.52
3.52335	34.52
3.54002	34.51
3.55668	34.52
3.57335	34.52
3.59002	34.51
3.60668	34.52
3.62335	34.51
3.64002	34.52
3.65668	34.52
3.67335	34.52
3.69002	34.52
3.70668	34.52
3.72335	34.52
3.74002	34.52
3.75668	34.52
3.77335	34.53
3.79002	34.52
3.80668	34.51
3.82335	34.52
3.84002	34.52
3.85668	34.52
3.87335	34.52
3.89002	34.52
3.90668	34.52
3.92335	34.52
3.94002	34.52
3.95668	34.52
3.97335	34.52
3.99002	34.52

[Status Trace (Column Flow)]
Interval(msec)	1000
# of Points	240
Start Time(min)	0.007
End Time(min)	3.990
Intensity Units	
Intensity Multiplier	1
R.Time (min)	Intensity
0.00668	5.49
0.02335	5.21
0.04002	5.37
0.05668	5.61
0.07335	5.68
0.09002	5.51
0.10668	5.49
0.12335	5.50
0.14002	5.50
0.15668	5.50
0.17335	5.50
0.19002	5.49
0.20668	5.49
0.22335	5.49
0.24002	5.49
0.25668	5.49
0.27335	5.49
0.29002	5.49
0.30668	5.49
0.32335	5.49
0.34002	5.49
0.35668	5.49
0.37335	5.49
0.39002	5.49
0.40668	5.49
0.42335	5.49
0.44002	5.50
0.45668	5.50
0.47335	5.50
0.49002	5.50
0.50668	5.50
0.52335	5.50
0.54002	5.50
0.55668	5.50
0.57335	5.50
0.59002	5.50
0.60668	5.50
0.62335	5.50
0.64002	5.50
0.65668	5.50
0.67335	5.50
0.69002	5.50
0.70668	5.50
0.72335	5.50
0.74002	5.50
0.75668	5.50
0.77335	5.50
0.79002	5.50
0.80668	5.50
0.82335	5.50
0.84002	5.50
0.85668	5.50
0.87335	5.50
0.89002	5.50
0.90668	5.50
0.92335	5.50
0.94002	5.50
0.95668	5.50
0.97335	5.50
0.99002	5.50
1.00668	5.50
1.02335	5.50
1.04002	5.50
1.05668	5.50
1.07335	5.50
1.09002	5.50
1.10668	5.50
1.12335	5.50
1.14002	5.50
1.15668	5.50
1.17335	5.50
1.19002	5.50
1.20668	5.50
1.22335	5.50
1.24002	5.50
1.25668	5.50
1.27335	5.50
1.29002	5.50
1.30668	5.50
1.32335	5.50
1.34002	5.50
1.35668	5.50
1.37335	5.50
1.39002	5.50
1.40668	5.50
1.42335	5.50
1.44002	5.50
1.45668	5.50
1.47335	5.50
1.49002	5.50
1.50668	5.50
1.52335	5.50
1.54002	5.50
1.55668	5.50
1.57335	5.50
1.59002	5.50
1.60668	5.49
1.62335	5.49
1.64002	5.49
1.65668	5.48
1.67335	5.47
1.69002	5.46
1.70668	5.45
1.72335	5.43
1.74002	5.42
1.75668	5.42
1.77335	5.40
1.79002	5.39
1.80668	5.38
1.82335	5.37
1.84002	5.36
1.85668	5.35
1.87335	5.34
1.89002	5.33
1.90668	5.32
1.92335	5.32
1.94002	5.31
1.95668	5.30
1.97335	5.29
1.99002	5.28
2.00668	5.27
2.02335	5.26
2.04002	5.25
2.05668	5.24
2.07335	5.23
2.09002	5.22
2.10668	5.21
2.12335	5.20
2.14002	5.19
2.15668	5.18
2.17335	5.17
2.19002	5.16
2.20668	5.15
2.22335	5.14
2.24002	5.14
2.25668	5.13
2.27335	5.12
2.29002	5.11
2.30668	5.10
2.32335	5.09
2.34002	5.08
2.35668	5.07
2.37335	5.07
2.39002	5.06
2.40668	5.06
2.42335	5.06
2.44002	5.06
2.45668	5.06
2.47335	5.06
2.49002	5.06
2.50668	5.06
2.52335	5.06
2.54002	5.06
2.55668	5.06
2.57335	5.06
2.59002	5.06
2.60668	5.06
2.62335	5.06
2.64002	5.06
2.65668	5.06
2.67335	5.06
2.69002	5.06
2.70668	5.06
2.72335	5.06
2.74002	5.06
2.75668	5.06
2.77335	5.06
2.79002	5.06
2.80668	5.06
2.82335	5.06
2.84002	5.06
2.85668	5.06
2.87335	5.06
2.89002	5.06
2.90668	5.06
2.92335	5.06
2.94002	5.06
2.95668	5.06
2.97335	5.06
2.99002	5.06
3.00668	5.06
3.02335	5.06
3.04002	5.06
3.05668	5.05
3.07335	5.05
3.09002	5.05
3.10668	5.05
3.12335	5.05
3.14002	5.05
3.15668	5.05
3.17335	5.05
3.19002	5.05
3.20668	5.05
3.22335	5.05
3.24002	5.05
3.25668	5.05
3.27335	5.05
3.29002	5.05
3.30668	5.05
3.32335	5.05
3.34002	5.05
3.35668	5.05
3.37335	5.05
3.39002	5.05
3.40668	5.05
3.42335	5.05
3.44002	5.05
3.45668	5.05
3.47335	5.05
3.49002	5.05
3.50668	5.05
3.52335	5.05
3.54002	5.05
3.55668	5.05
3.57335	5.05
3.59002	5.05
3.60668	5.05
3.62335	5.05
3.64002	5.05
3.65668	5.05
3.67335	5.05
3.69002	5.05
3.70668	5.05
3.72335	5.05
3.74002	5.05
3.75668	5.05
3.77335	5.05
3.79002	5.05
3.80668	5.05
3.82335	5.05
3.84002	5.05
3.85668	5.05
3.87335	5.05
3.89002	5.05
3.90668	5.05
3.92335	5.05
3.94002	5.05
3.95668	5.05
3.97335	5.05
3.99002	5.05

[Status Trace (Linear Velocity)]
Interval(msec)	1000
# of Points	240
Start Time(min)	0.007
End Time(min)	3.990
Intensity Units	
Intensity Multiplier	1
R.Time (min)	Intensity
0.00668	39.00
0.02335	37.41
0.04002	38.32
0.05668	39.68
0.07335	40.05
0.09002	39.07
0.10668	38.99
0.12335	39.01
0.14002	39.01
0.15668	39.01
0.17335	39.01
0.19002	39.01
0.20668	39.01
0.22335	39.01
0.24002	39.01
0.25668	39.01
0.27335	39.01
0.29002	39.01
0.30668	39.01
0.32335	39.01
0.34002	39.01
0.35668	39.01
0.37335	39.01
0.39002	39.01
0.40668	39.01
0.42335	39.01
0.44002	39.01
0.45668	39.01
0.47335	39.01
0.49002	39.01
0.50668	39.01
0.52335	39.01
0.54002	39.01
0.55668	39.01
0.57335	39.01
0.59002	39.01
0.60668	39.01
0.62335	39.01
0.64002	39.01
0.65668	39.01
0.67335	39.01
0.69002	39.01
0.70668	39.01
0.72335	39.01
0.74002	39.01
0.75668	39.01
0.77335	39.01
0.79002	39.01
0.80668	39.01
0.82335	39.01
0.84002	39.01
0.85668	39.01
0.87335	39.01
0.89002	39.01
0.90668	39.01
0.92335	39.01
0.94002	39.01
0.95668	39.01
0.97335	39.01
0.99002	39.01
1.00668	39.01
1.02335	39.01
1.04002	39.01
1.05668	39.01
1.07335	39.01
1.09002	39.01
1.10668	39.01
1.12335	39.01
1.14002	39.01
1.15668	39.01
1.17335	39.01
1.19002	39.01
1.20668	39.01
1.22335	39.01
1.24002	39.01
1.25668	39.01
1.27335	39.01
1.29002	39.01
1.30668	39.01
1.32335	39.01
1.34002	39.01
1.35668	39.01
1.37335	39.01
1.39002	39.01
1.40668	39.01
1.42335	39.01
1.44002	39.01
1.45668	39.01
1.47335	39.01
1.49002	39.01
1.50668	39.01
1.52335	39.01
1.54002	39.01
1.55668	39.01
1.57335	39.01
1.59002	39.01
1.60668	39.01
1.62335	39.00
1.64002	38.98
1.65668	38.96
1.67335	38.93
1.69002	38.89
1.70668	38.85
1.72335	38.82
1.74002	38.79
1.75668	38.76
1.77335	38.73
1.79002	38.70
1.80668	38.66
1.82335	38.63
1.84002	38.60
1.85668	38.57
1.87335	38.54
1.89002	38.51
1.90668	38.48
1.92335	38.45
1.94002	38.42
1.95668	38.39
1.97335	38.36
1.99002	38.33
2.00668	38.30
2.02335	38.27
2.04002	38.24
2.05668	38.21
2.07335	38.18
2.09002	38.15
2.10668	38.12
2.12335	38.09
2.14002	38.06
2.15668	38.03
2.17335	38.00
2.19002	37.97
2.20668	37.94
2.22335	37.91
2.24002	37.88
2.25668	37.85
2.27335	37.82
2.29002	37.79
2.30668	37.76
2.32335	37.73
2.34002	37.70
2.35668	37.68
2.37335	37.66
2.39002	37.65
2.40668	37.66
2.42335	37.66
2.44002	37.66
2.45668	37.66
2.47335	37.65
2.49002	37.65
2.50668	37.65
2.52335	37.64
2.54002	37.65
2.55668	37.65
2.57335	37.65
2.59002	37.65
2.60668	37.65
2.62335	37.65
2.64002	37.64
2.65668	37.64
2.67335	37.64
2.69002	37.64
2.70668	37.64
2.72335	37.64
2.74002	37.64
2.75668	37.64
2.77335	37.64
2.79002	37.64
2.80668	37.64
2.82335	37.64
2.84002	37.64
2.85668	37.64
2.87335	37.64
2.89002	37.64
2.90668	37.64
2.92335	37.63
2.94002	37.63
2.95668	37.63
2.97335	37.63
2.99002	37.63
3.00668	37.63
3.02335	37.63
3.04002	37.63
3.05668	37.63
3.07335	37.63
3.09002	37.63
3.10668	37.63
3.12335	37.63
3.14002	37.62
3.15668	37.62
3.17335	37.62
3.19002	37.62
3.20668	37.62
3.22335	37.62
3.24002	37.62
3.25668	37.62
3.27335	37.62
3.29002	37.62
3.30668	37.62
3.32335	37.62
3.34002	37.62
3.35668	37.62
3.37335	37.62
3.39002	37.62
3.40668	37.62
3.42335	37.62
3.44002	37.62
3.45668	37.62
3.47335	37.62
3.49002	37.62
3.50668	37.62
3.52335	37.62
3.54002	37.62
3.55668	37.62
3.57335	37.62
3.59002	37.62
3.60668	37.62
3.62335	37.62
3.64002	37.62
3.65668	37.62
3.67335	37.62
3.69002	37.62
3.70668	37.62
3.72335	37.62
3.74002	37.62
3.75668	37.62
3.77335	37.62
3.79002	37.62
3.80668	37.62
3.82335	37.62
3.84002	37.62
3.85668	37.62
3.87335	37.62
3.89002	37.62
3.90668	37.62
3.92335	37.62
3.94002	37.62
3.95668	37.62
3.97335	37.62
3.99002	37.62

