[Header]
Application Name	LabSolutions
Version	5.110
Data File Name	C:\Users\User\Desktop\Junior\UIC Prairie Sampling\6.15.23\06152023_053.gcd
Output Date	6/26/2023
Output Time	12:05:10 PM

[File Information]
Type	Data File
Generated	6/23/2023 5:14:49 PM
Generated by	System Administrator
Modified	6/23/2023 5:22:11 PM
Modified by	System Administrator

[Sample Information]
Operator Name	System Administrator
Acquired	6/23/2023 5:18:08 PM
Sample Type	0:Unknown
Level	0
Sample Name	053
Sample ID	053
ISTD Amount1	1
ISTD Amount2	1
ISTD Amount3	1
ISTD Amount4	1
ISTD Amount5	1
ISTD Amount6	1
ISTD Amount7	1
ISTD Amount8	1
ISTD Amount9	1
ISTD Amount10	1
ISTD Amount11	1
ISTD Amount12	1
ISTD Amount13	1
ISTD Amount14	1
ISTD Amount15	1
ISTD Amount16	1
ISTD Amount17	1
ISTD Amount18	1
ISTD Amount19	1
ISTD Amount20	1
ISTD Amount21	1
ISTD Amount22	1
ISTD Amount23	1
ISTD Amount24	1
ISTD Amount25	1
ISTD Amount26	1
ISTD Amount27	1
ISTD Amount28	1
ISTD Amount29	1
ISTD Amount30	1
ISTD Amount31	1
ISTD Amount32	1
Sample Amount	1
Dilution Factor	1
Vial#	52
Injection Volume	1
Injection Count	1
Bar Code	

[Original Files]
Data File	C:\Users\User\Desktop\Junior\UIC Prairie Sampling\6.15.23\06152023_053.gcd
Method File	C:\LabSolutions\Data\GHG_4min_2022\ghg3_togas_w_acet_4 min_new_int.gcm
Batch File	C:\LabSolutions\Data\AutoSamplerTesting\06152023.gcb
Report Format File	c:\LabSolutions\System\DEFAULT.lsr

[File Description]


[Configuration]
Instrument Name	C0B7VH3-Instrument1
Instrument #	1
Line #	1
# of Detectors	3
Detector ID	DET#1	DET#2	DET#3
Detector Name	FID	PTCD	ECD
# of Channels	1	1	1

[Peak Table(Ch1)]
# of Peaks	3
Peak#	R.Time	I.Time	F.Time	Area	Height	A/H	Conc.	Mark	ID#	Name	k'	Plate #	Plate Ht.	Tailing	Resolution	Sep.Factor	Area Ratio	Height Ratio	Conc. %	Norm Conc.
1	1.472	1.417	1.527	4126	2055	2.008	0.000	   	1	CO	0.000	9566	15.680	1.319	0.000	0.000	0	0	0.000	0.000
2	1.564	1.527	1.626	4320	2201	1.963	21.063	 V 	2	CH4	0.062	11690	12.832	1.122	1.553	0.000	0	0	5.266	5.266
3	1.989	1.945	2.616	1966273	938986	2.094	378.937	   	3	CO2	0.351	17515	8.564	1.314	7.211	5.640	0	0	94.734	94.734

[Peak Table(Ch2)]
# of Peaks	0

[Peak Table(Ch3)]
# of Peaks	5
Peak#	R.Time	I.Time	F.Time	Area	Height	A/H	Conc.	Mark	ID#	Name	k'	Plate #	Plate Ht.	Tailing	Resolution	Sep.Factor	Area Ratio	Height Ratio	Conc. %	Norm Conc.
1	2.458	2.436	2.510	1148	421	2.724	0.000	   			0.000	12062	12.435	0.000	0.000	0.000	0	0	0.000	0.000
2	2.528	2.510	2.583	565	196	2.877	0.000	 V 			0.028	4832	31.042	0.000	0.593	0.000	0	0	0.000	0.000
3	2.631	2.583	2.715	540	139	3.875	0.000	 V 			0.070	7724	19.421	0.000	0.774	2.474	0	0	0.000	0.000
4	2.887	2.759	3.129	21918	4720	4.643	0.324	   	1	N2O	0.175	13642	10.996	0.000	2.348	2.489	0	0	100.000	100.000
5	3.258	3.129	3.995	14046	460	30.511	0.000	 V 			0.325	43	3448.551	0.000	0.357	1.863	0	0	0.000	0.000

[Compound Results(Ch1)]
# of IDs	6
ID#	Name	R.Time	Area	Height	Conc.	Curve	3rd	2nd	1st	Constant	Area Ratio	Height Ratio	Conc. %	Norm Conc.
1	CO	1.472	4126	2055	0.000	Linear	0.000000e+00	0.000000e+00	0.000000e+00	0.000000e+00	0	0	0.000	0.000
2	CH4	1.564	4320	2201	21.063	Linear	0.000000e+00	0.000000e+00	2.051179e+002	0.000000e+00	0	0	5.266	5.266
3	CO2	1.989	1966273	938986	378.937	Linear	0.000000e+00	0.000000e+00	5.188919e+003	0.000000e+00	0	0	94.734	94.734
4	Ethylene	0.000	0	0	0.000	Linear	0.000000e+00	0.000000e+00	0.000000e+00	0.000000e+00	0	0	0.000	0.000
5	Acetylene	0.000	0	0	0.000	Linear	0.000000e+00	0.000000e+00	0.000000e+00	0.000000e+00	0	0	0.000	0.000
6	Ethane	0.000	0	0	0.000	Linear	0.000000e+00	0.000000e+00	0.000000e+00	0.000000e+00	0	0	0.000	0.000

[Compound Results(Ch2)]
# of IDs	5
ID#	Name	R.Time	Area	Height	Conc.	Curve	3rd	2nd	1st	Constant	Area Ratio	Height Ratio	Conc. %	Norm Conc.
1	Hydrogen	0.000	0	0	0.000	Linear	0.000000e+00	0.000000e+00	0.000000e+00	0.000000e+00	0	0	0.000	0.000
2	Oxygen	0.000	0	0	0.000	Linear	0.000000e+00	0.000000e+00	0.000000e+00	0.000000e+00	0	0	0.000	0.000
3	Nitrogen	0.000	0	0	0.000	Linear	0.000000e+00	0.000000e+00	0.000000e+00	0.000000e+00	0	0	0.000	0.000
4	Methane	0.000	0	0	0.000	Linear	0.000000e+00	0.000000e+00	0.000000e+00	0.000000e+00	0	0	0.000	0.000
5	Carbon Monoxide	0.000	0	0	0.000	Linear	0.000000e+00	0.000000e+00	0.000000e+00	0.000000e+00	0	0	0.000	0.000

[Compound Results(Ch3)]
# of IDs	2
ID#	Name	R.Time	Area	Height	Conc.	Curve	3rd	2nd	1st	Constant	Area Ratio	Height Ratio	Conc. %	Norm Conc.
1	N2O	2.887	21918	4720	0.324	Linear	0.000000e+00	0.000000e+00	6.759880e+004	0.000000e+00	0	0	100.000	100.000
2	SF6	0.000	0	0	0.000	Linear	0.000000e+00	0.000000e+00	0.000000e+00	0.000000e+00	0	0	0.000	0.000

[Group Results(Ch1)]
# of Groups	0

[Group Results(Ch2)]
# of Groups	0

[Group Results(Ch3)]
# of Groups	0

[Chromatogram (Ch1)]
Interval(msec)	220
# of Points	1091
Start Time(min)	0.002
End Time(min)	3.998
R.Time (min)	Intensity
0.00167	16
0.00533	14
0.00900	10
0.01267	7
0.01633	2
0.02000	-2
0.02367	-2
0.02733	-0
0.03100	0
0.03467	3
0.03833	10
0.04200	18
0.04567	25
0.04933	31
0.05300	35
0.05667	37
0.06033	32
0.06400	27
0.06767	27
0.07133	29
0.07500	29
0.07867	26
0.08233	20
0.08600	14
0.08967	10
0.09333	7
0.09700	4
0.10067	2
0.10433	-0
0.10800	-4
0.11167	-8
0.11533	-8
0.11900	-6
0.12267	-3
0.12633	0
0.13000	1
0.13367	-0
0.13733	1
0.14100	5
0.14467	5
0.14833	1
0.15200	-0
0.15567	4
0.15933	10
0.16300	13
0.16667	12
0.17033	9
0.17400	5
0.17767	2
0.18133	-0
0.18500	-4
0.18867	-7
0.19233	-8
0.19600	-6
0.19967	-2
0.20333	3
0.20700	6
0.21067	10
0.21433	14
0.21800	18
0.22167	18
0.22533	18
0.22900	17
0.23267	9
0.23633	-3
0.24000	-14
0.24367	-22
0.24733	-23
0.25100	-20
0.25467	-15
0.25833	-7
0.26200	-2
0.26567	1
0.26933	7
0.27300	13
0.27667	12
0.28033	1
0.28400	-12
0.28767	-20
0.29133	-25
0.29500	-25
0.29867	-18
0.30233	-4
0.30600	5
0.30967	5
0.31333	-4
0.31700	-11
0.32067	-14
0.32433	-17
0.32800	-21
0.33167	-23
0.33533	-25
0.33900	-30
0.34267	-32
0.34633	-29
0.35000	-22
0.35367	-14
0.35733	-7
0.36100	-5
0.36467	-7
0.36833	-7
0.37200	-7
0.37567	-7
0.37933	-7
0.38300	-5
0.38667	-2
0.39033	3
0.39400	9
0.39767	9
0.40133	3
0.40500	-4
0.40867	-10
0.41233	-14
0.41600	-18
0.41967	-20
0.42333	-22
0.42700	-22
0.43067	-20
0.43433	-15
0.43800	-10
0.44167	-6
0.44533	-1
0.44900	5
0.45267	9
0.45633	9
0.46000	8
0.46367	9
0.46733	8
0.47100	3
0.47467	-5
0.47833	-12
0.48200	-14
0.48567	-14
0.48933	-19
0.49300	-19
0.49667	-20
0.50033	-22
0.50400	-24
0.50767	-20
0.51133	-13
0.51500	-5
0.51867	1
0.52233	4
0.52600	6
0.52967	7
0.53333	7
0.53700	6
0.54067	8
0.54433	11
0.54800	11
0.55167	6
0.55533	-0
0.55900	-9
0.56267	-19
0.56633	-29
0.57000	-34
0.57367	-33
0.57733	-28
0.58100	-22
0.58467	-18
0.58833	-13
0.59200	-7
0.59567	-1
0.59933	3
0.60300	2
0.60667	-1
0.61033	-4
0.61400	-7
0.61767	-10
0.62133	-15
0.62500	-20
0.62867	-24
0.63233	-27
0.63600	-30
0.63967	-30
0.64333	-28
0.64700	-26
0.65067	-24
0.65433	-22
0.65800	-21
0.66167	-18
0.66533	-19
0.66900	-20
0.67267	-19
0.67633	-14
0.68000	-9
0.68367	-6
0.68733	-5
0.69100	-7
0.69467	-10
0.69833	-14
0.70200	-16
0.70567	-15
0.70933	-16
0.71300	-20
0.71667	-27
0.72033	-32
0.72400	-36
0.72767	-38
0.73133	-41
0.73500	-42
0.73867	-42
0.74233	-38
0.74600	-33
0.74967	-27
0.75333	-18
0.75700	-12
0.76067	-10
0.76433	-12
0.76800	-15
0.77167	-19
0.77533	-22
0.77900	-21
0.78267	-16
0.78633	-13
0.79000	-16
0.79367	-19
0.79733	-18
0.80100	-16
0.80467	-14
0.80833	-19
0.81200	-27
0.81567	-33
0.81933	-37
0.82300	-40
0.82667	-40
0.83033	-35
0.83400	-28
0.83767	-24
0.84133	-23
0.84500	-23
0.84867	-27
0.85233	-31
0.85600	-33
0.85967	-32
0.86333	-32
0.86700	-32
0.87067	-33
0.87433	-32
0.87800	-33
0.88167	-38
0.88533	-42
0.88900	-43
0.89267	-41
0.89633	-37
0.90000	-31
0.90367	-31
0.90733	-36
0.91100	-44
0.91467	-49
0.91833	-49
0.92200	-45
0.92567	-39
0.92933	-35
0.93300	-30
0.93667	-27
0.94033	-24
0.94400	-23
0.94767	-24
0.95133	-29
0.95500	-35
0.95867	-42
0.96233	-45
0.96600	-46
0.96967	-42
0.97333	-39
0.97700	-39
0.98067	-42
0.98433	-42
0.98800	-40
0.99167	-36
0.99533	-30
0.99900	-26
1.00267	-28
1.00633	-34
1.01000	-42
1.01367	-50
1.01733	-56
1.02100	-60
1.02467	-63
1.02833	-64
1.03200	-65
1.03567	-64
1.03933	-59
1.04300	-52
1.04667	-42
1.05033	-33
1.05400	-28
1.05767	-26
1.06133	-28
1.06500	-29
1.06867	-29
1.07233	-26
1.07600	-25
1.07967	-26
1.08333	-28
1.08700	-29
1.09067	-29
1.09433	-28
1.09800	-31
1.10167	-38
1.10533	-47
1.10900	-50
1.11267	-53
1.11633	-56
1.12000	-58
1.12367	-59
1.12733	-58
1.13100	-57
1.13467	-57
1.13833	-54
1.14200	-48
1.14567	-41
1.14933	-38
1.15300	-39
1.15667	-41
1.16033	-43
1.16400	-42
1.16767	-40
1.17133	-36
1.17500	-32
1.17867	-26
1.18233	-19
1.18600	-16
1.18967	-15
1.19333	-16
1.19700	-23
1.20067	-31
1.20433	-38
1.20800	-45
1.21167	-50
1.21533	-51
1.21900	-52
1.22267	-55
1.22633	-61
1.23000	-69
1.23367	-72
1.23733	-71
1.24100	-65
1.24467	-58
1.24833	-52
1.25200	-48
1.25567	-48
1.25933	-52
1.26300	-59
1.26667	-63
1.27033	-64
1.27400	-59
1.27767	-53
1.28133	-50
1.28500	-49
1.28867	-46
1.29233	-44
1.29600	-44
1.29967	-47
1.30333	-54
1.30700	-60
1.31067	-65
1.31433	-69
1.31800	-69
1.32167	-68
1.32533	-68
1.32900	-71
1.33267	-73
1.33633	-72
1.34000	-71
1.34367	-69
1.34733	-66
1.35100	-65
1.35467	-64
1.35833	-62
1.36200	-59
1.36567	-58
1.36933	-56
1.37300	-55
1.37667	-53
1.38033	-53
1.38400	-53
1.38767	-54
1.39133	-57
1.39500	-60
1.39867	-63
1.40233	-66
1.40600	-66
1.40967	-64
1.41333	-58
1.41700	-50
1.42067	-43
1.42433	-42
1.42800	-42
1.43167	-40
1.43533	-33
1.43900	-21
1.44267	-15
1.44633	31
1.45000	218
1.45367	559
1.45733	968
1.46100	1358
1.46467	1681
1.46833	1905
1.47200	1997
1.47567	1932
1.47933	1726
1.48300	1433
1.48667	1114
1.49033	825
1.49400	586
1.49767	400
1.50133	262
1.50500	164
1.50867	94
1.51233	48
1.51600	18
1.51967	-4
1.52333	-21
1.52700	-31
1.53067	-26
1.53433	15
1.53800	143
1.54167	415
1.54533	813
1.54900	1249
1.55267	1634
1.55633	1928
1.56000	2105
1.56367	2129
1.56733	1982
1.57100	1690
1.57467	1327
1.57833	969
1.58200	666
1.58567	432
1.58933	263
1.59300	147
1.59667	68
1.60033	17
1.60400	-11
1.60767	-26
1.61133	-38
1.61500	-49
1.61867	-61
1.62233	-72
1.62600	-81
1.62967	-85
1.63333	-84
1.63700	-79
1.64067	-77
1.64433	-77
1.64800	-75
1.65167	-75
1.65533	-77
1.65900	-80
1.66267	-84
1.66633	-85
1.67000	-84
1.67367	-81
1.67733	-74
1.68100	-62
1.68467	-54
1.68833	-54
1.69200	-60
1.69567	-68
1.69933	-77
1.70300	-82
1.70667	-84
1.71033	-83
1.71400	-82
1.71767	-84
1.72133	-88
1.72500	-93
1.72867	-94
1.73233	-89
1.73600	-82
1.73967	-76
1.74333	-72
1.74700	-74
1.75067	-80
1.75433	-86
1.75800	-90
1.76167	-91
1.76533	-91
1.76900	-93
1.77267	-98
1.77633	-100
1.78000	-99
1.78367	-94
1.78733	-85
1.79100	-78
1.79467	-74
1.79833	-72
1.80200	-72
1.80567	-75
1.80933	-80
1.81300	-85
1.81667	-88
1.82033	-88
1.82400	-87
1.82767	-86
1.83133	-86
1.83500	-87
1.83867	-89
1.84233	-92
1.84600	-92
1.84967	-90
1.85333	-88
1.85700	-85
1.86067	-84
1.86433	-86
1.86800	-93
1.87167	-98
1.87533	-99
1.87900	-96
1.88267	-95
1.88633	-96
1.89000	-97
1.89367	-98
1.89733	-95
1.90100	-90
1.90467	-85
1.90833	-82
1.91200	-79
1.91567	-76
1.91933	-75
1.92300	-74
1.92667	-72
1.93033	-72
1.93400	-70
1.93767	-67
1.94133	-65
1.94500	-51
1.94867	62
1.95233	781
1.95600	4314
1.95967	17290
1.96333	53513
1.96700	131308
1.97067	260923
1.97433	431614
1.97800	614498
1.98167	776233
1.98533	889924
1.98900	938959
1.99267	918633
1.99633	837312
2.00000	714448
2.00367	574662
2.00733	439818
2.01100	323878
2.01467	232173
2.01833	163853
2.02200	115035
2.02567	81103
2.02933	57909
2.03300	42185
2.03667	31532
2.04033	24270
2.04400	19264
2.04767	15749
2.05133	13224
2.05500	11361
2.05867	9947
2.06233	8850
2.06600	7979
2.06967	7273
2.07333	6689
2.07700	6193
2.08067	5766
2.08433	5398
2.08800	5075
2.09167	4783
2.09533	4515
2.09900	4273
2.10267	4056
2.10633	3858
2.11000	3676
2.11367	3513
2.11733	3365
2.12100	3227
2.12467	3099
2.12833	2981
2.13200	2871
2.13567	2768
2.13933	2672
2.14300	2584
2.14667	2502
2.15033	2422
2.15400	2345
2.15767	2270
2.16133	2203
2.16500	2141
2.16867	2081
2.17233	2020
2.17600	1963
2.17967	1909
2.18333	1855
2.18700	1804
2.19067	1758
2.19433	1711
2.19800	1663
2.20167	1619
2.20533	1579
2.20900	1541
2.21267	1503
2.21633	1466
2.22000	1429
2.22367	1395
2.22733	1370
2.23100	1349
2.23467	1326
2.23833	1301
2.24200	1275
2.24567	1248
2.24933	1224
2.25300	1202
2.25667	1178
2.26033	1154
2.26400	1128
2.26767	1102
2.27133	1079
2.27500	1061
2.27867	1045
2.28233	1027
2.28600	1007
2.28967	982
2.29333	952
2.29700	923
2.30067	897
2.30433	875
2.30800	861
2.31167	851
2.31533	841
2.31900	830
2.32267	817
2.32633	805
2.33000	793
2.33367	786
2.33733	778
2.34100	767
2.34467	753
2.34833	742
2.35200	730
2.35567	716
2.35933	702
2.36300	691
2.36667	679
2.37033	667
2.37400	657
2.37767	649
2.38133	646
2.38500	643
2.38867	639
2.39233	631
2.39600	620
2.39967	613
2.40333	610
2.40700	605
2.41067	599
2.41433	595
2.41800	593
2.42167	587
2.42533	578
2.42900	564
2.43267	549
2.43633	541
2.44000	536
2.44367	529
2.44733	520
2.45100	510
2.45467	503
2.45833	497
2.46200	491
2.46567	482
2.46933	473
2.47300	465
2.47667	460
2.48033	456
2.48400	450
2.48767	443
2.49133	437
2.49500	431
2.49867	427
2.50233	423
2.50600	418
2.50967	411
2.51333	403
2.51700	398
2.52067	399
2.52433	403
2.52800	407
2.53167	406
2.53533	402
2.53900	396
2.54267	388
2.54633	380
2.55000	374
2.55367	370
2.55733	366
2.56100	365
2.56467	361
2.56833	356
2.57200	350
2.57567	345
2.57933	341
2.58300	334
2.58667	328
2.59033	326
2.59400	330
2.59767	338
2.60133	343
2.60500	340
2.60867	331
2.61233	322
2.61600	312
2.61967	305
2.62333	303
2.62700	303
2.63067	304
2.63433	307
2.63800	308
2.64167	306
2.64533	304
2.64900	301
2.65267	294
2.65633	286
2.66000	277
2.66367	273
2.66733	273
2.67100	275
2.67467	276
2.67833	275
2.68200	270
2.68567	263
2.68933	254
2.69300	245
2.69667	237
2.70033	233
2.70400	234
2.70767	240
2.71133	246
2.71500	251
2.71867	250
2.72233	244
2.72600	236
2.72967	230
2.73333	228
2.73700	231
2.74067	231
2.74433	230
2.74800	231
2.75167	232
2.75533	237
2.75900	241
2.76267	243
2.76633	243
2.77000	241
2.77367	238
2.77733	236
2.78100	231
2.78467	225
2.78833	219
2.79200	218
2.79567	216
2.79933	213
2.80300	208
2.80667	201
2.81033	192
2.81400	185
2.81767	181
2.82133	177
2.82500	173
2.82867	174
2.83233	176
2.83600	177
2.83967	177
2.84333	179
2.84700	184
2.85067	195
2.85433	209
2.85800	218
2.86167	221
2.86533	217
2.86900	206
2.87267	192
2.87633	178
2.88000	169
2.88367	165
2.88733	164
2.89100	165
2.89467	172
2.89833	179
2.90200	184
2.90567	182
2.90933	178
2.91300	173
2.91667	171
2.92033	169
2.92400	168
2.92767	169
2.93133	168
2.93500	166
2.93867	165
2.94233	165
2.94600	168
2.94967	170
2.95333	168
2.95700	165
2.96067	167
2.96433	172
2.96800	179
2.97167	183
2.97533	182
2.97900	175
2.98267	166
2.98633	159
2.99000	154
2.99367	153
2.99733	152
3.00100	152
3.00467	155
3.00833	159
3.01200	160
3.01567	160
3.01933	158
3.02300	154
3.02667	153
3.03033	155
3.03400	157
3.03767	153
3.04133	146
3.04500	142
3.04867	144
3.05233	148
3.05600	153
3.05967	160
3.06333	166
3.06700	169
3.07067	167
3.07433	159
3.07800	146
3.08167	133
3.08533	124
3.08900	118
3.09267	117
3.09633	116
3.10000	113
3.10367	109
3.10733	108
3.11100	113
3.11467	119
3.11833	125
3.12200	130
3.12567	134
3.12933	138
3.13300	145
3.13667	150
3.14033	150
3.14400	148
3.14767	144
3.15133	137
3.15500	122
3.15867	106
3.16233	93
3.16600	84
3.16967	82
3.17333	85
3.17700	92
3.18067	102
3.18433	109
3.18800	112
3.19167	109
3.19533	106
3.19900	103
3.20267	103
3.20633	104
3.21000	105
3.21367	105
3.21733	104
3.22100	105
3.22467	107
3.22833	110
3.23200	115
3.23567	120
3.23933	124
3.24300	123
3.24667	120
3.25033	115
3.25400	111
3.25767	110
3.26133	107
3.26500	104
3.26867	104
3.27233	103
3.27600	102
3.27967	101
3.28333	99
3.28700	96
3.29067	93
3.29433	94
3.29800	98
3.30167	98
3.30533	97
3.30900	97
3.31267	98
3.31633	102
3.32000	110
3.32367	118
3.32733	122
3.33100	118
3.33467	110
3.33833	98
3.34200	87
3.34567	79
3.34933	77
3.35300	79
3.35667	87
3.36033	101
3.36400	109
3.36767	108
3.37133	103
3.37500	100
3.37867	99
3.38233	100
3.38600	101
3.38967	102
3.39333	105
3.39700	106
3.40067	106
3.40433	99
3.40800	91
3.41167	88
3.41533	86
3.41900	78
3.42267	64
3.42633	51
3.43000	40
3.43367	34
3.43733	33
3.44100	36
3.44467	39
3.44833	43
3.45200	52
3.45567	63
3.45933	70
3.46300	71
3.46667	68
3.47033	64
3.47400	60
3.47767	56
3.48133	55
3.48500	59
3.48867	63
3.49233	68
3.49600	70
3.49967	73
3.50333	76
3.50700	79
3.51067	78
3.51433	76
3.51800	73
3.52167	73
3.52533	73
3.52900	72
3.53267	73
3.53633	75
3.54000	78
3.54367	79
3.54733	77
3.55100	71
3.55467	65
3.55833	62
3.56200	62
3.56567	67
3.56933	72
3.57300	72
3.57667	67
3.58033	63
3.58400	57
3.58767	53
3.59133	53
3.59500	55
3.59867	58
3.60233	64
3.60600	72
3.60967	80
3.61333	87
3.61700	90
3.62067	90
3.62433	86
3.62800	77
3.63167	67
3.63533	61
3.63900	59
3.64267	56
3.64633	51
3.65000	48
3.65367	48
3.65733	48
3.66100	48
3.66467	51
3.66833	56
3.67200	65
3.67567	75
3.67933	84
3.68300	90
3.68667	92
3.69033	88
3.69400	81
3.69767	73
3.70133	66
3.70500	61
3.70867	59
3.71233	57
3.71600	52
3.71967	42
3.72333	32
3.72700	25
3.73067	23
3.73433	23
3.73800	24
3.74167	26
3.74533	33
3.74900	41
3.75267	46
3.75633	46
3.76000	46
3.76367	48
3.76733	51
3.77100	54
3.77467	57
3.77833	59
3.78200	61
3.78567	62
3.78933	60
3.79300	60
3.79667	62
3.80033	61
3.80400	57
3.80767	52
3.81133	48
3.81500	46
3.81867	49
3.82233	52
3.82600	54
3.82967	56
3.83333	57
3.83700	58
3.84067	60
3.84433	64
3.84800	68
3.85167	69
3.85533	66
3.85900	61
3.86267	57
3.86633	55
3.87000	55
3.87367	58
3.87733	62
3.88100	67
3.88467	71
3.88833	73
3.89200	74
3.89567	72
3.89933	70
3.90300	68
3.90667	67
3.91033	71
3.91400	74
3.91767	75
3.92133	72
3.92500	65
3.92867	58
3.93233	58
3.93600	59
3.93967	61
3.94333	65
3.94700	67
3.95067	65
3.95433	61
3.95800	60
3.96167	64
3.96533	69
3.96900	76
3.97267	78
3.97633	72
3.98000	62
3.98367	56
3.98733	57
3.99100	60
3.99467	56
3.99833	51

[Chromatogram (Ch2)]
Interval(msec)	220
# of Points	1091
Start Time(min)	0.002
End Time(min)	3.998
R.Time (min)	Intensity
0.00167	0
0.00533	0
0.00900	-0
0.01267	-0
0.01633	-0
0.02000	-0
0.02367	0
0.02733	0
0.03100	1
0.03467	1
0.03833	1
0.04200	2
0.04567	2
0.04933	2
0.05300	1
0.05667	1
0.06033	1
0.06400	0
0.06767	-0
0.07133	-1
0.07500	-1
0.07867	-1
0.08233	-1
0.08600	-1
0.08967	-1
0.09333	-1
0.09700	-0
0.10067	0
0.10433	1
0.10800	1
0.11167	1
0.11533	2
0.11900	2
0.12267	2
0.12633	2
0.13000	2
0.13367	2
0.13733	2
0.14100	2
0.14467	1
0.14833	1
0.15200	0
0.15567	0
0.15933	-0
0.16300	-0
0.16667	-1
0.17033	-1
0.17400	-1
0.17767	-1
0.18133	-1
0.18500	-1
0.18867	-1
0.19233	-1
0.19600	-0
0.19967	-0
0.20333	-0
0.20700	0
0.21067	0
0.21433	0
0.21800	0
0.22167	0
0.22533	-0
0.22900	-0
0.23267	-1
0.23633	-1
0.24000	-1
0.24367	-1
0.24733	-1
0.25100	-1
0.25467	-1
0.25833	-1
0.26200	-0
0.26567	-0
0.26933	-1
0.27300	-1
0.27667	-0
0.28033	-0
0.28400	-0
0.28767	-0
0.29133	-0
0.29500	-0
0.29867	-1
0.30233	-1
0.30600	-1
0.30967	-1
0.31333	-1
0.31700	-1
0.32067	-1
0.32433	-0
0.32800	-0
0.33167	0
0.33533	-0
0.33900	-0
0.34267	-0
0.34633	-1
0.35000	-1
0.35367	-1
0.35733	-1
0.36100	-2
0.36467	-1
0.36833	-1
0.37200	-1
0.37567	-0
0.37933	0
0.38300	1
0.38667	1
0.39033	1
0.39400	1
0.39767	1
0.40133	1
0.40500	0
0.40867	-0
0.41233	-1
0.41600	-1
0.41967	-1
0.42333	-1
0.42700	-1
0.43067	-1
0.43433	-1
0.43800	-2
0.44167	-2
0.44533	-2
0.44900	-2
0.45267	-2
0.45633	-2
0.46000	-2
0.46367	-2
0.46733	-2
0.47100	-2
0.47467	-2
0.47833	-2
0.48200	-1
0.48567	-1
0.48933	-1
0.49300	-1
0.49667	-1
0.50033	-1
0.50400	-1
0.50767	-1
0.51133	-1
0.51500	-1
0.51867	-1
0.52233	-1
0.52600	-2
0.52967	-2
0.53333	-2
0.53700	-2
0.54067	-2
0.54433	-3
0.54800	-3
0.55167	-3
0.55533	-3
0.55900	-3
0.56267	-3
0.56633	-3
0.57000	-3
0.57367	-3
0.57733	-2
0.58100	-2
0.58467	-2
0.58833	-2
0.59200	-2
0.59567	-1
0.59933	-1
0.60300	-1
0.60667	-1
0.61033	-1
0.61400	-1
0.61767	-1
0.62133	-1
0.62500	-1
0.62867	-1
0.63233	-1
0.63600	-1
0.63967	-1
0.64333	-1
0.64700	-1
0.65067	-0
0.65433	-0
0.65800	0
0.66167	0
0.66533	1
0.66900	1
0.67267	1
0.67633	1
0.68000	0
0.68367	0
0.68733	-0
0.69100	-0
0.69467	-1
0.69833	-1
0.70200	-1
0.70567	-1
0.70933	-1
0.71300	-1
0.71667	-2
0.72033	-2
0.72400	-2
0.72767	-2
0.73133	-2
0.73500	-2
0.73867	-2
0.74233	-2
0.74600	-2
0.74967	-2
0.75333	-2
0.75700	-1
0.76067	-2
0.76433	-2
0.76800	-2
0.77167	-2
0.77533	-2
0.77900	-2
0.78267	-3
0.78633	-3
0.79000	-3
0.79367	-3
0.79733	-3
0.80100	-3
0.80467	-3
0.80833	-3
0.81200	-2
0.81567	-2
0.81933	-2
0.82300	-2
0.82667	-2
0.83033	-1
0.83400	-0
0.83767	0
0.84133	1
0.84500	1
0.84867	2
0.85233	2
0.85600	2
0.85967	1
0.86333	1
0.86700	1
0.87067	1
0.87433	1
0.87800	0
0.88167	0
0.88533	-0
0.88900	-1
0.89267	-1
0.89633	-1
0.90000	-2
0.90367	-2
0.90733	-2
0.91100	-3
0.91467	-3
0.91833	-3
0.92200	-3
0.92567	-3
0.92933	-3
0.93300	-3
0.93667	-4
0.94033	-4
0.94400	-4
0.94767	-4
0.95133	-4
0.95500	-4
0.95867	-4
0.96233	-4
0.96600	-3
0.96967	-3
0.97333	-3
0.97700	-3
0.98067	-2
0.98433	-2
0.98800	-2
0.99167	-2
0.99533	-2
0.99900	-2
1.00267	-2
1.00633	-2
1.01000	-1
1.01367	-1
1.01733	-2
1.02100	-2
1.02467	-2
1.02833	-2
1.03200	-2
1.03567	-2
1.03933	-2
1.04300	-2
1.04667	-2
1.05033	-2
1.05400	-2
1.05767	-2
1.06133	-2
1.06500	-2
1.06867	-2
1.07233	-2
1.07600	-2
1.07967	-2
1.08333	-2
1.08700	-2
1.09067	-2
1.09433	-3
1.09800	-3
1.10167	-3
1.10533	-3
1.10900	-3
1.11267	-4
1.11633	-4
1.12000	-4
1.12367	-4
1.12733	-4
1.13100	-4
1.13467	-5
1.13833	-5
1.14200	-5
1.14567	-5
1.14933	-5
1.15300	-6
1.15667	-6
1.16033	-6
1.16400	-6
1.16767	-6
1.17133	-6
1.17500	-6
1.17867	-6
1.18233	-6
1.18600	-6
1.18967	-6
1.19333	-5
1.19700	-5
1.20067	-4
1.20433	-4
1.20800	-3
1.21167	-3
1.21533	-2
1.21900	-2
1.22267	-2
1.22633	-2
1.23000	-2
1.23367	-2
1.23733	-2
1.24100	-3
1.24467	-3
1.24833	-4
1.25200	-4
1.25567	-4
1.25933	-5
1.26300	-5
1.26667	-5
1.27033	-5
1.27400	-5
1.27767	-5
1.28133	-5
1.28500	-5
1.28867	-5
1.29233	-5
1.29600	-4
1.29967	-4
1.30333	-4
1.30700	-3
1.31067	-3
1.31433	-3
1.31800	-2
1.32167	-1
1.32533	-1
1.32900	-1
1.33267	-1
1.33633	-1
1.34000	-1
1.34367	-1
1.34733	-1
1.35100	-2
1.35467	-2
1.35833	-2
1.36200	-2
1.36567	-2
1.36933	-3
1.37300	-3
1.37667	-3
1.38033	-3
1.38400	-3
1.38767	-4
1.39133	-3
1.39500	-3
1.39867	-3
1.40233	-3
1.40600	-3
1.40967	-3
1.41333	-3
1.41700	-3
1.42067	-3
1.42433	-3
1.42800	-3
1.43167	-3
1.43533	-3
1.43900	-4
1.44267	-4
1.44633	-4
1.45000	-5
1.45367	-5
1.45733	-5
1.46100	-5
1.46467	-5
1.46833	-5
1.47200	-5
1.47567	-5
1.47933	-5
1.48300	-5
1.48667	-5
1.49033	-5
1.49400	-5
1.49767	-5
1.50133	-5
1.50500	-5
1.50867	-5
1.51233	-5
1.51600	-5
1.51967	-5
1.52333	-5
1.52700	-5
1.53067	-5
1.53433	-4
1.53800	-4
1.54167	-3
1.54533	-3
1.54900	-3
1.55267	-3
1.55633	-3
1.56000	-3
1.56367	-3
1.56733	-3
1.57100	-3
1.57467	-4
1.57833	-4
1.58200	-5
1.58567	-5
1.58933	-6
1.59300	-6
1.59667	-6
1.60033	-7
1.60400	-8
1.60767	-9
1.61133	-10
1.61500	-12
1.61867	-14
1.62233	-16
1.62600	-19
1.62967	-22
1.63333	-25
1.63700	-28
1.64067	-31
1.64433	-34
1.64800	-37
1.65167	-40
1.65533	-44
1.65900	-47
1.66267	-50
1.66633	-54
1.67000	-58
1.67367	-63
1.67733	-67
1.68100	-72
1.68467	-76
1.68833	-80
1.69200	-84
1.69567	-87
1.69933	-90
1.70300	-92
1.70667	-94
1.71033	-96
1.71400	-97
1.71767	-97
1.72133	-98
1.72500	-98
1.72867	-98
1.73233	-98
1.73600	-99
1.73967	-99
1.74333	-99
1.74700	-99
1.75067	-100
1.75433	-100
1.75800	-100
1.76167	-100
1.76533	-101
1.76900	-101
1.77267	-102
1.77633	-102
1.78000	-103
1.78367	-103
1.78733	-103
1.79100	-103
1.79467	-104
1.79833	-104
1.80200	-105
1.80567	-106
1.80933	-107
1.81300	-107
1.81667	-107
1.82033	-107
1.82400	-106
1.82767	-106
1.83133	-106
1.83500	-105
1.83867	-105
1.84233	-105
1.84600	-105
1.84967	-105
1.85333	-105
1.85700	-105
1.86067	-104
1.86433	-104
1.86800	-103
1.87167	-103
1.87533	-102
1.87900	-102
1.88267	-102
1.88633	-102
1.89000	-102
1.89367	-102
1.89733	-101
1.90100	-101
1.90467	-101
1.90833	-102
1.91200	-101
1.91567	-101
1.91933	-101
1.92300	-101
1.92667	-100
1.93033	-100
1.93400	-100
1.93767	-100
1.94133	-100
1.94500	-100
1.94867	-100
1.95233	-99
1.95600	-99
1.95967	-99
1.96333	-98
1.96700	-98
1.97067	-98
1.97433	-98
1.97800	-99
1.98167	-99
1.98533	-99
1.98900	-98
1.99267	-98
1.99633	-97
2.00000	-97
2.00367	-96
2.00733	-96
2.01100	-95
2.01467	-95
2.01833	-94
2.02200	-94
2.02567	-94
2.02933	-94
2.03300	-93
2.03667	-93
2.04033	-93
2.04400	-94
2.04767	-94
2.05133	-94
2.05500	-94
2.05867	-94
2.06233	-93
2.06600	-93
2.06967	-93
2.07333	-93
2.07700	-92
2.08067	-92
2.08433	-91
2.08800	-91
2.09167	-90
2.09533	-90
2.09900	-90
2.10267	-90
2.10633	-89
2.11000	-89
2.11367	-89
2.11733	-88
2.12100	-88
2.12467	-87
2.12833	-86
2.13200	-85
2.13567	-84
2.13933	-84
2.14300	-84
2.14667	-84
2.15033	-83
2.15400	-84
2.15767	-84
2.16133	-84
2.16500	-84
2.16867	-84
2.17233	-83
2.17600	-83
2.17967	-83
2.18333	-82
2.18700	-82
2.19067	-83
2.19433	-83
2.19800	-82
2.20167	-82
2.20533	-82
2.20900	-82
2.21267	-82
2.21633	-82
2.22000	-81
2.22367	-81
2.22733	-80
2.23100	-79
2.23467	-79
2.23833	-78
2.24200	-78
2.24567	-77
2.24933	-77
2.25300	-76
2.25667	-75
2.26033	-75
2.26400	-75
2.26767	-74
2.27133	-74
2.27500	-75
2.27867	-75
2.28233	-75
2.28600	-76
2.28967	-77
2.29333	-77
2.29700	-77
2.30067	-76
2.30433	-75
2.30800	-75
2.31167	-74
2.31533	-73
2.31900	-73
2.32267	-72
2.32633	-72
2.33000	-71
2.33367	-71
2.33733	-71
2.34100	-71
2.34467	-70
2.34833	-68
2.35200	-67
2.35567	-65
2.35933	-63
2.36300	-62
2.36667	-61
2.37033	-59
2.37400	-57
2.37767	-55
2.38133	-52
2.38500	-49
2.38867	-45
2.39233	-42
2.39600	-38
2.39967	-34
2.40333	-29
2.40700	-25
2.41067	-20
2.41433	-16
2.41800	-13
2.42167	-10
2.42533	-8
2.42900	-5
2.43267	-3
2.43633	-1
2.44000	1
2.44367	3
2.44733	4
2.45100	4
2.45467	5
2.45833	6
2.46200	7
2.46567	8
2.46933	8
2.47300	9
2.47667	9
2.48033	9
2.48400	10
2.48767	11
2.49133	12
2.49500	13
2.49867	14
2.50233	14
2.50600	15
2.50967	15
2.51333	15
2.51700	15
2.52067	15
2.52433	14
2.52800	14
2.53167	14
2.53533	13
2.53900	12
2.54267	11
2.54633	10
2.55000	10
2.55367	9
2.55733	10
2.56100	10
2.56467	11
2.56833	12
2.57200	13
2.57567	13
2.57933	14
2.58300	14
2.58667	15
2.59033	15
2.59400	16
2.59767	16
2.60133	16
2.60500	17
2.60867	17
2.61233	17
2.61600	17
2.61967	17
2.62333	17
2.62700	16
2.63067	16
2.63433	16
2.63800	16
2.64167	17
2.64533	17
2.64900	18
2.65267	19
2.65633	19
2.66000	20
2.66367	20
2.66733	21
2.67100	22
2.67467	22
2.67833	22
2.68200	23
2.68567	23
2.68933	23
2.69300	24
2.69667	24
2.70033	24
2.70400	24
2.70767	24
2.71133	24
2.71500	24
2.71867	24
2.72233	24
2.72600	24
2.72967	24
2.73333	24
2.73700	25
2.74067	25
2.74433	25
2.74800	25
2.75167	25
2.75533	25
2.75900	26
2.76267	26
2.76633	26
2.77000	27
2.77367	27
2.77733	27
2.78100	28
2.78467	28
2.78833	28
2.79200	29
2.79567	29
2.79933	30
2.80300	30
2.80667	30
2.81033	30
2.81400	30
2.81767	29
2.82133	29
2.82500	28
2.82867	28
2.83233	27
2.83600	27
2.83967	27
2.84333	26
2.84700	26
2.85067	26
2.85433	26
2.85800	24
2.86167	22
2.86533	17
2.86900	10
2.87267	-1
2.87633	-16
2.88000	-35
2.88367	-60
2.88733	-90
2.89100	-125
2.89467	-165
2.89833	-210
2.90200	-260
2.90567	-314
2.90933	-371
2.91300	-430
2.91667	-491
2.92033	-553
2.92400	-616
2.92767	-678
2.93133	-738
2.93500	-796
2.93867	-850
2.94233	-901
2.94600	-953
2.94967	-1007
2.95333	-1056
2.95700	-1091
2.96067	-1104
2.96433	-1092
2.96800	-1056
2.97167	-1002
2.97533	-933
2.97900	-856
2.98267	-776
2.98633	-696
2.99000	-618
2.99367	-545
2.99733	-477
3.00100	-415
3.00467	-359
3.00833	-310
3.01200	-266
3.01567	-227
3.01933	-193
3.02300	-164
3.02667	-138
3.03033	-116
3.03400	-97
3.03767	-81
3.04133	-67
3.04500	-55
3.04867	-44
3.05233	-36
3.05600	-29
3.05967	-22
3.06333	-17
3.06700	-12
3.07067	-8
3.07433	-5
3.07800	-2
3.08167	1
3.08533	3
3.08900	5
3.09267	7
3.09633	8
3.10000	10
3.10367	11
3.10733	12
3.11100	13
3.11467	14
3.11833	14
3.12200	15
3.12567	16
3.12933	17
3.13300	17
3.13667	18
3.14033	18
3.14400	19
3.14767	19
3.15133	19
3.15500	20
3.15867	20
3.16233	20
3.16600	20
3.16967	20
3.17333	21
3.17700	21
3.18067	20
3.18433	20
3.18800	20
3.19167	20
3.19533	20
3.19900	20
3.20267	20
3.20633	20
3.21000	20
3.21367	21
3.21733	21
3.22100	21
3.22467	21
3.22833	22
3.23200	22
3.23567	22
3.23933	22
3.24300	22
3.24667	22
3.25033	22
3.25400	22
3.25767	22
3.26133	22
3.26500	22
3.26867	22
3.27233	22
3.27600	22
3.27967	23
3.28333	23
3.28700	23
3.29067	24
3.29433	24
3.29800	24
3.30167	25
3.30533	25
3.30900	26
3.31267	27
3.31633	27
3.32000	28
3.32367	28
3.32733	29
3.33100	29
3.33467	29
3.33833	30
3.34200	30
3.34567	30
3.34933	30
3.35300	30
3.35667	30
3.36033	29
3.36400	29
3.36767	29
3.37133	29
3.37500	29
3.37867	29
3.38233	29
3.38600	29
3.38967	29
3.39333	29
3.39700	29
3.40067	29
3.40433	29
3.40800	29
3.41167	29
3.41533	29
3.41900	29
3.42267	29
3.42633	28
3.43000	28
3.43367	28
3.43733	28
3.44100	28
3.44467	28
3.44833	28
3.45200	28
3.45567	29
3.45933	29
3.46300	29
3.46667	29
3.47033	29
3.47400	29
3.47767	29
3.48133	29
3.48500	29
3.48867	28
3.49233	28
3.49600	28
3.49967	27
3.50333	27
3.50700	28
3.51067	28
3.51433	28
3.51800	28
3.52167	28
3.52533	28
3.52900	28
3.53267	28
3.53633	28
3.54000	28
3.54367	28
3.54733	28
3.55100	28
3.55467	28
3.55833	28
3.56200	28
3.56567	28
3.56933	28
3.57300	28
3.57667	28
3.58033	28
3.58400	28
3.58767	28
3.59133	28
3.59500	28
3.59867	28
3.60233	28
3.60600	28
3.60967	28
3.61333	28
3.61700	28
3.62067	29
3.62433	29
3.62800	29
3.63167	29
3.63533	29
3.63900	29
3.64267	29
3.64633	29
3.65000	29
3.65367	29
3.65733	29
3.66100	30
3.66467	30
3.66833	30
3.67200	30
3.67567	31
3.67933	31
3.68300	31
3.68667	31
3.69033	31
3.69400	30
3.69767	30
3.70133	30
3.70500	30
3.70867	29
3.71233	29
3.71600	29
3.71967	29
3.72333	29
3.72700	29
3.73067	29
3.73433	29
3.73800	29
3.74167	28
3.74533	28
3.74900	28
3.75267	27
3.75633	27
3.76000	27
3.76367	27
3.76733	27
3.77100	26
3.77467	26
3.77833	26
3.78200	27
3.78567	27
3.78933	27
3.79300	27
3.79667	27
3.80033	27
3.80400	28
3.80767	28
3.81133	28
3.81500	28
3.81867	28
3.82233	28
3.82600	28
3.82967	28
3.83333	28
3.83700	28
3.84067	28
3.84433	29
3.84800	29
3.85167	29
3.85533	29
3.85900	29
3.86267	29
3.86633	29
3.87000	30
3.87367	29
3.87733	29
3.88100	29
3.88467	29
3.88833	29
3.89200	29
3.89567	28
3.89933	28
3.90300	28
3.90667	28
3.91033	28
3.91400	28
3.91767	28
3.92133	28
3.92500	28
3.92867	28
3.93233	28
3.93600	28
3.93967	27
3.94333	28
3.94700	28
3.95067	28
3.95433	27
3.95800	27
3.96167	27
3.96533	27
3.96900	27
3.97267	27
3.97633	27
3.98000	27
3.98367	27
3.98733	27
3.99100	27
3.99467	27
3.99833	27

[Chromatogram (Ch3)]
Interval(msec)	220
# of Points	1091
Start Time(min)	0.002
End Time(min)	3.998
R.Time (min)	Intensity
0.00167	0
0.00533	0
0.00900	-1
0.01267	-1
0.01633	1
0.02000	0
0.02367	-1
0.02733	-1
0.03100	-1
0.03467	1
0.03833	1
0.04200	2
0.04567	2
0.04933	1
0.05300	1
0.05667	2
0.06033	4
0.06400	4
0.06767	2
0.07133	1
0.07500	1
0.07867	2
0.08233	2
0.08600	4
0.08967	5
0.09333	5
0.09700	2
0.10067	0
0.10433	-1
0.10800	-1
0.11167	-1
0.11533	1
0.11900	3
0.12267	3
0.12633	1
0.13000	1
0.13367	3
0.13733	4
0.14100	6
0.14467	6
0.14833	5
0.15200	5
0.15567	4
0.15933	4
0.16300	3
0.16667	0
0.17033	-1
0.17400	-2
0.17767	-2
0.18133	-0
0.18500	2
0.18867	5
0.19233	7
0.19600	8
0.19967	7
0.20333	6
0.20700	6
0.21067	7
0.21433	9
0.21800	11
0.22167	10
0.22533	9
0.22900	8
0.23267	7
0.23633	7
0.24000	10
0.24367	11
0.24733	12
0.25100	11
0.25467	10
0.25833	11
0.26200	11
0.26567	10
0.26933	9
0.27300	6
0.27667	5
0.28033	4
0.28400	5
0.28767	6
0.29133	6
0.29500	6
0.29867	6
0.30233	5
0.30600	3
0.30967	3
0.31333	3
0.31700	3
0.32067	1
0.32433	1
0.32800	3
0.33167	5
0.33533	6
0.33900	6
0.34267	6
0.34633	7
0.35000	6
0.35367	6
0.35733	6
0.36100	7
0.36467	8
0.36833	8
0.37200	8
0.37567	8
0.37933	9
0.38300	11
0.38667	10
0.39033	8
0.39400	8
0.39767	9
0.40133	7
0.40500	7
0.40867	8
0.41233	8
0.41600	8
0.41967	8
0.42333	9
0.42700	10
0.43067	10
0.43433	9
0.43800	9
0.44167	10
0.44533	11
0.44900	14
0.45267	14
0.45633	13
0.46000	12
0.46367	12
0.46733	12
0.47100	12
0.47467	10
0.47833	7
0.48200	9
0.48567	10
0.48933	11
0.49300	11
0.49667	12
0.50033	12
0.50400	12
0.50767	13
0.51133	15
0.51500	15
0.51867	14
0.52233	12
0.52600	13
0.52967	15
0.53333	15
0.53700	14
0.54067	12
0.54433	11
0.54800	12
0.55167	11
0.55533	12
0.55900	13
0.56267	13
0.56633	14
0.57000	15
0.57367	15
0.57733	14
0.58100	13
0.58467	13
0.58833	13
0.59200	14
0.59567	15
0.59933	16
0.60300	17
0.60667	17
0.61033	18
0.61400	17
0.61767	16
0.62133	15
0.62500	17
0.62867	18
0.63233	17
0.63600	15
0.63967	15
0.64333	17
0.64700	16
0.65067	15
0.65433	14
0.65800	14
0.66167	15
0.66533	16
0.66900	14
0.67267	10
0.67633	9
0.68000	11
0.68367	14
0.68733	17
0.69100	16
0.69467	13
0.69833	14
0.70200	13
0.70567	11
0.70933	11
0.71300	11
0.71667	13
0.72033	15
0.72400	17
0.72767	20
0.73133	20
0.73500	19
0.73867	15
0.74233	12
0.74600	12
0.74967	14
0.75333	16
0.75700	17
0.76067	17
0.76433	16
0.76800	17
0.77167	19
0.77533	19
0.77900	20
0.78267	21
0.78633	21
0.79000	21
0.79367	20
0.79733	20
0.80100	18
0.80467	18
0.80833	19
0.81200	21
0.81567	21
0.81933	21
0.82300	23
0.82667	23
0.83033	21
0.83400	21
0.83767	21
0.84133	21
0.84500	22
0.84867	21
0.85233	19
0.85600	20
0.85967	20
0.86333	19
0.86700	18
0.87067	18
0.87433	19
0.87800	18
0.88167	18
0.88533	19
0.88900	18
0.89267	16
0.89633	14
0.90000	14
0.90367	16
0.90733	17
0.91100	19
0.91467	22
0.91833	24
0.92200	24
0.92567	23
0.92933	21
0.93300	20
0.93667	19
0.94033	20
0.94400	19
0.94767	18
0.95133	17
0.95500	20
0.95867	23
0.96233	24
0.96600	24
0.96967	24
0.97333	24
0.97700	25
0.98067	27
0.98433	27
0.98800	26
0.99167	24
0.99533	21
0.99900	20
1.00267	18
1.00633	18
1.01000	20
1.01367	21
1.01733	21
1.02100	21
1.02467	20
1.02833	19
1.03200	20
1.03567	21
1.03933	20
1.04300	19
1.04667	18
1.05033	18
1.05400	20
1.05767	23
1.06133	22
1.06500	23
1.06867	24
1.07233	25
1.07600	24
1.07967	24
1.08333	24
1.08700	24
1.09067	24
1.09433	25
1.09800	25
1.10167	26
1.10533	25
1.10900	24
1.11267	24
1.11633	23
1.12000	23
1.12367	24
1.12733	24
1.13100	23
1.13467	22
1.13833	25
1.14200	26
1.14567	27
1.14933	28
1.15300	29
1.15667	28
1.16033	28
1.16400	30
1.16767	31
1.17133	31
1.17500	31
1.17867	31
1.18233	30
1.18600	29
1.18967	29
1.19333	30
1.19700	29
1.20067	26
1.20433	25
1.20800	25
1.21167	24
1.21533	24
1.21900	23
1.22267	23
1.22633	24
1.23000	26
1.23367	28
1.23733	29
1.24100	30
1.24467	30
1.24833	31
1.25200	30
1.25567	31
1.25933	30
1.26300	29
1.26667	30
1.27033	31
1.27400	30
1.27767	28
1.28133	26
1.28500	26
1.28867	28
1.29233	29
1.29600	30
1.29967	31
1.30333	30
1.30700	28
1.31067	26
1.31433	26
1.31800	28
1.32167	28
1.32533	29
1.32900	29
1.33267	30
1.33633	29
1.34000	30
1.34367	32
1.34733	31
1.35100	31
1.35467	30
1.35833	28
1.36200	26
1.36567	26
1.36933	25
1.37300	24
1.37667	24
1.38033	26
1.38400	29
1.38767	30
1.39133	32
1.39500	33
1.39867	33
1.40233	30
1.40600	28
1.40967	28
1.41333	31
1.41700	31
1.42067	33
1.42433	32
1.42800	32
1.43167	31
1.43533	28
1.43900	27
1.44267	26
1.44633	26
1.45000	26
1.45367	25
1.45733	24
1.46100	24
1.46467	24
1.46833	25
1.47200	26
1.47567	28
1.47933	29
1.48300	30
1.48667	32
1.49033	33
1.49400	34
1.49767	35
1.50133	32
1.50500	30
1.50867	29
1.51233	28
1.51600	32
1.51967	35
1.52333	36
1.52700	36
1.53067	33
1.53433	34
1.53800	34
1.54167	34
1.54533	34
1.54900	35
1.55267	34
1.55633	32
1.56000	30
1.56367	30
1.56733	30
1.57100	27
1.57467	27
1.57833	28
1.58200	28
1.58567	29
1.58933	29
1.59300	28
1.59667	27
1.60033	28
1.60400	31
1.60767	32
1.61133	30
1.61500	31
1.61867	32
1.62233	33
1.62600	33
1.62967	31
1.63333	30
1.63700	29
1.64067	29
1.64433	31
1.64800	33
1.65167	32
1.65533	32
1.65900	34
1.66267	37
1.66633	38
1.67000	35
1.67367	34
1.67733	33
1.68100	33
1.68467	36
1.68833	41
1.69200	43
1.69567	43
1.69933	43
1.70300	45
1.70667	47
1.71033	47
1.71400	47
1.71767	46
1.72133	47
1.72500	47
1.72867	46
1.73233	45
1.73600	43
1.73967	45
1.74333	47
1.74700	48
1.75067	48
1.75433	48
1.75800	49
1.76167	49
1.76533	48
1.76900	46
1.77267	46
1.77633	47
1.78000	47
1.78367	48
1.78733	49
1.79100	49
1.79467	48
1.79833	47
1.80200	48
1.80567	47
1.80933	47
1.81300	49
1.81667	51
1.82033	51
1.82400	51
1.82767	52
1.83133	54
1.83500	55
1.83867	54
1.84233	51
1.84600	52
1.84967	53
1.85333	56
1.85700	57
1.86067	58
1.86433	58
1.86800	56
1.87167	55
1.87533	54
1.87900	55
1.88267	58
1.88633	60
1.89000	61
1.89367	60
1.89733	60
1.90100	61
1.90467	64
1.90833	65
1.91200	66
1.91567	69
1.91933	69
1.92300	69
1.92667	70
1.93033	71
1.93400	72
1.93767	72
1.94133	73
1.94500	73
1.94867	75
1.95233	77
1.95600	79
1.95967	80
1.96333	79
1.96700	79
1.97067	79
1.97433	79
1.97800	80
1.98167	81
1.98533	81
1.98900	82
1.99267	83
1.99633	84
2.00000	85
2.00367	84
2.00733	83
2.01100	85
2.01467	86
2.01833	86
2.02200	86
2.02567	88
2.02933	89
2.03300	91
2.03667	93
2.04033	93
2.04400	93
2.04767	93
2.05133	94
2.05500	96
2.05867	97
2.06233	97
2.06600	96
2.06967	97
2.07333	98
2.07700	100
2.08067	103
2.08433	102
2.08800	101
2.09167	100
2.09533	100
2.09900	103
2.10267	107
2.10633	108
2.11000	110
2.11367	112
2.11733	112
2.12100	112
2.12467	113
2.12833	115
2.13200	117
2.13567	116
2.13933	115
2.14300	115
2.14667	115
2.15033	118
2.15400	122
2.15767	123
2.16133	122
2.16500	120
2.16867	119
2.17233	120
2.17600	123
2.17967	125
2.18333	125
2.18700	124
2.19067	124
2.19433	125
2.19800	124
2.20167	124
2.20533	123
2.20900	122
2.21267	123
2.21633	124
2.22000	126
2.22367	128
2.22733	128
2.23100	128
2.23467	128
2.23833	129
2.24200	130
2.24567	130
2.24933	131
2.25300	132
2.25667	134
2.26033	136
2.26400	136
2.26767	134
2.27133	134
2.27500	133
2.27867	134
2.28233	137
2.28600	139
2.28967	139
2.29333	138
2.29700	136
2.30067	135
2.30433	135
2.30800	138
2.31167	139
2.31533	138
2.31900	138
2.32267	139
2.32633	142
2.33000	143
2.33367	145
2.33733	146
2.34100	147
2.34467	146
2.34833	143
2.35200	141
2.35567	142
2.35933	143
2.36300	143
2.36667	144
2.37033	146
2.37400	148
2.37767	150
2.38133	149
2.38500	147
2.38867	144
2.39233	143
2.39600	144
2.39967	146
2.40333	147
2.40700	147
2.41067	149
2.41433	150
2.41800	151
2.42167	150
2.42533	152
2.42900	154
2.43267	154
2.43633	153
2.44000	162
2.44367	228
2.44733	348
2.45100	459
2.45467	538
2.45833	575
2.46200	571
2.46567	547
2.46933	526
2.47300	509
2.47667	494
2.48033	477
2.48400	453
2.48767	422
2.49133	390
2.49500	363
2.49867	344
2.50233	329
2.50600	320
2.50967	318
2.51333	324
2.51700	333
2.52067	342
2.52433	348
2.52800	351
2.53167	347
2.53533	335
2.53900	318
2.54267	299
2.54633	283
2.55000	269
2.55367	256
2.55733	244
2.56100	233
2.56467	226
2.56833	223
2.57200	220
2.57567	219
2.57933	219
2.58300	219
2.58667	219
2.59033	222
2.59400	228
2.59767	235
2.60133	242
2.60500	252
2.60867	261
2.61233	269
2.61600	277
2.61967	285
2.62333	291
2.62700	295
2.63067	295
2.63433	291
2.63800	284
2.64167	277
2.64533	267
2.64900	256
2.65267	242
2.65633	230
2.66000	219
2.66367	207
2.66733	197
2.67100	190
2.67467	185
2.67833	181
2.68200	175
2.68567	171
2.68933	167
2.69300	163
2.69667	163
2.70033	161
2.70400	160
2.70767	160
2.71133	158
2.71500	156
2.71867	155
2.72233	155
2.72600	156
2.72967	160
2.73333	163
2.73700	165
2.74067	164
2.74433	162
2.74800	160
2.75167	162
2.75533	164
2.75900	164
2.76267	165
2.76633	166
2.77000	167
2.77367	169
2.77733	171
2.78100	173
2.78467	177
2.78833	181
2.79200	182
2.79567	183
2.79933	187
2.80300	192
2.80667	197
2.81033	201
2.81400	204
2.81767	208
2.82133	213
2.82500	218
2.82867	224
2.83233	234
2.83600	253
2.83967	294
2.84333	374
2.84700	514
2.85067	738
2.85433	1060
2.85800	1487
2.86167	2002
2.86533	2578
2.86900	3174
2.87267	3739
2.87633	4226
2.88000	4597
2.88367	4827
2.88733	4909
2.89100	4859
2.89467	4694
2.89833	4443
2.90200	4136
2.90567	3797
2.90933	3447
2.91300	3107
2.91667	2791
2.92033	2504
2.92400	2252
2.92767	2032
2.93133	1838
2.93500	1667
2.93867	1518
2.94233	1386
2.94600	1269
2.94967	1167
2.95333	1082
2.95700	1013
2.96067	956
2.96433	907
2.96800	870
2.97167	838
2.97533	809
2.97900	785
2.98267	764
2.98633	747
2.99000	736
2.99367	727
2.99733	717
3.00100	708
3.00467	700
3.00833	692
3.01200	687
3.01567	682
3.01933	677
3.02300	672
3.02667	669
3.03033	667
3.03400	663
3.03767	659
3.04133	656
3.04500	655
3.04867	654
3.05233	651
3.05600	646
3.05967	641
3.06333	637
3.06700	636
3.07067	637
3.07433	639
3.07800	640
3.08167	639
3.08533	638
3.08900	638
3.09267	639
3.09633	640
3.10000	640
3.10367	640
3.10733	641
3.11100	642
3.11467	642
3.11833	639
3.12200	638
3.12567	637
3.12933	638
3.13300	639
3.13667	641
3.14033	643
3.14400	644
3.14767	647
3.15133	649
3.15500	650
3.15867	652
3.16233	653
3.16600	652
3.16967	654
3.17333	657
3.17700	660
3.18067	662
3.18433	665
3.18800	669
3.19167	673
3.19533	677
3.19900	682
3.20267	687
3.20633	690
3.21000	691
3.21367	692
3.21733	693
3.22100	695
3.22467	697
3.22833	700
3.23200	704
3.23567	709
3.23933	713
3.24300	714
3.24667	715
3.25033	716
3.25400	717
3.25767	718
3.26133	719
3.26500	719
3.26867	719
3.27233	719
3.27600	720
3.27967	720
3.28333	720
3.28700	716
3.29067	714
3.29433	712
3.29800	712
3.30167	713
3.30533	710
3.30900	707
3.31267	704
3.31633	701
3.32000	698
3.32367	696
3.32733	696
3.33100	695
3.33467	696
3.33833	696
3.34200	694
3.34567	691
3.34933	687
3.35300	683
3.35667	680
3.36033	679
3.36400	677
3.36767	676
3.37133	674
3.37500	670
3.37867	667
3.38233	665
3.38600	662
3.38967	661
3.39333	659
3.39700	658
3.40067	659
3.40433	660
3.40800	661
3.41167	660
3.41533	659
3.41900	657
3.42267	656
3.42633	654
3.43000	651
3.43367	651
3.43733	651
3.44100	651
3.44467	650
3.44833	648
3.45200	644
3.45567	642
3.45933	640
3.46300	637
3.46667	634
3.47033	634
3.47400	635
3.47767	637
3.48133	637
3.48500	636
3.48867	635
3.49233	633
3.49600	630
3.49967	627
3.50333	624
3.50700	622
3.51067	623
3.51433	621
3.51800	619
3.52167	619
3.52533	619
3.52900	621
3.53267	621
3.53633	620
3.54000	619
3.54367	617
3.54733	618
3.55100	619
3.55467	620
3.55833	617
3.56200	615
3.56567	612
3.56933	610
3.57300	608
3.57667	605
3.58033	601
3.58400	599
3.58767	597
3.59133	596
3.59500	595
3.59867	594
3.60233	592
3.60600	590
3.60967	588
3.61333	587
3.61700	585
3.62067	583
3.62433	580
3.62800	577
3.63167	576
3.63533	576
3.63900	573
3.64267	570
3.64633	570
3.65000	571
3.65367	572
3.65733	573
3.66100	572
3.66467	570
3.66833	568
3.67200	563
3.67567	558
3.67933	555
3.68300	554
3.68667	553
3.69033	550
3.69400	547
3.69767	546
3.70133	544
3.70500	541
3.70867	540
3.71233	540
3.71600	540
3.71967	539
3.72333	536
3.72700	535
3.73067	533
3.73433	531
3.73800	528
3.74167	525
3.74533	524
3.74900	521
3.75267	518
3.75633	516
3.76000	513
3.76367	512
3.76733	510
3.77100	508
3.77467	507
3.77833	508
3.78200	507
3.78567	503
3.78933	500
3.79300	498
3.79667	495
3.80033	490
3.80400	487
3.80767	485
3.81133	483
3.81500	478
3.81867	474
3.82233	469
3.82600	467
3.82967	466
3.83333	465
3.83700	465
3.84067	464
3.84433	462
3.84800	460
3.85167	458
3.85533	457
3.85900	456
3.86267	453
3.86633	452
3.87000	451
3.87367	448
3.87733	445
3.88100	444
3.88467	444
3.88833	444
3.89200	442
3.89567	441
3.89933	441
3.90300	441
3.90667	437
3.91033	433
3.91400	432
3.91767	429
3.92133	427
3.92500	425
3.92867	423
3.93233	423
3.93600	424
3.93967	424
3.94333	422
3.94700	418
3.95067	415
3.95433	413
3.95800	410
3.96167	408
3.96533	407
3.96900	408
3.97267	408
3.97633	407
3.98000	406
3.98367	404
3.98733	403
3.99100	399
3.99467	395
3.99833	394

[Status Trace (Column Oven Temperature)]
Interval(msec)	1000
# of Points	240
Start Time(min)	0.008
End Time(min)	3.991
Intensity Units	
Intensity Multiplier	1
R.Time (min)	Intensity
0.00815	35.05
0.02482	35.05
0.04148	35.04
0.05815	35.06
0.07482	35.07
0.09148	35.06
0.10815	35.05
0.12482	35.04
0.14148	35.03
0.15815	35.04
0.17482	35.04
0.19148	35.04
0.20815	35.04
0.22482	35.05
0.24148	35.05
0.25815	35.05
0.27482	35.04
0.29148	35.03
0.30815	35.03
0.32482	35.03
0.34148	35.03
0.35815	35.03
0.37482	35.02
0.39148	35.01
0.40815	35.01
0.42482	35.02
0.44148	35.02
0.45815	35.03
0.47482	35.03
0.49148	35.02
0.50815	35.02
0.52482	35.04
0.54148	35.04
0.55815	35.04
0.57482	35.04
0.59148	35.04
0.60815	35.04
0.62482	35.03
0.64148	35.02
0.65815	35.00
0.67482	35.00
0.69148	35.01
0.70815	35.01
0.72482	35.02
0.74148	35.01
0.75815	35.01
0.77482	35.01
0.79148	35.01
0.80815	35.01
0.82482	35.00
0.84148	34.99
0.85815	34.98
0.87482	34.97
0.89148	34.97
0.90815	34.97
0.92482	34.97
0.94148	34.98
0.95815	34.99
0.97482	34.98
0.99148	34.97
1.00815	34.98
1.02482	34.97
1.04148	34.97
1.05815	34.96
1.07482	34.95
1.09148	34.95
1.10815	34.96
1.12482	34.97
1.14148	34.99
1.15815	34.99
1.17482	35.00
1.19148	34.99
1.20815	35.00
1.22482	34.98
1.24148	34.98
1.25815	35.00
1.27482	35.00
1.29148	35.00
1.30815	35.00
1.32482	34.98
1.34148	34.97
1.35815	34.97
1.37482	34.98
1.39148	34.98
1.40815	34.99
1.42482	34.97
1.44148	34.97
1.45815	34.98
1.47482	34.99
1.49148	34.99
1.50815	34.99
1.52482	34.99
1.54148	34.98
1.55815	34.97
1.57482	34.99
1.59148	35.01
1.60815	35.07
1.62482	35.18
1.64148	35.35
1.65815	35.58
1.67482	35.92
1.69148	36.29
1.70815	36.64
1.72482	36.96
1.74148	37.30
1.75815	37.64
1.77482	37.97
1.79148	38.30
1.80815	38.66
1.82482	38.98
1.84148	39.31
1.85815	39.64
1.87482	39.96
1.89148	40.29
1.90815	40.63
1.92482	40.95
1.94148	41.28
1.95815	41.60
1.97482	41.93
1.99148	42.24
2.00815	42.57
2.02482	42.89
2.04148	43.23
2.05815	43.55
2.07482	43.89
2.09148	44.20
2.10815	44.55
2.12482	44.86
2.14148	45.17
2.15815	45.51
2.17482	45.83
2.19148	46.14
2.20815	46.49
2.22482	46.82
2.24148	47.15
2.25815	47.47
2.27482	47.80
2.29148	48.17
2.30815	48.49
2.32482	48.82
2.34148	49.14
2.35815	49.41
2.37482	49.59
2.39148	49.67
2.40815	49.66
2.42482	49.67
2.44148	49.67
2.45815	49.68
2.47482	49.70
2.49148	49.70
2.50815	49.72
2.52482	49.73
2.54148	49.75
2.55815	49.75
2.57482	49.76
2.59148	49.78
2.60815	49.78
2.62482	49.82
2.64148	49.82
2.65815	49.82
2.67482	49.84
2.69148	49.84
2.70815	49.85
2.72482	49.86
2.74148	49.86
2.75815	49.86
2.77482	49.86
2.79148	49.85
2.80815	49.84
2.82482	49.86
2.84148	49.89
2.85815	49.89
2.87482	49.91
2.89148	49.92
2.90815	49.93
2.92482	49.93
2.94148	49.91
2.95815	49.92
2.97482	49.94
2.99148	49.96
3.00815	49.97
3.02482	49.99
3.04148	50.01
3.05815	50.02
3.07482	50.03
3.09148	50.03
3.10815	50.03
3.12482	50.02
3.14148	50.02
3.15815	50.03
3.17482	50.03
3.19148	50.05
3.20815	50.06
3.22482	50.08
3.24148	50.09
3.25815	50.10
3.27482	50.11
3.29148	50.10
3.30815	50.09
3.32482	50.08
3.34148	50.07
3.35815	50.06
3.37482	50.06
3.39148	50.06
3.40815	50.06
3.42482	50.07
3.44148	50.07
3.45815	50.06
3.47482	50.06
3.49148	50.07
3.50815	50.07
3.52482	50.06
3.54148	50.06
3.55815	50.07
3.57482	50.08
3.59148	50.08
3.60815	50.08
3.62482	50.07
3.64148	50.06
3.65815	50.05
3.67482	50.03
3.69148	50.02
3.70815	50.02
3.72482	50.03
3.74148	50.05
3.75815	50.06
3.77482	50.07
3.79148	50.08
3.80815	50.08
3.82482	50.08
3.84148	50.07
3.85815	50.06
3.87482	50.05
3.89148	50.06
3.90815	50.06
3.92482	50.06
3.94148	50.07
3.95815	50.07
3.97482	50.07
3.99148	50.08

[Status Trace (Injection Unit Temperature)]
Interval(msec)	1000
# of Points	240
Start Time(min)	0.008
End Time(min)	3.991
Intensity Units	
Intensity Multiplier	1
R.Time (min)	Intensity
0.00815	99.98
0.02482	99.98
0.04148	99.98
0.05815	99.98
0.07482	99.98
0.09148	99.98
0.10815	99.98
0.12482	99.98
0.14148	99.98
0.15815	99.98
0.17482	99.98
0.19148	99.98
0.20815	99.99
0.22482	99.99
0.24148	99.98
0.25815	99.99
0.27482	99.98
0.29148	99.98
0.30815	99.98
0.32482	99.98
0.34148	99.99
0.35815	99.98
0.37482	99.98
0.39148	99.99
0.40815	99.99
0.42482	99.98
0.44148	99.98
0.45815	99.98
0.47482	99.98
0.49148	99.99
0.50815	99.99
0.52482	99.99
0.54148	99.98
0.55815	99.98
0.57482	99.98
0.59148	99.99
0.60815	99.98
0.62482	99.98
0.64148	99.98
0.65815	99.99
0.67482	99.98
0.69148	99.98
0.70815	99.98
0.72482	99.99
0.74148	99.99
0.75815	99.99
0.77482	99.98
0.79148	99.98
0.80815	99.98
0.82482	99.99
0.84148	99.98
0.85815	99.98
0.87482	99.98
0.89148	99.98
0.90815	99.98
0.92482	99.98
0.94148	99.98
0.95815	99.99
0.97482	99.98
0.99148	99.99
1.00815	99.98
1.02482	99.98
1.04148	99.98
1.05815	99.98
1.07482	99.99
1.09148	99.98
1.10815	99.98
1.12482	99.98
1.14148	99.98
1.15815	99.98
1.17482	99.99
1.19148	99.99
1.20815	99.99
1.22482	99.99
1.24148	99.99
1.25815	99.99
1.27482	99.98
1.29148	99.98
1.30815	99.99
1.32482	99.99
1.34148	99.99
1.35815	99.99
1.37482	99.99
1.39148	99.99
1.40815	99.98
1.42482	99.97
1.44148	99.99
1.45815	99.99
1.47482	99.99
1.49148	99.99
1.50815	99.98
1.52482	99.99
1.54148	99.98
1.55815	99.98
1.57482	99.98
1.59148	99.98
1.60815	99.98
1.62482	99.98
1.64148	99.98
1.65815	99.98
1.67482	99.98
1.69148	99.98
1.70815	99.98
1.72482	99.99
1.74148	99.98
1.75815	99.98
1.77482	99.98
1.79148	99.98
1.80815	99.98
1.82482	99.98
1.84148	99.98
1.85815	99.97
1.87482	99.98
1.89148	99.98
1.90815	99.98
1.92482	99.98
1.94148	99.98
1.95815	99.98
1.97482	99.97
1.99148	99.98
2.00815	99.97
2.02482	99.98
2.04148	99.98
2.05815	99.97
2.07482	99.97
2.09148	99.97
2.10815	99.97
2.12482	99.97
2.14148	99.97
2.15815	99.97
2.17482	99.97
2.19148	99.97
2.20815	99.97
2.22482	99.97
2.24148	99.97
2.25815	99.97
2.27482	99.97
2.29148	99.97
2.30815	99.97
2.32482	99.97
2.34148	99.97
2.35815	99.97
2.37482	99.97
2.39148	99.97
2.40815	99.97
2.42482	99.97
2.44148	99.96
2.45815	99.97
2.47482	99.96
2.49148	99.97
2.50815	99.97
2.52482	99.97
2.54148	99.97
2.55815	99.97
2.57482	99.97
2.59148	99.98
2.60815	99.98
2.62482	99.97
2.64148	99.98
2.65815	99.97
2.67482	99.98
2.69148	99.98
2.70815	99.98
2.72482	99.98
2.74148	99.98
2.75815	99.98
2.77482	99.99
2.79148	99.99
2.80815	99.99
2.82482	100.00
2.84148	99.99
2.85815	99.99
2.87482	100.00
2.89148	100.00
2.90815	100.00
2.92482	100.00
2.94148	100.01
2.95815	100.00
2.97482	100.01
2.99148	100.01
3.00815	100.01
3.02482	100.01
3.04148	100.01
3.05815	100.01
3.07482	100.01
3.09148	100.01
3.10815	100.01
3.12482	100.02
3.14148	100.02
3.15815	100.02
3.17482	100.02
3.19148	100.02
3.20815	100.02
3.22482	100.02
3.24148	100.02
3.25815	100.02
3.27482	100.03
3.29148	100.03
3.30815	100.03
3.32482	100.03
3.34148	100.03
3.35815	100.03
3.37482	100.03
3.39148	100.03
3.40815	100.04
3.42482	100.04
3.44148	100.04
3.45815	100.04
3.47482	100.04
3.49148	100.04
3.50815	100.04
3.52482	100.04
3.54148	100.04
3.55815	100.04
3.57482	100.04
3.59148	100.04
3.60815	100.04
3.62482	100.04
3.64148	100.04
3.65815	100.05
3.67482	100.05
3.69148	100.04
3.70815	100.04
3.72482	100.05
3.74148	100.05
3.75815	100.05
3.77482	100.05
3.79148	100.05
3.80815	100.05
3.82482	100.05
3.84148	100.05
3.85815	100.05
3.87482	100.05
3.89148	100.05
3.90815	100.05
3.92482	100.05
3.94148	100.05
3.95815	100.05
3.97482	100.05
3.99148	100.05

[Status Trace (Carrier Gas Pressure)]
Interval(msec)	1000
# of Points	240
Start Time(min)	0.008
End Time(min)	3.991
Intensity Units	
Intensity Multiplier	1
R.Time (min)	Intensity
0.00815	58.00
0.02482	55.40
0.04148	57.09
0.05815	59.27
0.07482	59.50
0.09148	58.08
0.10815	57.98
0.12482	58.01
0.14148	58.01
0.15815	58.01
0.17482	58.00
0.19148	58.00
0.20815	58.00
0.22482	58.00
0.24148	58.00
0.25815	58.00
0.27482	58.00
0.29148	58.00
0.30815	58.00
0.32482	58.00
0.34148	58.00
0.35815	58.00
0.37482	58.00
0.39148	58.00
0.40815	58.00
0.42482	58.00
0.44148	58.00
0.45815	58.00
0.47482	58.00
0.49148	58.00
0.50815	58.00
0.52482	58.00
0.54148	58.00
0.55815	58.00
0.57482	58.00
0.59148	58.00
0.60815	58.00
0.62482	58.00
0.64148	58.00
0.65815	58.00
0.67482	58.00
0.69148	58.00
0.70815	58.00
0.72482	58.00
0.74148	58.00
0.75815	58.00
0.77482	58.00
0.79148	58.00
0.80815	58.00
0.82482	58.00
0.84148	58.00
0.85815	58.00
0.87482	58.00
0.89148	58.00
0.90815	58.00
0.92482	58.00
0.94148	58.00
0.95815	58.00
0.97482	58.00
0.99148	58.00
1.00815	58.00
1.02482	58.00
1.04148	58.00
1.05815	58.00
1.07482	58.00
1.09148	58.00
1.10815	58.00
1.12482	58.00
1.14148	58.00
1.15815	58.00
1.17482	58.00
1.19148	58.00
1.20815	58.00
1.22482	58.00
1.24148	58.00
1.25815	58.00
1.27482	58.00
1.29148	58.00
1.30815	58.00
1.32482	58.00
1.34148	58.00
1.35815	58.00
1.37482	58.00
1.39148	58.00
1.40815	58.00
1.42482	58.00
1.44148	58.00
1.45815	58.00
1.47482	58.00
1.49148	58.00
1.50815	58.00
1.52482	58.00
1.54148	58.00
1.55815	58.00
1.57482	58.00
1.59148	58.00
1.60815	58.00
1.62482	58.00
1.64148	58.00
1.65815	58.00
1.67482	58.01
1.69148	58.00
1.70815	58.00
1.72482	58.00
1.74148	58.00
1.75815	58.00
1.77482	58.00
1.79148	58.00
1.80815	58.00
1.82482	58.00
1.84148	58.00
1.85815	58.00
1.87482	58.00
1.89148	58.00
1.90815	58.00
1.92482	58.00
1.94148	58.00
1.95815	58.00
1.97482	58.00
1.99148	58.00
2.00815	58.00
2.02482	58.00
2.04148	58.00
2.05815	58.00
2.07482	58.00
2.09148	58.00
2.10815	58.00
2.12482	58.00
2.14148	58.00
2.15815	58.00
2.17482	58.00
2.19148	58.00
2.20815	58.00
2.22482	58.00
2.24148	58.00
2.25815	58.00
2.27482	58.00
2.29148	58.00
2.30815	58.00
2.32482	58.00
2.34148	58.00
2.35815	58.00
2.37482	58.00
2.39148	57.99
2.40815	57.99
2.42482	58.00
2.44148	58.00
2.45815	58.00
2.47482	58.00
2.49148	58.00
2.50815	58.00
2.52482	57.99
2.54148	58.00
2.55815	58.00
2.57482	58.00
2.59148	58.00
2.60815	58.00
2.62482	58.00
2.64148	58.00
2.65815	58.00
2.67482	58.00
2.69148	58.00
2.70815	58.00
2.72482	58.00
2.74148	58.00
2.75815	58.00
2.77482	58.00
2.79148	58.00
2.80815	58.00
2.82482	58.00
2.84148	58.00
2.85815	58.00
2.87482	58.00
2.89148	58.00
2.90815	58.00
2.92482	58.00
2.94148	58.00
2.95815	58.00
2.97482	58.00
2.99148	58.00
3.00815	58.00
3.02482	58.00
3.04148	58.00
3.05815	58.00
3.07482	58.00
3.09148	58.00
3.10815	58.00
3.12482	58.00
3.14148	58.00
3.15815	58.00
3.17482	58.00
3.19148	58.00
3.20815	58.00
3.22482	58.00
3.24148	58.00
3.25815	58.00
3.27482	58.00
3.29148	58.00
3.30815	58.00
3.32482	58.00
3.34148	58.00
3.35815	58.00
3.37482	58.00
3.39148	58.00
3.40815	58.00
3.42482	58.00
3.44148	58.00
3.45815	58.00
3.47482	58.00
3.49148	58.00
3.50815	58.00
3.52482	58.00
3.54148	58.00
3.55815	58.00
3.57482	58.00
3.59148	58.00
3.60815	58.00
3.62482	58.00
3.64148	58.00
3.65815	58.00
3.67482	58.00
3.69148	58.00
3.70815	58.00
3.72482	58.00
3.74148	58.00
3.75815	58.00
3.77482	58.00
3.79148	58.00
3.80815	58.00
3.82482	58.00
3.84148	58.00
3.85815	58.00
3.87482	58.00
3.89148	58.00
3.90815	58.00
3.92482	58.00
3.94148	58.00
3.95815	58.00
3.97482	58.00
3.99148	58.00

[Status Trace (Carrier Gas Flow)]
Interval(msec)	1000
# of Points	240
Start Time(min)	0.008
End Time(min)	3.991
Intensity Units	
Intensity Multiplier	1
R.Time (min)	Intensity
0.00815	34.52
0.02482	34.53
0.04148	34.55
0.05815	34.55
0.07482	34.49
0.09148	34.51
0.10815	34.52
0.12482	34.52
0.14148	34.52
0.15815	34.51
0.17482	34.52
0.19148	34.52
0.20815	34.52
0.22482	34.52
0.24148	34.52
0.25815	34.52
0.27482	34.52
0.29148	34.52
0.30815	34.52
0.32482	34.52
0.34148	34.52
0.35815	34.52
0.37482	34.52
0.39148	34.52
0.40815	34.52
0.42482	34.52
0.44148	34.52
0.45815	34.52
0.47482	34.52
0.49148	34.53
0.50815	34.52
0.52482	34.51
0.54148	34.52
0.55815	34.52
0.57482	34.52
0.59148	34.52
0.60815	34.52
0.62482	34.52
0.64148	34.52
0.65815	34.52
0.67482	34.51
0.69148	34.52
0.70815	34.52
0.72482	34.52
0.74148	34.52
0.75815	34.52
0.77482	34.51
0.79148	34.52
0.80815	34.52
0.82482	34.52
0.84148	34.52
0.85815	34.52
0.87482	34.52
0.89148	34.51
0.90815	34.52
0.92482	34.52
0.94148	34.51
0.95815	34.52
0.97482	34.53
0.99148	34.52
1.00815	34.52
1.02482	34.52
1.04148	34.52
1.05815	34.52
1.07482	34.51
1.09148	34.52
1.10815	34.52
1.12482	34.51
1.14148	34.51
1.15815	34.52
1.17482	34.52
1.19148	34.52
1.20815	34.51
1.22482	34.52
1.24148	34.52
1.25815	34.52
1.27482	34.52
1.29148	34.52
1.30815	34.51
1.32482	34.52
1.34148	34.52
1.35815	34.52
1.37482	34.51
1.39148	34.52
1.40815	34.52
1.42482	34.52
1.44148	34.51
1.45815	34.52
1.47482	34.52
1.49148	34.52
1.50815	34.51
1.52482	34.52
1.54148	34.52
1.55815	34.52
1.57482	34.52
1.59148	34.52
1.60815	34.52
1.62482	34.52
1.64148	34.52
1.65815	34.52
1.67482	34.52
1.69148	34.52
1.70815	34.52
1.72482	34.52
1.74148	34.52
1.75815	34.51
1.77482	34.52
1.79148	34.52
1.80815	34.52
1.82482	34.52
1.84148	34.52
1.85815	34.52
1.87482	34.52
1.89148	34.52
1.90815	34.52
1.92482	34.51
1.94148	34.52
1.95815	34.52
1.97482	34.52
1.99148	34.52
2.00815	34.52
2.02482	34.52
2.04148	34.52
2.05815	34.52
2.07482	34.52
2.09148	34.51
2.10815	34.51
2.12482	34.52
2.14148	34.52
2.15815	34.52
2.17482	34.52
2.19148	34.52
2.20815	34.52
2.22482	34.51
2.24148	34.52
2.25815	34.53
2.27482	34.51
2.29148	34.51
2.30815	34.52
2.32482	34.52
2.34148	34.51
2.35815	34.51
2.37482	34.52
2.39148	34.52
2.40815	34.51
2.42482	34.52
2.44148	34.53
2.45815	34.52
2.47482	34.52
2.49148	34.52
2.50815	34.45
2.52482	34.51
2.54148	34.52
2.55815	34.52
2.57482	34.52
2.59148	34.51
2.60815	34.52
2.62482	34.52
2.64148	34.52
2.65815	34.52
2.67482	34.52
2.69148	34.52
2.70815	34.52
2.72482	34.52
2.74148	34.52
2.75815	34.52
2.77482	34.53
2.79148	34.52
2.80815	34.52
2.82482	34.52
2.84148	34.52
2.85815	34.52
2.87482	34.51
2.89148	34.52
2.90815	34.52
2.92482	34.51
2.94148	34.51
2.95815	34.52
2.97482	34.52
2.99148	34.52
3.00815	34.52
3.02482	34.52
3.04148	34.51
3.05815	34.52
3.07482	34.52
3.09148	34.52
3.10815	34.52
3.12482	34.52
3.14148	34.53
3.15815	34.51
3.17482	34.52
3.19148	34.52
3.20815	34.53
3.22482	34.51
3.24148	34.52
3.25815	34.52
3.27482	34.52
3.29148	34.52
3.30815	34.52
3.32482	34.51
3.34148	34.52
3.35815	34.52
3.37482	34.52
3.39148	34.52
3.40815	34.51
3.42482	34.52
3.44148	34.52
3.45815	34.52
3.47482	34.51
3.49148	34.52
3.50815	34.52
3.52482	34.52
3.54148	34.52
3.55815	34.52
3.57482	34.53
3.59148	34.51
3.60815	34.52
3.62482	34.51
3.64148	34.52
3.65815	34.51
3.67482	34.52
3.69148	34.52
3.70815	34.51
3.72482	34.52
3.74148	34.52
3.75815	34.52
3.77482	34.52
3.79148	34.53
3.80815	34.52
3.82482	34.51
3.84148	34.52
3.85815	34.52
3.87482	34.52
3.89148	34.52
3.90815	34.52
3.92482	34.52
3.94148	34.52
3.95815	34.52
3.97482	34.52
3.99148	34.52

[Status Trace (Column Flow)]
Interval(msec)	1000
# of Points	240
Start Time(min)	0.008
End Time(min)	3.991
Intensity Units	
Intensity Multiplier	1
R.Time (min)	Intensity
0.00815	5.49
0.02482	5.19
0.04148	5.39
0.05815	5.64
0.07482	5.67
0.09148	5.50
0.10815	5.49
0.12482	5.49
0.14148	5.49
0.15815	5.49
0.17482	5.49
0.19148	5.49
0.20815	5.49
0.22482	5.49
0.24148	5.49
0.25815	5.49
0.27482	5.49
0.29148	5.49
0.30815	5.49
0.32482	5.49
0.34148	5.49
0.35815	5.49
0.37482	5.49
0.39148	5.49
0.40815	5.49
0.42482	5.49
0.44148	5.49
0.45815	5.49
0.47482	5.49
0.49148	5.49
0.50815	5.49
0.52482	5.49
0.54148	5.49
0.55815	5.49
0.57482	5.49
0.59148	5.49
0.60815	5.49
0.62482	5.49
0.64148	5.49
0.65815	5.49
0.67482	5.49
0.69148	5.49
0.70815	5.49
0.72482	5.49
0.74148	5.49
0.75815	5.49
0.77482	5.49
0.79148	5.49
0.80815	5.49
0.82482	5.49
0.84148	5.49
0.85815	5.49
0.87482	5.49
0.89148	5.49
0.90815	5.49
0.92482	5.49
0.94148	5.49
0.95815	5.49
0.97482	5.49
0.99148	5.49
1.00815	5.49
1.02482	5.49
1.04148	5.49
1.05815	5.49
1.07482	5.49
1.09148	5.49
1.10815	5.49
1.12482	5.49
1.14148	5.49
1.15815	5.49
1.17482	5.49
1.19148	5.49
1.20815	5.49
1.22482	5.49
1.24148	5.49
1.25815	5.49
1.27482	5.49
1.29148	5.49
1.30815	5.49
1.32482	5.49
1.34148	5.49
1.35815	5.49
1.37482	5.49
1.39148	5.49
1.40815	5.49
1.42482	5.49
1.44148	5.49
1.45815	5.49
1.47482	5.49
1.49148	5.49
1.50815	5.49
1.52482	5.49
1.54148	5.49
1.55815	5.49
1.57482	5.49
1.59148	5.49
1.60815	5.49
1.62482	5.49
1.64148	5.48
1.65815	5.48
1.67482	5.47
1.69148	5.45
1.70815	5.44
1.72482	5.43
1.74148	5.42
1.75815	5.41
1.77482	5.40
1.79148	5.39
1.80815	5.38
1.82482	5.37
1.84148	5.36
1.85815	5.35
1.87482	5.34
1.89148	5.33
1.90815	5.32
1.92482	5.31
1.94148	5.30
1.95815	5.29
1.97482	5.28
1.99148	5.27
2.00815	5.26
2.02482	5.25
2.04148	5.24
2.05815	5.24
2.07482	5.23
2.09148	5.22
2.10815	5.21
2.12482	5.20
2.14148	5.19
2.15815	5.18
2.17482	5.17
2.19148	5.16
2.20815	5.15
2.22482	5.14
2.24148	5.13
2.25815	5.12
2.27482	5.11
2.29148	5.10
2.30815	5.09
2.32482	5.09
2.34148	5.08
2.35815	5.07
2.37482	5.06
2.39148	5.06
2.40815	5.06
2.42482	5.06
2.44148	5.06
2.45815	5.06
2.47482	5.06
2.49148	5.06
2.50815	5.06
2.52482	5.06
2.54148	5.06
2.55815	5.06
2.57482	5.06
2.59148	5.06
2.60815	5.06
2.62482	5.06
2.64148	5.06
2.65815	5.06
2.67482	5.06
2.69148	5.06
2.70815	5.06
2.72482	5.06
2.74148	5.06
2.75815	5.06
2.77482	5.06
2.79148	5.06
2.80815	5.06
2.82482	5.06
2.84148	5.06
2.85815	5.06
2.87482	5.06
2.89148	5.05
2.90815	5.05
2.92482	5.05
2.94148	5.05
2.95815	5.05
2.97482	5.05
2.99148	5.05
3.00815	5.05
3.02482	5.05
3.04148	5.05
3.05815	5.05
3.07482	5.05
3.09148	5.05
3.10815	5.05
3.12482	5.05
3.14148	5.05
3.15815	5.05
3.17482	5.05
3.19148	5.05
3.20815	5.05
3.22482	5.05
3.24148	5.05
3.25815	5.05
3.27482	5.05
3.29148	5.05
3.30815	5.05
3.32482	5.05
3.34148	5.05
3.35815	5.05
3.37482	5.05
3.39148	5.05
3.40815	5.05
3.42482	5.05
3.44148	5.05
3.45815	5.05
3.47482	5.05
3.49148	5.05
3.50815	5.05
3.52482	5.05
3.54148	5.05
3.55815	5.05
3.57482	5.05
3.59148	5.05
3.60815	5.05
3.62482	5.05
3.64148	5.05
3.65815	5.05
3.67482	5.05
3.69148	5.05
3.70815	5.05
3.72482	5.05
3.74148	5.05
3.75815	5.05
3.77482	5.05
3.79148	5.05
3.80815	5.05
3.82482	5.05
3.84148	5.05
3.85815	5.05
3.87482	5.05
3.89148	5.05
3.90815	5.05
3.92482	5.05
3.94148	5.05
3.95815	5.05
3.97482	5.05
3.99148	5.05

[Status Trace (Linear Velocity)]
Interval(msec)	1000
# of Points	240
Start Time(min)	0.008
End Time(min)	3.991
Intensity Units	
Intensity Multiplier	1
R.Time (min)	Intensity
0.00815	39.01
0.02482	37.30
0.04148	38.41
0.05815	39.84
0.07482	39.99
0.09148	39.05
0.10815	38.99
0.12482	39.01
0.14148	39.01
0.15815	39.01
0.17482	39.01
0.19148	39.01
0.20815	39.01
0.22482	39.01
0.24148	39.01
0.25815	39.01
0.27482	39.01
0.29148	39.01
0.30815	39.01
0.32482	39.01
0.34148	39.01
0.35815	39.01
0.37482	39.01
0.39148	39.01
0.40815	39.01
0.42482	39.01
0.44148	39.01
0.45815	39.01
0.47482	39.01
0.49148	39.01
0.50815	39.01
0.52482	39.01
0.54148	39.01
0.55815	39.01
0.57482	39.01
0.59148	39.01
0.60815	39.01
0.62482	39.01
0.64148	39.01
0.65815	39.01
0.67482	39.01
0.69148	39.01
0.70815	39.01
0.72482	39.01
0.74148	39.01
0.75815	39.01
0.77482	39.01
0.79148	39.01
0.80815	39.01
0.82482	39.01
0.84148	39.01
0.85815	39.01
0.87482	39.01
0.89148	39.01
0.90815	39.01
0.92482	39.01
0.94148	39.01
0.95815	39.01
0.97482	39.01
0.99148	39.01
1.00815	39.01
1.02482	39.01
1.04148	39.01
1.05815	39.01
1.07482	39.01
1.09148	39.01
1.10815	39.01
1.12482	39.01
1.14148	39.01
1.15815	39.01
1.17482	39.01
1.19148	39.01
1.20815	39.01
1.22482	39.01
1.24148	39.01
1.25815	39.01
1.27482	39.01
1.29148	39.01
1.30815	39.01
1.32482	39.01
1.34148	39.01
1.35815	39.01
1.37482	39.01
1.39148	39.01
1.40815	39.01
1.42482	39.01
1.44148	39.01
1.45815	39.01
1.47482	39.01
1.49148	39.01
1.50815	39.01
1.52482	39.01
1.54148	39.01
1.55815	39.01
1.57482	39.01
1.59148	39.01
1.60815	39.00
1.62482	39.00
1.64148	38.98
1.65815	38.96
1.67482	38.93
1.69148	38.89
1.70815	38.85
1.72482	38.82
1.74148	38.79
1.75815	38.76
1.77482	38.73
1.79148	38.70
1.80815	38.66
1.82482	38.63
1.84148	38.60
1.85815	38.57
1.87482	38.54
1.89148	38.51
1.90815	38.48
1.92482	38.45
1.94148	38.42
1.95815	38.39
1.97482	38.36
1.99148	38.33
2.00815	38.30
2.02482	38.27
2.04148	38.24
2.05815	38.21
2.07482	38.17
2.09148	38.15
2.10815	38.12
2.12482	38.09
2.14148	38.06
2.15815	38.03
2.17482	38.00
2.19148	37.97
2.20815	37.94
2.22482	37.91
2.24148	37.88
2.25815	37.85
2.27482	37.82
2.29148	37.79
2.30815	37.76
2.32482	37.73
2.34148	37.70
2.35815	37.68
2.37482	37.66
2.39148	37.65
2.40815	37.65
2.42482	37.65
2.44148	37.65
2.45815	37.65
2.47482	37.65
2.49148	37.65
2.50815	37.65
2.52482	37.64
2.54148	37.65
2.55815	37.65
2.57482	37.65
2.59148	37.65
2.60815	37.65
2.62482	37.64
2.64148	37.64
2.65815	37.64
2.67482	37.64
2.69148	37.64
2.70815	37.64
2.72482	37.64
2.74148	37.64
2.75815	37.64
2.77482	37.64
2.79148	37.64
2.80815	37.64
2.82482	37.64
2.84148	37.64
2.85815	37.64
2.87482	37.63
2.89148	37.63
2.90815	37.63
2.92482	37.63
2.94148	37.63
2.95815	37.63
2.97482	37.63
2.99148	37.63
3.00815	37.63
3.02482	37.63
3.04148	37.63
3.05815	37.62
3.07482	37.62
3.09148	37.62
3.10815	37.62
3.12482	37.62
3.14148	37.62
3.15815	37.62
3.17482	37.62
3.19148	37.62
3.20815	37.62
3.22482	37.62
3.24148	37.62
3.25815	37.62
3.27482	37.62
3.29148	37.62
3.30815	37.62
3.32482	37.62
3.34148	37.62
3.35815	37.62
3.37482	37.62
3.39148	37.62
3.40815	37.62
3.42482	37.62
3.44148	37.62
3.45815	37.62
3.47482	37.62
3.49148	37.62
3.50815	37.62
3.52482	37.62
3.54148	37.62
3.55815	37.62
3.57482	37.62
3.59148	37.62
3.60815	37.62
3.62482	37.62
3.64148	37.62
3.65815	37.62
3.67482	37.62
3.69148	37.62
3.70815	37.62
3.72482	37.62
3.74148	37.62
3.75815	37.62
3.77482	37.62
3.79148	37.62
3.80815	37.62
3.82482	37.62
3.84148	37.62
3.85815	37.62
3.87482	37.62
3.89148	37.62
3.90815	37.62
3.92482	37.62
3.94148	37.62
3.95815	37.62
3.97482	37.62
3.99148	37.62

