[Header]
Application Name	LabSolutions
Version	5.110
Data File Name	C:\Users\User\Desktop\Junior\UIC Prairie Sampling\7.18.23\071823_005.gcd
Output Date	8/29/2023
Output Time	10:40:19 AM

[File Information]
Type	Data File
Generated	8/28/2023 2:44:15 PM
Generated by	System Administrator
Modified	8/28/2023 2:50:55 PM
Modified by	System Administrator

[Sample Information]
Operator Name	System Administrator
Acquired	8/28/2023 2:46:54 PM
Sample Type	0:Unknown
Level	0
Sample Name	005
Sample ID	005
ISTD Amount1	1
ISTD Amount2	1
ISTD Amount3	1
ISTD Amount4	1
ISTD Amount5	1
ISTD Amount6	1
ISTD Amount7	1
ISTD Amount8	1
ISTD Amount9	1
ISTD Amount10	1
ISTD Amount11	1
ISTD Amount12	1
ISTD Amount13	1
ISTD Amount14	1
ISTD Amount15	1
ISTD Amount16	1
ISTD Amount17	1
ISTD Amount18	1
ISTD Amount19	1
ISTD Amount20	1
ISTD Amount21	1
ISTD Amount22	1
ISTD Amount23	1
ISTD Amount24	1
ISTD Amount25	1
ISTD Amount26	1
ISTD Amount27	1
ISTD Amount28	1
ISTD Amount29	1
ISTD Amount30	1
ISTD Amount31	1
ISTD Amount32	1
Sample Amount	1
Dilution Factor	1
Vial#	4
Injection Volume	1
Injection Count	1
Bar Code	

[Original Files]
Data File	C:\Users\User\Desktop\Junior\UIC Prairie Sampling\7.18.23\071823_005.gcd
Method File	C:\LabSolutions\Data\GHG_4min_2022\ghg3_togas_w_acet_4 min_new_int.gcm
Batch File	C:\LabSolutions\Data\BATCH FILES\071823.gcb
Report Format File	c:\LabSolutions\System\DEFAULT.lsr

[File Description]


[Configuration]
Instrument Name	C0B7VH3-Instrument1
Instrument #	1
Line #	1
# of Detectors	3
Detector ID	DET#1	DET#2	DET#3
Detector Name	FID	PTCD	ECD
# of Channels	1	1	1

[Peak Table(Ch1)]
# of Peaks	3
Peak#	R.Time	I.Time	F.Time	Area	Height	A/H	Conc.	Mark	ID#	Name	k'	Plate #	Plate Ht.	Tailing	Resolution	Sep.Factor	Area Ratio	Height Ratio	Conc. %	Norm Conc.
1	1.476	1.421	1.527	2435	1216	2.002	0.000	   	1	CO	0.000	9975	15.037	1.169	0.000	0.000	0	0	0.000	0.000
2	1.564	1.527	1.644	19375	9908	1.956	94.460	 V 	2	CH4	0.060	11663	12.861	1.167	1.504	0.000	0	0	19.796	19.796
3	1.989	1.945	2.594	1985869	954769	2.080	382.713	   	3	CO2	0.348	17534	8.555	1.308	7.209	5.833	0	0	80.204	80.204

[Peak Table(Ch2)]
# of Peaks	0

[Peak Table(Ch3)]
# of Peaks	5
Peak#	R.Time	I.Time	F.Time	Area	Height	A/H	Conc.	Mark	ID#	Name	k'	Plate #	Plate Ht.	Tailing	Resolution	Sep.Factor	Area Ratio	Height Ratio	Conc. %	Norm Conc.
1	2.466	2.396	2.550	1138	261	4.367	0.000	   			0.000	6127	24.482	0.000	0.000	0.000	0	0	0.000	0.000
2	2.583	2.550	2.667	482	124	3.880	0.000	 V 			0.048	5511	27.221	0.000	0.885	0.000	0	0	0.000	0.000
3	2.777	2.700	2.821	237	54	4.407	0.004	   	1	N2O	0.126	7880	19.036	0.000	1.470	2.656	0	0	0.539	0.539
4	2.891	2.821	3.250	43676	11409	3.828	0.646	 V 	1	N2O	0.173	13105	11.446	1.597	1.005	1.365	0	0	99.461	99.461
5	3.346	3.261	3.980	10860	571	19.026	0.000	   			0.357	881	170.193	4.310	1.648	2.069	0	0	0.000	0.000

[Compound Results(Ch1)]
# of IDs	6
ID#	Name	R.Time	Area	Height	Conc.	Curve	3rd	2nd	1st	Constant	Area Ratio	Height Ratio	Conc. %	Norm Conc.
1	CO	1.476	2435	1216	0.000	Linear	0.000000e+00	0.000000e+00	0.000000e+00	0.000000e+00	0	0	0.000	0.000
2	CH4	1.564	19375	9908	94.460	Linear	0.000000e+00	0.000000e+00	2.051179e+002	0.000000e+00	0	0	19.796	19.796
3	CO2	1.989	1985869	954769	382.713	Linear	0.000000e+00	0.000000e+00	5.188919e+003	0.000000e+00	0	0	80.204	80.204
4	Ethylene	0.000	0	0	0.000	Linear	0.000000e+00	0.000000e+00	0.000000e+00	0.000000e+00	0	0	0.000	0.000
5	Acetylene	0.000	0	0	0.000	Linear	0.000000e+00	0.000000e+00	0.000000e+00	0.000000e+00	0	0	0.000	0.000
6	Ethane	0.000	0	0	0.000	Linear	0.000000e+00	0.000000e+00	0.000000e+00	0.000000e+00	0	0	0.000	0.000

[Compound Results(Ch2)]
# of IDs	5
ID#	Name	R.Time	Area	Height	Conc.	Curve	3rd	2nd	1st	Constant	Area Ratio	Height Ratio	Conc. %	Norm Conc.
1	Hydrogen	0.000	0	0	0.000	Linear	0.000000e+00	0.000000e+00	0.000000e+00	0.000000e+00	0	0	0.000	0.000
2	Oxygen	0.000	0	0	0.000	Linear	0.000000e+00	0.000000e+00	0.000000e+00	0.000000e+00	0	0	0.000	0.000
3	Nitrogen	0.000	0	0	0.000	Linear	0.000000e+00	0.000000e+00	0.000000e+00	0.000000e+00	0	0	0.000	0.000
4	Methane	0.000	0	0	0.000	Linear	0.000000e+00	0.000000e+00	0.000000e+00	0.000000e+00	0	0	0.000	0.000
5	Carbon Monoxide	0.000	0	0	0.000	Linear	0.000000e+00	0.000000e+00	0.000000e+00	0.000000e+00	0	0	0.000	0.000

[Compound Results(Ch3)]
# of IDs	2
ID#	Name	R.Time	Area	Height	Conc.	Curve	3rd	2nd	1st	Constant	Area Ratio	Height Ratio	Conc. %	Norm Conc.
1	N2O	2.891	43913	11463	0.650	Linear	0.000000e+00	0.000000e+00	6.759880e+004	0.000000e+00	0	0	100.000	100.000
2	SF6	0.000	0	0	0.000	Linear	0.000000e+00	0.000000e+00	0.000000e+00	0.000000e+00	0	0	0.000	0.000

[Group Results(Ch1)]
# of Groups	0

[Group Results(Ch2)]
# of Groups	0

[Group Results(Ch3)]
# of Groups	0

[Chromatogram (Ch1)]
Interval(msec)	220
# of Points	1091
Start Time(min)	0.002
End Time(min)	3.998
R.Time (min)	Intensity
0.00167	18
0.00533	12
0.00900	1
0.01267	-12
0.01633	-24
0.02000	-33
0.02367	-36
0.02733	-36
0.03100	-37
0.03467	-40
0.03833	-37
0.04200	-31
0.04567	-25
0.04933	-22
0.05300	-19
0.05667	-16
0.06033	-13
0.06400	-14
0.06767	-16
0.07133	-19
0.07500	-22
0.07867	-22
0.08233	-21
0.08600	-20
0.08967	-18
0.09333	-17
0.09700	-18
0.10067	-22
0.10433	-25
0.10800	-28
0.11167	-29
0.11533	-30
0.11900	-28
0.12267	-26
0.12633	-24
0.13000	-23
0.13367	-22
0.13733	-20
0.14100	-17
0.14467	-17
0.14833	-17
0.15200	-15
0.15567	-16
0.15933	-17
0.16300	-17
0.16667	-15
0.17033	-14
0.17400	-16
0.17767	-17
0.18133	-14
0.18500	-11
0.18867	-11
0.19233	-14
0.19600	-16
0.19967	-16
0.20333	-16
0.20700	-16
0.21067	-15
0.21433	-12
0.21800	-9
0.22167	-8
0.22533	-12
0.22900	-17
0.23267	-21
0.23633	-22
0.24000	-20
0.24367	-17
0.24733	-15
0.25100	-14
0.25467	-17
0.25833	-22
0.26200	-24
0.26567	-25
0.26933	-25
0.27300	-24
0.27667	-22
0.28033	-20
0.28400	-15
0.28767	-8
0.29133	-3
0.29500	-3
0.29867	-5
0.30233	-8
0.30600	-10
0.30967	-13
0.31333	-15
0.31700	-18
0.32067	-19
0.32433	-18
0.32800	-19
0.33167	-24
0.33533	-31
0.33900	-39
0.34267	-42
0.34633	-35
0.35000	-22
0.35367	-9
0.35733	-2
0.36100	-1
0.36467	-3
0.36833	-8
0.37200	-13
0.37567	-16
0.37933	-18
0.38300	-18
0.38667	-18
0.39033	-17
0.39400	-16
0.39767	-16
0.40133	-19
0.40500	-24
0.40867	-29
0.41233	-31
0.41600	-32
0.41967	-32
0.42333	-33
0.42700	-36
0.43067	-38
0.43433	-38
0.43800	-38
0.44167	-38
0.44533	-38
0.44900	-34
0.45267	-32
0.45633	-32
0.46000	-30
0.46367	-26
0.46733	-21
0.47100	-17
0.47467	-12
0.47833	-10
0.48200	-12
0.48567	-16
0.48933	-19
0.49300	-17
0.49667	-18
0.50033	-21
0.50400	-25
0.50767	-29
0.51133	-32
0.51500	-36
0.51867	-40
0.52233	-40
0.52600	-38
0.52967	-39
0.53333	-41
0.53700	-42
0.54067	-40
0.54433	-38
0.54800	-34
0.55167	-29
0.55533	-26
0.55900	-26
0.56267	-27
0.56633	-25
0.57000	-19
0.57367	-11
0.57733	-4
0.58100	-2
0.58467	-4
0.58833	-4
0.59200	-5
0.59567	-9
0.59933	-17
0.60300	-24
0.60667	-30
0.61033	-35
0.61400	-40
0.61767	-44
0.62133	-48
0.62500	-52
0.62867	-54
0.63233	-51
0.63600	-47
0.63967	-42
0.64333	-37
0.64700	-34
0.65067	-31
0.65433	-27
0.65800	-21
0.66167	-18
0.66533	-20
0.66900	-24
0.67267	-24
0.67633	-23
0.68000	-20
0.68367	-15
0.68733	-12
0.69100	-11
0.69467	-17
0.69833	-26
0.70200	-36
0.70567	-41
0.70933	-41
0.71300	-42
0.71667	-40
0.72033	-36
0.72400	-32
0.72767	-28
0.73133	-26
0.73500	-23
0.73867	-22
0.74233	-21
0.74600	-21
0.74967	-24
0.75333	-27
0.75700	-28
0.76067	-29
0.76433	-35
0.76800	-43
0.77167	-52
0.77533	-60
0.77900	-66
0.78267	-68
0.78633	-66
0.79000	-65
0.79367	-63
0.79733	-59
0.80100	-53
0.80467	-47
0.80833	-43
0.81200	-41
0.81567	-42
0.81933	-40
0.82300	-33
0.82667	-25
0.83033	-18
0.83400	-17
0.83767	-22
0.84133	-27
0.84500	-33
0.84867	-35
0.85233	-35
0.85600	-36
0.85967	-42
0.86333	-50
0.86700	-58
0.87067	-63
0.87433	-62
0.87800	-62
0.88167	-60
0.88533	-57
0.88900	-52
0.89267	-45
0.89633	-41
0.90000	-40
0.90367	-41
0.90733	-41
0.91100	-44
0.91467	-49
0.91833	-55
0.92200	-63
0.92567	-68
0.92933	-68
0.93300	-65
0.93667	-61
0.94033	-56
0.94400	-52
0.94767	-51
0.95133	-51
0.95500	-54
0.95867	-58
0.96233	-62
0.96600	-66
0.96967	-71
0.97333	-73
0.97700	-72
0.98067	-72
0.98433	-73
0.98800	-70
0.99167	-68
0.99533	-70
0.99900	-73
1.00267	-70
1.00633	-62
1.01000	-54
1.01367	-46
1.01733	-42
1.02100	-43
1.02467	-49
1.02833	-57
1.03200	-62
1.03567	-62
1.03933	-58
1.04300	-54
1.04667	-51
1.05033	-50
1.05400	-55
1.05767	-62
1.06133	-67
1.06500	-69
1.06867	-65
1.07233	-60
1.07600	-58
1.07967	-59
1.08333	-61
1.08700	-62
1.09067	-63
1.09433	-66
1.09800	-69
1.10167	-73
1.10533	-77
1.10900	-79
1.11267	-80
1.11633	-78
1.12000	-75
1.12367	-70
1.12733	-64
1.13100	-61
1.13467	-61
1.13833	-61
1.14200	-64
1.14567	-69
1.14933	-72
1.15300	-75
1.15667	-78
1.16033	-78
1.16400	-74
1.16767	-70
1.17133	-67
1.17500	-65
1.17867	-64
1.18233	-66
1.18600	-69
1.18967	-71
1.19333	-72
1.19700	-71
1.20067	-70
1.20433	-71
1.20800	-75
1.21167	-77
1.21533	-72
1.21900	-65
1.22267	-62
1.22633	-68
1.23000	-75
1.23367	-78
1.23733	-79
1.24100	-80
1.24467	-79
1.24833	-76
1.25200	-74
1.25567	-75
1.25933	-77
1.26300	-78
1.26667	-76
1.27033	-71
1.27400	-67
1.27767	-65
1.28133	-63
1.28500	-60
1.28867	-58
1.29233	-59
1.29600	-64
1.29967	-70
1.30333	-76
1.30700	-80
1.31067	-81
1.31433	-80
1.31800	-81
1.32167	-82
1.32533	-84
1.32900	-86
1.33267	-87
1.33633	-85
1.34000	-81
1.34367	-81
1.34733	-83
1.35100	-86
1.35467	-90
1.35833	-93
1.36200	-92
1.36567	-87
1.36933	-84
1.37300	-82
1.37667	-79
1.38033	-80
1.38400	-82
1.38767	-84
1.39133	-86
1.39500	-88
1.39867	-92
1.40233	-94
1.40600	-92
1.40967	-87
1.41333	-85
1.41700	-82
1.42067	-79
1.42433	-74
1.42800	-72
1.43167	-72
1.43533	-68
1.43900	-55
1.44267	-47
1.44633	-34
1.45000	49
1.45367	223
1.45733	446
1.46100	668
1.46467	866
1.46833	1025
1.47200	1125
1.47567	1137
1.47933	1049
1.48300	883
1.48667	686
1.49033	497
1.49400	338
1.49767	213
1.50133	124
1.50500	63
1.50867	23
1.51233	-8
1.51600	-31
1.51967	-47
1.52333	-59
1.52700	-63
1.53067	-37
1.53433	120
1.53800	656
1.54167	1822
1.54533	3572
1.54900	5539
1.55267	7332
1.55633	8729
1.56000	9605
1.56367	9828
1.56733	9297
1.57100	8091
1.57467	6508
1.57833	4894
1.58200	3492
1.58567	2395
1.58933	1594
1.59300	1034
1.59667	653
1.60033	398
1.60400	229
1.60767	120
1.61133	52
1.61500	10
1.61867	-15
1.62233	-29
1.62600	-39
1.62967	-50
1.63333	-61
1.63700	-69
1.64067	-75
1.64433	-80
1.64800	-78
1.65167	-71
1.65533	-64
1.65900	-62
1.66267	-63
1.66633	-66
1.67000	-72
1.67367	-77
1.67733	-82
1.68100	-85
1.68467	-88
1.68833	-91
1.69200	-92
1.69567	-92
1.69933	-95
1.70300	-99
1.70667	-101
1.71033	-104
1.71400	-105
1.71767	-107
1.72133	-108
1.72500	-104
1.72867	-97
1.73233	-89
1.73600	-88
1.73967	-91
1.74333	-92
1.74700	-93
1.75067	-94
1.75433	-97
1.75800	-102
1.76167	-105
1.76533	-105
1.76900	-101
1.77267	-99
1.77633	-101
1.78000	-105
1.78367	-106
1.78733	-103
1.79100	-99
1.79467	-94
1.79833	-92
1.80200	-92
1.80567	-95
1.80933	-98
1.81300	-101
1.81667	-106
1.82033	-111
1.82400	-114
1.82767	-115
1.83133	-114
1.83500	-114
1.83867	-115
1.84233	-117
1.84600	-117
1.84967	-116
1.85333	-111
1.85700	-102
1.86067	-94
1.86433	-88
1.86800	-86
1.87167	-89
1.87533	-92
1.87900	-93
1.88267	-92
1.88633	-91
1.89000	-94
1.89367	-100
1.89733	-106
1.90100	-109
1.90467	-108
1.90833	-108
1.91200	-107
1.91567	-102
1.91933	-97
1.92300	-95
1.92667	-94
1.93033	-93
1.93400	-92
1.93767	-91
1.94133	-91
1.94500	-81
1.94867	24
1.95233	708
1.95600	4123
1.95967	16786
1.96333	52336
1.96700	129021
1.97067	257688
1.97433	428811
1.97800	614069
1.98167	779851
1.98533	899113
1.98900	954701
1.99267	940718
1.99633	863624
2.00000	741656
2.00367	599307
2.00733	459549
2.01100	337891
2.01467	240921
2.01833	168430
2.02200	116641
2.02567	80768
2.02933	56405
2.03300	40032
2.03667	29059
2.04033	21678
2.04400	16667
2.04767	13212
2.05133	10785
2.05500	9040
2.05867	7751
2.06233	6774
2.06600	6014
2.06967	5409
2.07333	4918
2.07700	4507
2.08067	4156
2.08433	3851
2.08800	3587
2.09167	3359
2.09533	3161
2.09900	2985
2.10267	2826
2.10633	2683
2.11000	2554
2.11367	2432
2.11733	2319
2.12100	2214
2.12467	2117
2.12833	2028
2.13200	1945
2.13567	1864
2.13933	1790
2.14300	1722
2.14667	1660
2.15033	1599
2.15400	1540
2.15767	1487
2.16133	1438
2.16500	1392
2.16867	1348
2.17233	1305
2.17600	1263
2.17967	1222
2.18333	1181
2.18700	1139
2.19067	1098
2.19433	1062
2.19800	1030
2.20167	1003
2.20533	979
2.20900	957
2.21267	932
2.21633	905
2.22000	878
2.22367	855
2.22733	835
2.23100	815
2.23467	795
2.23833	775
2.24200	757
2.24567	740
2.24933	726
2.25300	714
2.25667	701
2.26033	685
2.26400	669
2.26767	654
2.27133	635
2.27500	618
2.27867	601
2.28233	588
2.28600	577
2.28967	567
2.29333	558
2.29700	547
2.30067	533
2.30433	518
2.30800	507
2.31167	497
2.31533	489
2.31900	480
2.32267	469
2.32633	458
2.33000	449
2.33367	441
2.33733	433
2.34100	426
2.34467	420
2.34833	409
2.35200	399
2.35567	395
2.35933	393
2.36300	391
2.36667	385
2.37033	375
2.37400	365
2.37767	354
2.38133	345
2.38500	338
2.38867	331
2.39233	324
2.39600	319
2.39967	314
2.40333	310
2.40700	309
2.41067	308
2.41433	304
2.41800	299
2.42167	290
2.42533	280
2.42900	273
2.43267	269
2.43633	267
2.44000	265
2.44367	266
2.44733	268
2.45100	270
2.45467	266
2.45833	258
2.46200	249
2.46567	241
2.46933	232
2.47300	223
2.47667	218
2.48033	216
2.48400	216
2.48767	217
2.49133	220
2.49500	223
2.49867	221
2.50233	214
2.50600	204
2.50967	192
2.51333	182
2.51700	176
2.52067	172
2.52433	169
2.52800	169
2.53167	170
2.53533	171
2.53900	168
2.54267	163
2.54633	157
2.55000	154
2.55367	154
2.55733	152
2.56100	149
2.56467	148
2.56833	150
2.57200	151
2.57567	149
2.57933	142
2.58300	132
2.58667	120
2.59033	112
2.59400	107
2.59767	102
2.60133	98
2.60500	94
2.60867	93
2.61233	96
2.61600	100
2.61967	103
2.62333	105
2.62700	108
2.63067	111
2.63433	110
2.63800	104
2.64167	98
2.64533	93
2.64900	89
2.65267	87
2.65633	86
2.66000	85
2.66367	85
2.66733	84
2.67100	83
2.67467	84
2.67833	86
2.68200	86
2.68567	87
2.68933	87
2.69300	86
2.69667	84
2.70033	82
2.70400	78
2.70767	76
2.71133	75
2.71500	72
2.71867	69
2.72233	65
2.72600	57
2.72967	49
2.73333	45
2.73700	47
2.74067	54
2.74433	61
2.74800	67
2.75167	71
2.75533	73
2.75900	73
2.76267	71
2.76633	68
2.77000	63
2.77367	56
2.77733	48
2.78100	42
2.78467	38
2.78833	34
2.79200	30
2.79567	30
2.79933	33
2.80300	39
2.80667	47
2.81033	53
2.81400	57
2.81767	57
2.82133	55
2.82500	52
2.82867	48
2.83233	42
2.83600	35
2.83967	31
2.84333	28
2.84700	27
2.85067	24
2.85433	23
2.85800	22
2.86167	19
2.86533	13
2.86900	9
2.87267	11
2.87633	13
2.88000	15
2.88367	18
2.88733	20
2.89100	19
2.89467	17
2.89833	13
2.90200	8
2.90567	5
2.90933	5
2.91300	4
2.91667	-0
2.92033	-6
2.92400	-11
2.92767	-11
2.93133	-9
2.93500	-9
2.93867	-12
2.94233	-14
2.94600	-15
2.94967	-15
2.95333	-15
2.95700	-16
2.96067	-14
2.96433	-10
2.96800	-9
2.97167	-9
2.97533	-7
2.97900	-2
2.98267	2
2.98633	8
2.99000	12
2.99367	9
2.99733	5
3.00100	1
3.00467	-4
3.00833	-10
3.01200	-13
3.01567	-14
3.01933	-11
3.02300	-7
3.02667	-5
3.03033	-5
3.03400	-5
3.03767	-7
3.04133	-10
3.04500	-12
3.04867	-14
3.05233	-16
3.05600	-17
3.05967	-17
3.06333	-17
3.06700	-18
3.07067	-21
3.07433	-22
3.07800	-22
3.08167	-23
3.08533	-25
3.08900	-27
3.09267	-25
3.09633	-23
3.10000	-20
3.10367	-18
3.10733	-18
3.11100	-20
3.11467	-20
3.11833	-19
3.12200	-17
3.12567	-15
3.12933	-14
3.13300	-18
3.13667	-23
3.14033	-28
3.14400	-33
3.14767	-38
3.15133	-40
3.15500	-37
3.15867	-31
3.16233	-25
3.16600	-20
3.16967	-15
3.17333	-13
3.17700	-16
3.18067	-23
3.18433	-29
3.18800	-34
3.19167	-40
3.19533	-46
3.19900	-49
3.20267	-52
3.20633	-55
3.21000	-55
3.21367	-53
3.21733	-49
3.22100	-44
3.22467	-39
3.22833	-36
3.23200	-34
3.23567	-35
3.23933	-39
3.24300	-44
3.24667	-49
3.25033	-53
3.25400	-55
3.25767	-53
3.26133	-50
3.26500	-45
3.26867	-38
3.27233	-32
3.27600	-25
3.27967	-22
3.28333	-24
3.28700	-30
3.29067	-37
3.29433	-42
3.29800	-44
3.30167	-49
3.30533	-50
3.30900	-48
3.31267	-46
3.31633	-44
3.32000	-44
3.32367	-42
3.32733	-42
3.33100	-43
3.33467	-46
3.33833	-48
3.34200	-53
3.34567	-58
3.34933	-63
3.35300	-65
3.35667	-66
3.36033	-65
3.36400	-64
3.36767	-65
3.37133	-65
3.37500	-65
3.37867	-65
3.38233	-60
3.38600	-56
3.38967	-57
3.39333	-59
3.39700	-61
3.40067	-62
3.40433	-62
3.40800	-61
3.41167	-59
3.41533	-57
3.41900	-56
3.42267	-57
3.42633	-58
3.43000	-58
3.43367	-59
3.43733	-60
3.44100	-61
3.44467	-60
3.44833	-58
3.45200	-58
3.45567	-57
3.45933	-54
3.46300	-51
3.46667	-50
3.47033	-53
3.47400	-58
3.47767	-63
3.48133	-67
3.48500	-72
3.48867	-72
3.49233	-68
3.49600	-63
3.49967	-55
3.50333	-49
3.50700	-47
3.51067	-53
3.51433	-64
3.51800	-70
3.52167	-70
3.52533	-71
3.52900	-74
3.53267	-76
3.53633	-73
3.54000	-66
3.54367	-58
3.54733	-55
3.55100	-57
3.55467	-61
3.55833	-66
3.56200	-71
3.56567	-77
3.56933	-80
3.57300	-80
3.57667	-78
3.58033	-75
3.58400	-75
3.58767	-76
3.59133	-78
3.59500	-79
3.59867	-77
3.60233	-74
3.60600	-75
3.60967	-78
3.61333	-80
3.61700	-80
3.62067	-78
3.62433	-76
3.62800	-73
3.63167	-68
3.63533	-64
3.63900	-59
3.64267	-56
3.64633	-59
3.65000	-66
3.65367	-75
3.65733	-84
3.66100	-88
3.66467	-88
3.66833	-85
3.67200	-82
3.67567	-80
3.67933	-81
3.68300	-85
3.68667	-88
3.69033	-90
3.69400	-92
3.69767	-93
3.70133	-93
3.70500	-94
3.70867	-95
3.71233	-96
3.71600	-96
3.71967	-91
3.72333	-83
3.72700	-79
3.73067	-78
3.73433	-79
3.73800	-82
3.74167	-88
3.74533	-95
3.74900	-102
3.75267	-107
3.75633	-110
3.76000	-109
3.76367	-107
3.76733	-107
3.77100	-107
3.77467	-106
3.77833	-103
3.78200	-100
3.78567	-96
3.78933	-88
3.79300	-80
3.79667	-78
3.80033	-81
3.80400	-87
3.80767	-92
3.81133	-91
3.81500	-87
3.81867	-86
3.82233	-87
3.82600	-90
3.82967	-94
3.83333	-94
3.83700	-91
3.84067	-88
3.84433	-87
3.84800	-84
3.85167	-81
3.85533	-81
3.85900	-80
3.86267	-79
3.86633	-75
3.87000	-72
3.87367	-73
3.87733	-73
3.88100	-75
3.88467	-80
3.88833	-87
3.89200	-92
3.89567	-93
3.89933	-94
3.90300	-94
3.90667	-92
3.91033	-90
3.91400	-90
3.91767	-93
3.92133	-96
3.92500	-101
3.92867	-105
3.93233	-105
3.93600	-103
3.93967	-98
3.94333	-94
3.94700	-90
3.95067	-89
3.95433	-88
3.95800	-89
3.96167	-94
3.96533	-102
3.96900	-110
3.97267	-114
3.97633	-112
3.98000	-106
3.98367	-103
3.98733	-102
3.99100	-101
3.99467	-99
3.99833	-97

[Chromatogram (Ch2)]
Interval(msec)	220
# of Points	1091
Start Time(min)	0.002
End Time(min)	3.998
R.Time (min)	Intensity
0.00167	-1
0.00533	-1
0.00900	-1
0.01267	-1
0.01633	-1
0.02000	-1
0.02367	-1
0.02733	-0
0.03100	-0
0.03467	0
0.03833	0
0.04200	1
0.04567	1
0.04933	1
0.05300	1
0.05667	1
0.06033	1
0.06400	1
0.06767	1
0.07133	1
0.07500	1
0.07867	2
0.08233	2
0.08600	2
0.08967	2
0.09333	2
0.09700	2
0.10067	3
0.10433	3
0.10800	3
0.11167	3
0.11533	3
0.11900	3
0.12267	4
0.12633	4
0.13000	4
0.13367	4
0.13733	4
0.14100	3
0.14467	3
0.14833	3
0.15200	2
0.15567	2
0.15933	2
0.16300	1
0.16667	1
0.17033	1
0.17400	1
0.17767	1
0.18133	1
0.18500	1
0.18867	1
0.19233	2
0.19600	2
0.19967	2
0.20333	2
0.20700	2
0.21067	1
0.21433	1
0.21800	1
0.22167	1
0.22533	1
0.22900	1
0.23267	1
0.23633	1
0.24000	1
0.24367	1
0.24733	1
0.25100	2
0.25467	2
0.25833	2
0.26200	2
0.26567	2
0.26933	2
0.27300	2
0.27667	2
0.28033	2
0.28400	2
0.28767	1
0.29133	1
0.29500	1
0.29867	1
0.30233	1
0.30600	0
0.30967	0
0.31333	0
0.31700	-0
0.32067	-0
0.32433	-0
0.32800	-0
0.33167	-0
0.33533	-0
0.33900	-0
0.34267	-0
0.34633	-1
0.35000	-0
0.35367	-0
0.35733	-0
0.36100	-0
0.36467	0
0.36833	0
0.37200	0
0.37567	0
0.37933	0
0.38300	0
0.38667	-0
0.39033	-0
0.39400	-0
0.39767	0
0.40133	-0
0.40500	-0
0.40867	-0
0.41233	-1
0.41600	-1
0.41967	-1
0.42333	-1
0.42700	-1
0.43067	-1
0.43433	-1
0.43800	-1
0.44167	-1
0.44533	-1
0.44900	-1
0.45267	-0
0.45633	-0
0.46000	-0
0.46367	-0
0.46733	-0
0.47100	-0
0.47467	-0
0.47833	-0
0.48200	-0
0.48567	-0
0.48933	-0
0.49300	-0
0.49667	-0
0.50033	-0
0.50400	-0
0.50767	-0
0.51133	-0
0.51500	-0
0.51867	-0
0.52233	-0
0.52600	-0
0.52967	-0
0.53333	-0
0.53700	-0
0.54067	-1
0.54433	-1
0.54800	-1
0.55167	-1
0.55533	-1
0.55900	-2
0.56267	-2
0.56633	-2
0.57000	-2
0.57367	-1
0.57733	-2
0.58100	-2
0.58467	-2
0.58833	-2
0.59200	-2
0.59567	-2
0.59933	-2
0.60300	-2
0.60667	-2
0.61033	-2
0.61400	-2
0.61767	-2
0.62133	-2
0.62500	-1
0.62867	-1
0.63233	-1
0.63600	-1
0.63967	-1
0.64333	-1
0.64700	-1
0.65067	-1
0.65433	-0
0.65800	-0
0.66167	0
0.66533	0
0.66900	1
0.67267	1
0.67633	1
0.68000	1
0.68367	1
0.68733	1
0.69100	1
0.69467	1
0.69833	1
0.70200	1
0.70567	1
0.70933	1
0.71300	1
0.71667	1
0.72033	1
0.72400	1
0.72767	1
0.73133	1
0.73500	1
0.73867	1
0.74233	1
0.74600	2
0.74967	2
0.75333	2
0.75700	2
0.76067	1
0.76433	1
0.76800	1
0.77167	0
0.77533	0
0.77900	0
0.78267	0
0.78633	0
0.79000	0
0.79367	0
0.79733	0
0.80100	0
0.80467	-0
0.80833	-0
0.81200	-1
0.81567	-1
0.81933	-1
0.82300	-1
0.82667	-1
0.83033	-2
0.83400	-2
0.83767	-1
0.84133	-1
0.84500	-1
0.84867	-1
0.85233	-1
0.85600	-1
0.85967	-1
0.86333	-1
0.86700	-1
0.87067	-1
0.87433	-1
0.87800	-1
0.88167	-1
0.88533	-1
0.88900	-1
0.89267	-1
0.89633	-1
0.90000	-1
0.90367	-0
0.90733	-0
0.91100	-0
0.91467	-0
0.91833	-0
0.92200	-0
0.92567	0
0.92933	0
0.93300	0
0.93667	-0
0.94033	-0
0.94400	-0
0.94767	-0
0.95133	-1
0.95500	-1
0.95867	-1
0.96233	-1
0.96600	-1
0.96967	-1
0.97333	-1
0.97700	-0
0.98067	-0
0.98433	-0
0.98800	-0
0.99167	-0
0.99533	-0
0.99900	-1
1.00267	-1
1.00633	-0
1.01000	-0
1.01367	-0
1.01733	-0
1.02100	-0
1.02467	-0
1.02833	0
1.03200	0
1.03567	0
1.03933	0
1.04300	0
1.04667	0
1.05033	0
1.05400	0
1.05767	0
1.06133	0
1.06500	0
1.06867	-0
1.07233	-0
1.07600	-0
1.07967	-1
1.08333	-1
1.08700	-1
1.09067	-1
1.09433	-2
1.09800	-2
1.10167	-2
1.10533	-3
1.10900	-3
1.11267	-3
1.11633	-3
1.12000	-3
1.12367	-3
1.12733	-3
1.13100	-3
1.13467	-2
1.13833	-2
1.14200	-2
1.14567	-2
1.14933	-2
1.15300	-1
1.15667	-1
1.16033	-1
1.16400	-1
1.16767	-1
1.17133	-1
1.17500	-1
1.17867	-1
1.18233	-1
1.18600	-1
1.18967	-1
1.19333	-0
1.19700	-0
1.20067	0
1.20433	0
1.20800	1
1.21167	1
1.21533	1
1.21900	1
1.22267	1
1.22633	1
1.23000	0
1.23367	-0
1.23733	-1
1.24100	-1
1.24467	-1
1.24833	-1
1.25200	-1
1.25567	-1
1.25933	-1
1.26300	-1
1.26667	-1
1.27033	-0
1.27400	-0
1.27767	-0
1.28133	-1
1.28500	-1
1.28867	-1
1.29233	-1
1.29600	-1
1.29967	-1
1.30333	-1
1.30700	-1
1.31067	-1
1.31433	-1
1.31800	-1
1.32167	-1
1.32533	-1
1.32900	-1
1.33267	-1
1.33633	-1
1.34000	-1
1.34367	-1
1.34733	-1
1.35100	-1
1.35467	-2
1.35833	-2
1.36200	-2
1.36567	-2
1.36933	-2
1.37300	-2
1.37667	-2
1.38033	-2
1.38400	-2
1.38767	-2
1.39133	-2
1.39500	-2
1.39867	-2
1.40233	-2
1.40600	-2
1.40967	-2
1.41333	-2
1.41700	-2
1.42067	-2
1.42433	-2
1.42800	-2
1.43167	-2
1.43533	-2
1.43900	-2
1.44267	-2
1.44633	-2
1.45000	-2
1.45367	-1
1.45733	-1
1.46100	-1
1.46467	-1
1.46833	-1
1.47200	-1
1.47567	-1
1.47933	-1
1.48300	-1
1.48667	-2
1.49033	-2
1.49400	-2
1.49767	-2
1.50133	-2
1.50500	-2
1.50867	-2
1.51233	-2
1.51600	-2
1.51967	-2
1.52333	-2
1.52700	-3
1.53067	-2
1.53433	-2
1.53800	-2
1.54167	-2
1.54533	-2
1.54900	-2
1.55267	-1
1.55633	-1
1.56000	-2
1.56367	-2
1.56733	-2
1.57100	-2
1.57467	-2
1.57833	-2
1.58200	-1
1.58567	-2
1.58933	-2
1.59300	-2
1.59667	-3
1.60033	-4
1.60400	-5
1.60767	-7
1.61133	-8
1.61500	-10
1.61867	-12
1.62233	-14
1.62600	-17
1.62967	-20
1.63333	-22
1.63700	-25
1.64067	-28
1.64433	-32
1.64800	-35
1.65167	-38
1.65533	-42
1.65900	-46
1.66267	-49
1.66633	-54
1.67000	-58
1.67367	-63
1.67733	-68
1.68100	-72
1.68467	-76
1.68833	-80
1.69200	-83
1.69567	-85
1.69933	-87
1.70300	-88
1.70667	-90
1.71033	-90
1.71400	-91
1.71767	-92
1.72133	-93
1.72500	-94
1.72867	-94
1.73233	-95
1.73600	-96
1.73967	-97
1.74333	-97
1.74700	-98
1.75067	-98
1.75433	-98
1.75800	-98
1.76167	-98
1.76533	-98
1.76900	-98
1.77267	-99
1.77633	-99
1.78000	-100
1.78367	-100
1.78733	-101
1.79100	-101
1.79467	-101
1.79833	-101
1.80200	-101
1.80567	-100
1.80933	-100
1.81300	-100
1.81667	-100
1.82033	-99
1.82400	-99
1.82767	-99
1.83133	-100
1.83500	-100
1.83867	-100
1.84233	-100
1.84600	-100
1.84967	-101
1.85333	-100
1.85700	-100
1.86067	-100
1.86433	-99
1.86800	-99
1.87167	-98
1.87533	-98
1.87900	-97
1.88267	-97
1.88633	-97
1.89000	-97
1.89367	-97
1.89733	-97
1.90100	-97
1.90467	-96
1.90833	-96
1.91200	-96
1.91567	-96
1.91933	-96
1.92300	-96
1.92667	-96
1.93033	-96
1.93400	-95
1.93767	-96
1.94133	-96
1.94500	-96
1.94867	-96
1.95233	-96
1.95600	-96
1.95967	-96
1.96333	-96
1.96700	-95
1.97067	-94
1.97433	-94
1.97800	-93
1.98167	-93
1.98533	-92
1.98900	-92
1.99267	-92
1.99633	-92
2.00000	-91
2.00367	-91
2.00733	-91
2.01100	-91
2.01467	-90
2.01833	-90
2.02200	-89
2.02567	-89
2.02933	-89
2.03300	-89
2.03667	-88
2.04033	-88
2.04400	-87
2.04767	-87
2.05133	-87
2.05500	-86
2.05867	-86
2.06233	-86
2.06600	-86
2.06967	-86
2.07333	-86
2.07700	-86
2.08067	-86
2.08433	-86
2.08800	-85
2.09167	-85
2.09533	-84
2.09900	-84
2.10267	-84
2.10633	-83
2.11000	-82
2.11367	-82
2.11733	-81
2.12100	-81
2.12467	-81
2.12833	-80
2.13200	-79
2.13567	-79
2.13933	-78
2.14300	-78
2.14667	-78
2.15033	-79
2.15400	-79
2.15767	-80
2.16133	-80
2.16500	-80
2.16867	-80
2.17233	-80
2.17600	-80
2.17967	-79
2.18333	-79
2.18700	-78
2.19067	-78
2.19433	-77
2.19800	-77
2.20167	-76
2.20533	-76
2.20900	-76
2.21267	-76
2.21633	-76
2.22000	-75
2.22367	-75
2.22733	-75
2.23100	-75
2.23467	-74
2.23833	-74
2.24200	-74
2.24567	-74
2.24933	-74
2.25300	-73
2.25667	-73
2.26033	-74
2.26400	-74
2.26767	-74
2.27133	-74
2.27500	-73
2.27867	-73
2.28233	-72
2.28600	-71
2.28967	-71
2.29333	-71
2.29700	-70
2.30067	-70
2.30433	-70
2.30800	-70
2.31167	-69
2.31533	-69
2.31900	-68
2.32267	-68
2.32633	-67
2.33000	-66
2.33367	-65
2.33733	-63
2.34100	-63
2.34467	-62
2.34833	-62
2.35200	-62
2.35567	-62
2.35933	-63
2.36300	-63
2.36667	-63
2.37033	-62
2.37400	-60
2.37767	-58
2.38133	-55
2.38500	-52
2.38867	-48
2.39233	-44
2.39600	-40
2.39967	-35
2.40333	-30
2.40700	-26
2.41067	-21
2.41433	-17
2.41800	-13
2.42167	-10
2.42533	-7
2.42900	-4
2.43267	-2
2.43633	0
2.44000	2
2.44367	3
2.44733	4
2.45100	6
2.45467	7
2.45833	8
2.46200	9
2.46567	10
2.46933	11
2.47300	12
2.47667	13
2.48033	14
2.48400	15
2.48767	16
2.49133	16
2.49500	17
2.49867	17
2.50233	17
2.50600	18
2.50967	18
2.51333	18
2.51700	19
2.52067	19
2.52433	20
2.52800	20
2.53167	20
2.53533	19
2.53900	19
2.54267	19
2.54633	18
2.55000	18
2.55367	17
2.55733	16
2.56100	16
2.56467	15
2.56833	15
2.57200	15
2.57567	16
2.57933	16
2.58300	17
2.58667	17
2.59033	17
2.59400	18
2.59767	18
2.60133	19
2.60500	19
2.60867	20
2.61233	20
2.61600	21
2.61967	21
2.62333	21
2.62700	21
2.63067	22
2.63433	22
2.63800	22
2.64167	23
2.64533	23
2.64900	23
2.65267	23
2.65633	23
2.66000	24
2.66367	24
2.66733	24
2.67100	24
2.67467	24
2.67833	24
2.68200	24
2.68567	24
2.68933	24
2.69300	24
2.69667	25
2.70033	25
2.70400	25
2.70767	25
2.71133	26
2.71500	26
2.71867	27
2.72233	27
2.72600	28
2.72967	28
2.73333	29
2.73700	29
2.74067	29
2.74433	29
2.74800	29
2.75167	28
2.75533	28
2.75900	27
2.76267	27
2.76633	27
2.77000	27
2.77367	27
2.77733	27
2.78100	27
2.78467	27
2.78833	27
2.79200	27
2.79567	27
2.79933	27
2.80300	28
2.80667	28
2.81033	28
2.81400	28
2.81767	28
2.82133	28
2.82500	28
2.82867	28
2.83233	28
2.83600	28
2.83967	29
2.84333	28
2.84700	28
2.85067	28
2.85433	28
2.85800	26
2.86167	24
2.86533	19
2.86900	11
2.87267	0
2.87633	-16
2.88000	-37
2.88367	-65
2.88733	-99
2.89100	-139
2.89467	-187
2.89833	-241
2.90200	-302
2.90567	-368
2.90933	-440
2.91300	-518
2.91667	-600
2.92033	-687
2.92400	-777
2.92767	-871
2.93133	-967
2.93500	-1066
2.93867	-1167
2.94233	-1270
2.94600	-1374
2.94967	-1471
2.95333	-1547
2.95700	-1590
2.96067	-1594
2.96433	-1561
2.96800	-1496
2.97167	-1407
2.97533	-1302
2.97900	-1188
2.98267	-1072
2.98633	-958
2.99000	-849
2.99367	-748
2.99733	-654
3.00100	-569
3.00467	-493
3.00833	-426
3.01200	-366
3.01567	-314
3.01933	-268
3.02300	-229
3.02667	-194
3.03033	-165
3.03400	-139
3.03767	-118
3.04133	-99
3.04500	-83
3.04867	-69
3.05233	-57
3.05600	-47
3.05967	-38
3.06333	-31
3.06700	-25
3.07067	-19
3.07433	-15
3.07800	-11
3.08167	-8
3.08533	-5
3.08900	-2
3.09267	0
3.09633	2
3.10000	4
3.10367	6
3.10733	7
3.11100	9
3.11467	10
3.11833	11
3.12200	12
3.12567	13
3.12933	14
3.13300	14
3.13667	15
3.14033	16
3.14400	16
3.14767	17
3.15133	17
3.15500	18
3.15867	18
3.16233	19
3.16600	19
3.16967	20
3.17333	20
3.17700	20
3.18067	20
3.18433	20
3.18800	20
3.19167	20
3.19533	20
3.19900	21
3.20267	21
3.20633	21
3.21000	21
3.21367	21
3.21733	22
3.22100	22
3.22467	23
3.22833	23
3.23200	24
3.23567	24
3.23933	25
3.24300	25
3.24667	26
3.25033	26
3.25400	26
3.25767	27
3.26133	27
3.26500	27
3.26867	27
3.27233	28
3.27600	28
3.27967	28
3.28333	28
3.28700	28
3.29067	29
3.29433	29
3.29800	29
3.30167	29
3.30533	29
3.30900	29
3.31267	29
3.31633	29
3.32000	29
3.32367	28
3.32733	28
3.33100	28
3.33467	28
3.33833	28
3.34200	29
3.34567	29
3.34933	29
3.35300	29
3.35667	29
3.36033	29
3.36400	29
3.36767	29
3.37133	29
3.37500	29
3.37867	29
3.38233	30
3.38600	30
3.38967	30
3.39333	30
3.39700	30
3.40067	30
3.40433	30
3.40800	30
3.41167	30
3.41533	30
3.41900	29
3.42267	29
3.42633	29
3.43000	29
3.43367	29
3.43733	29
3.44100	29
3.44467	29
3.44833	29
3.45200	29
3.45567	30
3.45933	30
3.46300	30
3.46667	30
3.47033	30
3.47400	30
3.47767	30
3.48133	30
3.48500	30
3.48867	29
3.49233	29
3.49600	29
3.49967	29
3.50333	29
3.50700	29
3.51067	29
3.51433	29
3.51800	29
3.52167	29
3.52533	29
3.52900	29
3.53267	29
3.53633	29
3.54000	29
3.54367	29
3.54733	29
3.55100	29
3.55467	29
3.55833	29
3.56200	29
3.56567	29
3.56933	29
3.57300	29
3.57667	29
3.58033	29
3.58400	29
3.58767	29
3.59133	30
3.59500	30
3.59867	30
3.60233	29
3.60600	30
3.60967	30
3.61333	30
3.61700	30
3.62067	30
3.62433	30
3.62800	30
3.63167	30
3.63533	30
3.63900	29
3.64267	29
3.64633	30
3.65000	30
3.65367	30
3.65733	30
3.66100	30
3.66467	30
3.66833	30
3.67200	30
3.67567	30
3.67933	30
3.68300	30
3.68667	30
3.69033	31
3.69400	31
3.69767	30
3.70133	30
3.70500	30
3.70867	30
3.71233	30
3.71600	31
3.71967	31
3.72333	31
3.72700	31
3.73067	31
3.73433	31
3.73800	31
3.74167	31
3.74533	31
3.74900	31
3.75267	31
3.75633	31
3.76000	31
3.76367	32
3.76733	31
3.77100	31
3.77467	31
3.77833	31
3.78200	31
3.78567	30
3.78933	30
3.79300	30
3.79667	30
3.80033	30
3.80400	30
3.80767	30
3.81133	30
3.81500	30
3.81867	30
3.82233	30
3.82600	30
3.82967	30
3.83333	30
3.83700	30
3.84067	30
3.84433	30
3.84800	30
3.85167	30
3.85533	30
3.85900	30
3.86267	30
3.86633	30
3.87000	30
3.87367	30
3.87733	30
3.88100	30
3.88467	30
3.88833	30
3.89200	30
3.89567	30
3.89933	30
3.90300	30
3.90667	30
3.91033	30
3.91400	30
3.91767	30
3.92133	30
3.92500	30
3.92867	30
3.93233	30
3.93600	30
3.93967	30
3.94333	30
3.94700	30
3.95067	30
3.95433	30
3.95800	30
3.96167	30
3.96533	30
3.96900	30
3.97267	30
3.97633	30
3.98000	30
3.98367	30
3.98733	30
3.99100	30
3.99467	29
3.99833	29

[Chromatogram (Ch3)]
Interval(msec)	220
# of Points	1091
Start Time(min)	0.002
End Time(min)	3.998
R.Time (min)	Intensity
0.00167	-1
0.00533	-0
0.00900	-1
0.01267	1
0.01633	2
0.02000	1
0.02367	5
0.02733	10
0.03100	11
0.03467	11
0.03833	9
0.04200	7
0.04567	5
0.04933	4
0.05300	5
0.05667	7
0.06033	9
0.06400	9
0.06767	7
0.07133	5
0.07500	2
0.07867	-1
0.08233	-4
0.08600	-2
0.08967	5
0.09333	10
0.09700	11
0.10067	10
0.10433	8
0.10800	8
0.11167	6
0.11533	6
0.11900	6
0.12267	8
0.12633	7
0.13000	5
0.13367	7
0.13733	9
0.14100	10
0.14467	13
0.14833	13
0.15200	12
0.15567	10
0.15933	10
0.16300	10
0.16667	7
0.17033	3
0.17400	2
0.17767	1
0.18133	2
0.18500	2
0.18867	1
0.19233	3
0.19600	4
0.19967	4
0.20333	3
0.20700	1
0.21067	2
0.21433	4
0.21800	5
0.22167	3
0.22533	1
0.22900	3
0.23267	4
0.23633	1
0.24000	1
0.24367	4
0.24733	6
0.25100	7
0.25467	7
0.25833	5
0.26200	3
0.26567	2
0.26933	1
0.27300	1
0.27667	4
0.28033	6
0.28400	7
0.28767	6
0.29133	6
0.29500	7
0.29867	7
0.30233	7
0.30600	5
0.30967	4
0.31333	3
0.31700	2
0.32067	3
0.32433	3
0.32800	2
0.33167	5
0.33533	6
0.33900	7
0.34267	7
0.34633	6
0.35000	7
0.35367	7
0.35733	7
0.36100	5
0.36467	4
0.36833	3
0.37200	-0
0.37567	1
0.37933	4
0.38300	6
0.38667	6
0.39033	4
0.39400	1
0.39767	-0
0.40133	-0
0.40500	-0
0.40867	1
0.41233	3
0.41600	7
0.41967	7
0.42333	4
0.42700	1
0.43067	-2
0.43433	0
0.43800	2
0.44167	2
0.44533	2
0.44900	4
0.45267	4
0.45633	4
0.46000	5
0.46367	4
0.46733	5
0.47100	6
0.47467	7
0.47833	8
0.48200	7
0.48567	5
0.48933	5
0.49300	5
0.49667	5
0.50033	7
0.50400	6
0.50767	6
0.51133	6
0.51500	5
0.51867	5
0.52233	6
0.52600	8
0.52967	8
0.53333	7
0.53700	10
0.54067	10
0.54433	9
0.54800	9
0.55167	9
0.55533	7
0.55900	6
0.56267	6
0.56633	6
0.57000	8
0.57367	11
0.57733	13
0.58100	12
0.58467	11
0.58833	10
0.59200	8
0.59567	8
0.59933	10
0.60300	12
0.60667	14
0.61033	17
0.61400	17
0.61767	16
0.62133	14
0.62500	11
0.62867	9
0.63233	7
0.63600	8
0.63967	9
0.64333	11
0.64700	13
0.65067	13
0.65433	11
0.65800	10
0.66167	10
0.66533	12
0.66900	15
0.67267	17
0.67633	18
0.68000	18
0.68367	20
0.68733	19
0.69100	17
0.69467	16
0.69833	14
0.70200	15
0.70567	16
0.70933	15
0.71300	15
0.71667	13
0.72033	10
0.72400	7
0.72767	8
0.73133	10
0.73500	13
0.73867	17
0.74233	20
0.74600	20
0.74967	18
0.75333	20
0.75700	23
0.76067	22
0.76433	20
0.76800	16
0.77167	15
0.77533	13
0.77900	15
0.78267	13
0.78633	9
0.79000	8
0.79367	11
0.79733	15
0.80100	17
0.80467	17
0.80833	17
0.81200	17
0.81567	15
0.81933	12
0.82300	10
0.82667	12
0.83033	13
0.83400	14
0.83767	15
0.84133	15
0.84500	13
0.84867	11
0.85233	11
0.85600	10
0.85967	13
0.86333	17
0.86700	19
0.87067	20
0.87433	19
0.87800	21
0.88167	19
0.88533	15
0.88900	12
0.89267	12
0.89633	13
0.90000	14
0.90367	13
0.90733	13
0.91100	14
0.91467	13
0.91833	11
0.92200	11
0.92567	12
0.92933	12
0.93300	12
0.93667	9
0.94033	6
0.94400	3
0.94767	2
0.95133	3
0.95500	6
0.95867	7
0.96233	7
0.96600	6
0.96967	6
0.97333	6
0.97700	1
0.98067	-2
0.98433	-0
0.98800	1
0.99167	2
0.99533	2
0.99900	5
1.00267	9
1.00633	12
1.01000	14
1.01367	13
1.01733	11
1.02100	10
1.02467	6
1.02833	5
1.03200	7
1.03567	8
1.03933	10
1.04300	10
1.04667	11
1.05033	11
1.05400	10
1.05767	9
1.06133	7
1.06500	6
1.06867	5
1.07233	5
1.07600	4
1.07967	6
1.08333	8
1.08700	6
1.09067	5
1.09433	3
1.09800	-1
1.10167	-4
1.10533	-3
1.10900	0
1.11267	1
1.11633	1
1.12000	-0
1.12367	-2
1.12733	-0
1.13100	2
1.13467	3
1.13833	1
1.14200	1
1.14567	1
1.14933	-1
1.15300	-2
1.15667	-2
1.16033	-1
1.16400	1
1.16767	0
1.17133	1
1.17500	4
1.17867	4
1.18233	3
1.18600	1
1.18967	2
1.19333	4
1.19700	4
1.20067	3
1.20433	-0
1.20800	-2
1.21167	-1
1.21533	1
1.21900	1
1.22267	2
1.22633	5
1.23000	6
1.23367	3
1.23733	2
1.24100	2
1.24467	1
1.24833	1
1.25200	3
1.25567	6
1.25933	5
1.26300	4
1.26667	2
1.27033	-4
1.27400	-5
1.27767	-5
1.28133	-3
1.28500	-2
1.28867	-1
1.29233	2
1.29600	2
1.29967	-1
1.30333	-3
1.30700	-1
1.31067	1
1.31433	3
1.31800	4
1.32167	1
1.32533	-1
1.32900	-1
1.33267	1
1.33633	-1
1.34000	-0
1.34367	-0
1.34733	-2
1.35100	-5
1.35467	-6
1.35833	-5
1.36200	-5
1.36567	-5
1.36933	-5
1.37300	-5
1.37667	-5
1.38033	-4
1.38400	-2
1.38767	1
1.39133	3
1.39500	4
1.39867	6
1.40233	7
1.40600	7
1.40967	7
1.41333	7
1.41700	5
1.42067	3
1.42433	1
1.42800	2
1.43167	2
1.43533	2
1.43900	3
1.44267	3
1.44633	4
1.45000	5
1.45367	5
1.45733	4
1.46100	2
1.46467	2
1.46833	6
1.47200	6
1.47567	4
1.47933	3
1.48300	3
1.48667	3
1.49033	1
1.49400	0
1.49767	3
1.50133	6
1.50500	7
1.50867	5
1.51233	3
1.51600	2
1.51967	2
1.52333	4
1.52700	8
1.53067	9
1.53433	9
1.53800	9
1.54167	6
1.54533	4
1.54900	3
1.55267	4
1.55633	2
1.56000	1
1.56367	0
1.56733	0
1.57100	-1
1.57467	-1
1.57833	-2
1.58200	-1
1.58567	-1
1.58933	-3
1.59300	-2
1.59667	-1
1.60033	-0
1.60400	1
1.60767	2
1.61133	3
1.61500	6
1.61867	6
1.62233	8
1.62600	9
1.62967	7
1.63333	6
1.63700	8
1.64067	9
1.64433	11
1.64800	11
1.65167	9
1.65533	9
1.65900	9
1.66267	10
1.66633	14
1.67000	13
1.67367	10
1.67733	5
1.68100	5
1.68467	6
1.68833	5
1.69200	6
1.69567	7
1.69933	9
1.70300	10
1.70667	10
1.71033	9
1.71400	11
1.71767	14
1.72133	14
1.72500	13
1.72867	13
1.73233	14
1.73600	16
1.73967	16
1.74333	16
1.74700	17
1.75067	18
1.75433	17
1.75800	16
1.76167	15
1.76533	14
1.76900	16
1.77267	17
1.77633	16
1.78000	17
1.78367	18
1.78733	19
1.79100	20
1.79467	23
1.79833	24
1.80200	24
1.80567	25
1.80933	23
1.81300	21
1.81667	19
1.82033	19
1.82400	18
1.82767	18
1.83133	18
1.83500	17
1.83867	17
1.84233	17
1.84600	18
1.84967	19
1.85333	20
1.85700	20
1.86067	22
1.86433	25
1.86800	25
1.87167	23
1.87533	20
1.87900	17
1.88267	18
1.88633	21
1.89000	23
1.89367	26
1.89733	28
1.90100	27
1.90467	28
1.90833	31
1.91200	34
1.91567	34
1.91933	32
1.92300	32
1.92667	34
1.93033	36
1.93400	36
1.93767	32
1.94133	29
1.94500	30
1.94867	32
1.95233	34
1.95600	35
1.95967	33
1.96333	29
1.96700	26
1.97067	26
1.97433	31
1.97800	36
1.98167	40
1.98533	40
1.98900	38
1.99267	37
1.99633	38
2.00000	39
2.00367	38
2.00733	39
2.01100	41
2.01467	42
2.01833	42
2.02200	41
2.02567	41
2.02933	42
2.03300	42
2.03667	42
2.04033	43
2.04400	42
2.04767	41
2.05133	38
2.05500	38
2.05867	41
2.06233	46
2.06600	49
2.06967	51
2.07333	54
2.07700	54
2.08067	53
2.08433	54
2.08800	55
2.09167	54
2.09533	52
2.09900	52
2.10267	53
2.10633	56
2.11000	58
2.11367	58
2.11733	60
2.12100	60
2.12467	59
2.12833	57
2.13200	57
2.13567	58
2.13933	57
2.14300	54
2.14667	53
2.15033	55
2.15400	56
2.15767	59
2.16133	61
2.16500	63
2.16867	66
2.17233	67
2.17600	66
2.17967	67
2.18333	66
2.18700	66
2.19067	69
2.19433	70
2.19800	71
2.20167	72
2.20533	73
2.20900	72
2.21267	72
2.21633	72
2.22000	71
2.22367	72
2.22733	73
2.23100	73
2.23467	72
2.23833	73
2.24200	74
2.24567	75
2.24933	74
2.25300	74
2.25667	75
2.26033	78
2.26400	79
2.26767	79
2.27133	79
2.27500	81
2.27867	83
2.28233	80
2.28600	79
2.28967	82
2.29333	85
2.29700	85
2.30067	84
2.30433	85
2.30800	86
2.31167	86
2.31533	87
2.31900	90
2.32267	91
2.32633	90
2.33000	90
2.33367	92
2.33733	89
2.34100	90
2.34467	90
2.34833	93
2.35200	96
2.35567	99
2.35933	98
2.36300	94
2.36667	91
2.37033	93
2.37400	96
2.37767	97
2.38133	94
2.38500	88
2.38867	84
2.39233	85
2.39600	92
2.39967	100
2.40333	109
2.40700	120
2.41067	127
2.41433	130
2.41800	132
2.42167	135
2.42533	135
2.42900	133
2.43267	132
2.43633	132
2.44000	133
2.44367	167
2.44733	228
2.45100	286
2.45467	323
2.45833	336
2.46200	343
2.46567	345
2.46933	339
2.47300	324
2.47667	304
2.48033	285
2.48400	266
2.48767	250
2.49133	244
2.49500	246
2.49867	249
2.50233	250
2.50600	248
2.50967	242
2.51333	232
2.51700	218
2.52067	204
2.52433	188
2.52800	174
2.53167	162
2.53533	154
2.53900	149
2.54267	146
2.54633	144
2.55000	143
2.55367	144
2.55733	148
2.56100	157
2.56467	167
2.56833	176
2.57200	182
2.57567	187
2.57933	193
2.58300	196
2.58667	195
2.59033	188
2.59400	182
2.59767	177
2.60133	170
2.60500	162
2.60867	153
2.61233	146
2.61600	140
2.61967	136
2.62333	129
2.62700	120
2.63067	111
2.63433	104
2.63800	96
2.64167	90
2.64533	85
2.64900	78
2.65267	75
2.65633	73
2.66000	73
2.66367	68
2.66733	63
2.67100	58
2.67467	56
2.67833	59
2.68200	63
2.68567	66
2.68933	68
2.69300	68
2.69667	66
2.70033	68
2.70400	72
2.70767	75
2.71133	79
2.71500	85
2.71867	91
2.72233	96
2.72600	100
2.72967	106
2.73333	109
2.73700	110
2.74067	110
2.74433	112
2.74800	114
2.75167	119
2.75533	122
2.75900	125
2.76267	130
2.76633	132
2.77000	131
2.77367	133
2.77733	136
2.78100	136
2.78467	135
2.78833	134
2.79200	128
2.79567	122
2.79933	117
2.80300	113
2.80667	113
2.81033	113
2.81400	111
2.81767	109
2.82133	109
2.82500	111
2.82867	114
2.83233	125
2.83600	150
2.83967	202
2.84333	320
2.84700	552
2.85067	948
2.85433	1550
2.85800	2388
2.86167	3455
2.86533	4715
2.86900	6100
2.87267	7509
2.87633	8831
2.88000	9961
2.88367	10811
2.88733	11329
2.89100	11514
2.89467	11391
2.89833	11006
2.90200	10422
2.90567	9712
2.90933	8930
2.91300	8120
2.91667	7319
2.92033	6549
2.92400	5828
2.92767	5166
2.93133	4564
2.93500	4023
2.93867	3539
2.94233	3107
2.94600	2720
2.94967	2382
2.95333	2088
2.95700	1829
2.96067	1604
2.96433	1411
2.96800	1242
2.97167	1093
2.97533	966
2.97900	852
2.98267	752
2.98633	666
2.99000	596
2.99367	535
2.99733	483
3.00100	439
3.00467	399
3.00833	363
3.01200	333
3.01567	309
3.01933	290
3.02300	271
3.02667	255
3.03033	241
3.03400	229
3.03767	219
3.04133	214
3.04500	210
3.04867	204
3.05233	199
3.05600	198
3.05967	196
3.06333	191
3.06700	187
3.07067	183
3.07433	183
3.07800	186
3.08167	188
3.08533	192
3.08900	192
3.09267	190
3.09633	188
3.10000	187
3.10367	189
3.10733	189
3.11100	190
3.11467	191
3.11833	192
3.12200	195
3.12567	197
3.12933	196
3.13300	195
3.13667	196
3.14033	196
3.14400	194
3.14767	191
3.15133	190
3.15500	192
3.15867	193
3.16233	192
3.16600	193
3.16967	193
3.17333	194
3.17700	192
3.18067	189
3.18433	187
3.18800	187
3.19167	188
3.19533	188
3.19900	190
3.20267	189
3.20633	187
3.21000	184
3.21367	185
3.21733	188
3.22100	187
3.22467	182
3.22833	177
3.23200	176
3.23567	176
3.23933	177
3.24300	175
3.24667	174
3.25033	172
3.25400	169
3.25767	170
3.26133	176
3.26500	189
3.26867	212
3.27233	249
3.27600	293
3.27967	339
3.28333	391
3.28700	444
3.29067	496
3.29433	543
3.29800	586
3.30167	622
3.30533	649
3.30900	674
3.31267	697
3.31633	717
3.32000	733
3.32367	746
3.32733	757
3.33100	766
3.33467	774
3.33833	780
3.34200	783
3.34567	785
3.34933	786
3.35300	785
3.35667	784
3.36033	782
3.36400	776
3.36767	772
3.37133	767
3.37500	764
3.37867	760
3.38233	754
3.38600	752
3.38967	749
3.39333	746
3.39700	743
3.40067	740
3.40433	738
3.40800	735
3.41167	729
3.41533	723
3.41900	720
3.42267	717
3.42633	714
3.43000	709
3.43367	702
3.43733	697
3.44100	692
3.44467	687
3.44833	681
3.45200	675
3.45567	673
3.45933	667
3.46300	664
3.46667	662
3.47033	657
3.47400	652
3.47767	649
3.48133	646
3.48500	639
3.48867	635
3.49233	632
3.49600	630
3.49967	630
3.50333	629
3.50700	627
3.51067	626
3.51433	626
3.51800	623
3.52167	618
3.52533	617
3.52900	614
3.53267	614
3.53633	615
3.54000	617
3.54367	616
3.54733	614
3.55100	613
3.55467	614
3.55833	612
3.56200	607
3.56567	601
3.56933	597
3.57300	595
3.57667	596
3.58033	597
3.58400	598
3.58767	597
3.59133	597
3.59500	595
3.59867	592
3.60233	592
3.60600	590
3.60967	585
3.61333	581
3.61700	578
3.62067	577
3.62433	576
3.62800	572
3.63167	572
3.63533	572
3.63900	568
3.64267	565
3.64633	565
3.65000	565
3.65367	563
3.65733	561
3.66100	559
3.66467	558
3.66833	560
3.67200	561
3.67567	561
3.67933	559
3.68300	559
3.68667	561
3.69033	562
3.69400	561
3.69767	558
3.70133	556
3.70500	554
3.70867	553
3.71233	552
3.71600	551
3.71967	553
3.72333	554
3.72700	554
3.73067	553
3.73433	553
3.73800	552
3.74167	555
3.74533	556
3.74900	555
3.75267	551
3.75633	552
3.76000	554
3.76367	556
3.76733	558
3.77100	556
3.77467	554
3.77833	554
3.78200	553
3.78567	551
3.78933	548
3.79300	546
3.79667	546
3.80033	545
3.80400	543
3.80767	540
3.81133	538
3.81500	541
3.81867	542
3.82233	541
3.82600	538
3.82967	537
3.83333	537
3.83700	539
3.84067	540
3.84433	538
3.84800	534
3.85167	533
3.85533	533
3.85900	531
3.86267	526
3.86633	525
3.87000	525
3.87367	525
3.87733	526
3.88100	526
3.88467	527
3.88833	531
3.89200	531
3.89567	528
3.89933	526
3.90300	523
3.90667	521
3.91033	522
3.91400	522
3.91767	518
3.92133	515
3.92500	516
3.92867	516
3.93233	513
3.93600	511
3.93967	511
3.94333	508
3.94700	508
3.95067	509
3.95433	509
3.95800	507
3.96167	508
3.96533	507
3.96900	505
3.97267	503
3.97633	503
3.98000	502
3.98367	501
3.98733	501
3.99100	499
3.99467	496
3.99833	488

[Status Trace (Column Oven Temperature)]
Interval(msec)	1000
# of Points	240
Start Time(min)	0.003
End Time(min)	3.987
Intensity Units	
Intensity Multiplier	1
R.Time (min)	Intensity
0.00342	35.06
0.02008	35.06
0.03675	35.07
0.05342	35.05
0.07008	35.05
0.08675	35.05
0.10342	35.04
0.12008	35.04
0.13675	35.03
0.15342	35.03
0.17008	35.04
0.18675	35.04
0.20342	35.03
0.22008	35.03
0.23675	35.03
0.25342	35.03
0.27008	35.03
0.28675	35.02
0.30342	35.02
0.32008	35.02
0.33675	35.01
0.35342	35.01
0.37008	35.01
0.38675	35.01
0.40342	35.00
0.42008	35.01
0.43675	35.01
0.45342	35.02
0.47008	35.01
0.48675	35.00
0.50342	35.00
0.52008	35.00
0.53675	34.99
0.55342	35.00
0.57008	35.00
0.58675	35.02
0.60342	35.03
0.62008	35.03
0.63675	35.02
0.65342	35.02
0.67008	35.02
0.68675	35.02
0.70342	35.01
0.72008	34.99
0.73675	35.00
0.75342	34.99
0.77008	34.99
0.78675	35.00
0.80342	35.00
0.82008	35.00
0.83675	35.02
0.85342	35.01
0.87008	35.02
0.88675	35.01
0.90342	35.00
0.92008	35.00
0.93675	34.99
0.95342	34.99
0.97008	34.99
0.98675	34.99
1.00342	34.99
1.02008	34.98
1.03675	34.98
1.05342	34.98
1.07008	34.98
1.08675	34.99
1.10342	35.00
1.12008	35.01
1.13675	35.01
1.15342	35.01
1.17008	35.00
1.18675	35.00
1.20342	34.99
1.22008	34.99
1.23675	34.99
1.25342	35.00
1.27008	34.99
1.28675	34.99
1.30342	34.99
1.32008	34.99
1.33675	34.99
1.35342	34.99
1.37008	34.98
1.38675	34.98
1.40342	34.98
1.42008	34.98
1.43675	34.98
1.45342	34.98
1.47008	34.98
1.48675	34.98
1.50342	34.99
1.52008	34.99
1.53675	34.99
1.55342	34.99
1.57008	34.99
1.58675	35.00
1.60342	35.04
1.62008	35.14
1.63675	35.30
1.65342	35.52
1.67008	35.83
1.68675	36.20
1.70342	36.54
1.72008	36.89
1.73675	37.23
1.75342	37.56
1.77008	37.89
1.78675	38.24
1.80342	38.57
1.82008	38.89
1.83675	39.23
1.85342	39.57
1.87008	39.88
1.88675	40.22
1.90342	40.53
1.92008	40.86
1.93675	41.18
1.95342	41.52
1.97008	41.83
1.98675	42.17
2.00342	42.49
2.02008	42.82
2.03675	43.13
2.05342	43.46
2.07008	43.78
2.08675	44.11
2.10342	44.44
2.12008	44.77
2.13675	45.07
2.15342	45.40
2.17008	45.74
2.18675	46.06
2.20342	46.39
2.22008	46.71
2.23675	47.04
2.25342	47.41
2.27008	47.74
2.28675	48.07
2.30342	48.41
2.32008	48.74
2.33675	49.04
2.35342	49.36
2.37008	49.63
2.38675	49.76
2.40342	49.77
2.42008	49.77
2.43675	49.77
2.45342	49.78
2.47008	49.79
2.48675	49.78
2.50342	49.79
2.52008	49.79
2.53675	49.80
2.55342	49.81
2.57008	49.80
2.58675	49.81
2.60342	49.82
2.62008	49.84
2.63675	49.84
2.65342	49.85
2.67008	49.85
2.68675	49.87
2.70342	49.86
2.72008	49.85
2.73675	49.84
2.75342	49.87
2.77008	49.89
2.78675	49.90
2.80342	49.89
2.82008	49.89
2.83675	49.90
2.85342	49.90
2.87008	49.92
2.88675	49.94
2.90342	49.96
2.92008	49.96
2.93675	49.98
2.95342	49.99
2.97008	50.00
2.98675	50.00
3.00342	50.01
3.02008	50.02
3.03675	50.03
3.05342	50.04
3.07008	50.06
3.08675	50.07
3.10342	50.07
3.12008	50.08
3.13675	50.09
3.15342	50.09
3.17008	50.09
3.18675	50.10
3.20342	50.10
3.22008	50.11
3.23675	50.10
3.25342	50.09
3.27008	50.08
3.28675	50.07
3.30342	50.06
3.32008	50.06
3.33675	50.06
3.35342	50.06
3.37008	50.06
3.38675	50.05
3.40342	50.05
3.42008	50.05
3.43675	50.05
3.45342	50.05
3.47008	50.06
3.48675	50.06
3.50342	50.05
3.52008	50.05
3.53675	50.06
3.55342	50.07
3.57008	50.07
3.58675	50.07
3.60342	50.07
3.62008	50.07
3.63675	50.08
3.65342	50.08
3.67008	50.08
3.68675	50.07
3.70342	50.08
3.72008	50.07
3.73675	50.07
3.75342	50.07
3.77008	50.07
3.78675	50.06
3.80342	50.07
3.82008	50.06
3.83675	50.06
3.85342	50.05
3.87008	50.06
3.88675	50.06
3.90342	50.07
3.92008	50.07
3.93675	50.06
3.95342	50.06
3.97008	50.06
3.98675	50.07

[Status Trace (Injection Unit Temperature)]
Interval(msec)	1000
# of Points	240
Start Time(min)	0.003
End Time(min)	3.987
Intensity Units	
Intensity Multiplier	1
R.Time (min)	Intensity
0.00342	99.97
0.02008	99.97
0.03675	99.98
0.05342	99.98
0.07008	99.97
0.08675	99.97
0.10342	99.98
0.12008	99.97
0.13675	99.98
0.15342	99.98
0.17008	99.97
0.18675	99.98
0.20342	99.98
0.22008	99.98
0.23675	99.98
0.25342	99.98
0.27008	99.98
0.28675	99.98
0.30342	99.98
0.32008	99.98
0.33675	99.98
0.35342	99.98
0.37008	99.98
0.38675	99.98
0.40342	99.98
0.42008	99.98
0.43675	99.98
0.45342	99.98
0.47008	99.98
0.48675	99.98
0.50342	99.98
0.52008	99.98
0.53675	99.98
0.55342	99.98
0.57008	99.98
0.58675	99.98
0.60342	99.98
0.62008	99.98
0.63675	99.98
0.65342	99.98
0.67008	99.98
0.68675	99.98
0.70342	99.98
0.72008	99.98
0.73675	99.98
0.75342	99.98
0.77008	99.98
0.78675	99.98
0.80342	99.98
0.82008	99.98
0.83675	99.98
0.85342	99.98
0.87008	99.98
0.88675	99.98
0.90342	99.98
0.92008	99.98
0.93675	99.98
0.95342	99.98
0.97008	99.98
0.98675	99.98
1.00342	99.98
1.02008	99.98
1.03675	99.98
1.05342	99.98
1.07008	99.98
1.08675	99.98
1.10342	99.98
1.12008	99.98
1.13675	99.98
1.15342	99.98
1.17008	99.98
1.18675	99.98
1.20342	99.98
1.22008	99.98
1.23675	99.98
1.25342	99.98
1.27008	99.98
1.28675	99.98
1.30342	99.98
1.32008	99.98
1.33675	99.99
1.35342	99.98
1.37008	99.98
1.38675	99.99
1.40342	99.98
1.42008	99.98
1.43675	99.98
1.45342	99.98
1.47008	99.98
1.48675	99.99
1.50342	99.98
1.52008	99.98
1.53675	99.99
1.55342	99.99
1.57008	99.99
1.58675	99.99
1.60342	99.99
1.62008	99.99
1.63675	99.99
1.65342	99.99
1.67008	99.99
1.68675	99.99
1.70342	99.99
1.72008	99.98
1.73675	99.99
1.75342	99.99
1.77008	99.98
1.78675	99.98
1.80342	99.98
1.82008	99.98
1.83675	99.98
1.85342	99.98
1.87008	99.98
1.88675	99.98
1.90342	99.98
1.92008	99.97
1.93675	99.98
1.95342	99.97
1.97008	99.97
1.98675	99.97
2.00342	99.97
2.02008	99.97
2.03675	99.96
2.05342	99.97
2.07008	99.97
2.08675	99.96
2.10342	99.96
2.12008	99.97
2.13675	99.96
2.15342	99.96
2.17008	99.96
2.18675	99.96
2.20342	99.96
2.22008	99.96
2.23675	99.96
2.25342	99.96
2.27008	99.96
2.28675	99.96
2.30342	99.96
2.32008	99.96
2.33675	99.96
2.35342	99.96
2.37008	99.96
2.38675	99.96
2.40342	99.96
2.42008	99.96
2.43675	99.96
2.45342	99.96
2.47008	99.96
2.48675	99.97
2.50342	99.97
2.52008	99.97
2.53675	99.97
2.55342	99.97
2.57008	99.97
2.58675	99.97
2.60342	99.97
2.62008	99.97
2.63675	99.98
2.65342	99.98
2.67008	99.98
2.68675	99.98
2.70342	99.98
2.72008	99.98
2.73675	99.99
2.75342	99.99
2.77008	99.99
2.78675	99.99
2.80342	99.99
2.82008	99.99
2.83675	99.99
2.85342	100.00
2.87008	100.00
2.88675	100.00
2.90342	100.00
2.92008	100.00
2.93675	100.00
2.95342	100.00
2.97008	100.01
2.98675	100.01
3.00342	100.01
3.02008	100.01
3.03675	100.01
3.05342	100.01
3.07008	100.01
3.08675	100.02
3.10342	100.02
3.12008	100.02
3.13675	100.02
3.15342	100.02
3.17008	100.02
3.18675	100.02
3.20342	100.03
3.22008	100.03
3.23675	100.03
3.25342	100.03
3.27008	100.03
3.28675	100.03
3.30342	100.03
3.32008	100.03
3.33675	100.04
3.35342	100.04
3.37008	100.04
3.38675	100.04
3.40342	100.04
3.42008	100.04
3.43675	100.04
3.45342	100.04
3.47008	100.04
3.48675	100.04
3.50342	100.04
3.52008	100.04
3.53675	100.04
3.55342	100.04
3.57008	100.05
3.58675	100.04
3.60342	100.04
3.62008	100.05
3.63675	100.04
3.65342	100.05
3.67008	100.04
3.68675	100.05
3.70342	100.04
3.72008	100.05
3.73675	100.04
3.75342	100.05
3.77008	100.05
3.78675	100.04
3.80342	100.04
3.82008	100.04
3.83675	100.05
3.85342	100.05
3.87008	100.05
3.88675	100.05
3.90342	100.04
3.92008	100.05
3.93675	100.05
3.95342	100.05
3.97008	100.04
3.98675	100.05

[Status Trace (Carrier Gas Pressure)]
Interval(msec)	1000
# of Points	240
Start Time(min)	0.003
End Time(min)	3.987
Intensity Units	
Intensity Multiplier	1
R.Time (min)	Intensity
0.00342	58.00
0.02008	56.06
0.03675	56.35
0.05342	58.64
0.07008	59.84
0.08675	58.30
0.10342	57.97
0.12008	58.01
0.13675	58.01
0.15342	58.01
0.17008	58.00
0.18675	58.00
0.20342	58.00
0.22008	58.00
0.23675	58.00
0.25342	58.00
0.27008	58.00
0.28675	58.00
0.30342	58.00
0.32008	58.00
0.33675	58.00
0.35342	58.00
0.37008	58.00
0.38675	58.00
0.40342	58.00
0.42008	58.00
0.43675	58.00
0.45342	58.00
0.47008	58.00
0.48675	58.00
0.50342	58.00
0.52008	58.00
0.53675	58.00
0.55342	58.00
0.57008	58.00
0.58675	58.00
0.60342	58.00
0.62008	58.00
0.63675	58.00
0.65342	58.00
0.67008	58.00
0.68675	58.00
0.70342	58.00
0.72008	58.00
0.73675	58.00
0.75342	58.00
0.77008	58.00
0.78675	58.00
0.80342	58.00
0.82008	58.00
0.83675	58.00
0.85342	58.00
0.87008	58.00
0.88675	58.00
0.90342	58.00
0.92008	58.00
0.93675	58.00
0.95342	58.00
0.97008	58.00
0.98675	58.00
1.00342	58.00
1.02008	58.00
1.03675	58.00
1.05342	58.00
1.07008	58.00
1.08675	58.00
1.10342	58.00
1.12008	58.00
1.13675	58.00
1.15342	58.00
1.17008	58.00
1.18675	58.00
1.20342	58.00
1.22008	58.00
1.23675	58.00
1.25342	58.00
1.27008	58.00
1.28675	58.00
1.30342	58.00
1.32008	58.00
1.33675	58.00
1.35342	58.00
1.37008	58.00
1.38675	58.00
1.40342	58.00
1.42008	58.00
1.43675	58.00
1.45342	58.00
1.47008	58.00
1.48675	58.00
1.50342	58.00
1.52008	58.00
1.53675	58.00
1.55342	58.00
1.57008	58.00
1.58675	58.00
1.60342	58.00
1.62008	58.00
1.63675	58.00
1.65342	58.00
1.67008	58.01
1.68675	58.01
1.70342	58.00
1.72008	58.00
1.73675	58.00
1.75342	58.00
1.77008	58.00
1.78675	58.00
1.80342	58.00
1.82008	58.00
1.83675	58.00
1.85342	58.00
1.87008	58.00
1.88675	58.00
1.90342	58.00
1.92008	58.00
1.93675	58.00
1.95342	58.00
1.97008	58.00
1.98675	58.00
2.00342	58.00
2.02008	58.00
2.03675	58.00
2.05342	58.00
2.07008	58.00
2.08675	58.00
2.10342	58.00
2.12008	58.00
2.13675	58.00
2.15342	58.00
2.17008	58.00
2.18675	58.00
2.20342	58.00
2.22008	58.00
2.23675	58.00
2.25342	58.00
2.27008	58.00
2.28675	58.00
2.30342	58.00
2.32008	58.00
2.33675	58.00
2.35342	58.00
2.37008	58.00
2.38675	57.99
2.40342	57.99
2.42008	58.00
2.43675	58.00
2.45342	58.00
2.47008	58.00
2.48675	58.00
2.50342	57.96
2.52008	58.00
2.53675	57.99
2.55342	58.00
2.57008	58.00
2.58675	58.00
2.60342	58.00
2.62008	58.00
2.63675	58.00
2.65342	58.00
2.67008	58.00
2.68675	58.00
2.70342	58.00
2.72008	58.00
2.73675	58.00
2.75342	58.00
2.77008	58.00
2.78675	58.00
2.80342	58.00
2.82008	58.00
2.83675	58.00
2.85342	58.00
2.87008	58.00
2.88675	58.00
2.90342	58.00
2.92008	58.00
2.93675	58.00
2.95342	58.00
2.97008	58.00
2.98675	58.00
3.00342	58.00
3.02008	58.00
3.03675	58.00
3.05342	58.00
3.07008	58.00
3.08675	58.00
3.10342	58.00
3.12008	58.00
3.13675	58.00
3.15342	58.00
3.17008	58.00
3.18675	58.00
3.20342	58.00
3.22008	58.00
3.23675	58.00
3.25342	58.00
3.27008	58.00
3.28675	58.00
3.30342	58.00
3.32008	58.00
3.33675	58.00
3.35342	58.00
3.37008	58.00
3.38675	58.00
3.40342	58.00
3.42008	58.00
3.43675	58.00
3.45342	58.00
3.47008	58.00
3.48675	58.00
3.50342	58.00
3.52008	58.00
3.53675	58.00
3.55342	58.00
3.57008	58.00
3.58675	58.00
3.60342	58.00
3.62008	58.00
3.63675	58.00
3.65342	58.00
3.67008	58.00
3.68675	58.00
3.70342	58.00
3.72008	58.00
3.73675	58.00
3.75342	58.00
3.77008	58.00
3.78675	58.00
3.80342	58.00
3.82008	58.00
3.83675	58.00
3.85342	58.00
3.87008	58.00
3.88675	58.00
3.90342	58.00
3.92008	58.00
3.93675	58.00
3.95342	58.00
3.97008	58.00
3.98675	58.00

[Status Trace (Carrier Gas Flow)]
Interval(msec)	1000
# of Points	240
Start Time(min)	0.003
End Time(min)	3.987
Intensity Units	
Intensity Multiplier	1
R.Time (min)	Intensity
0.00342	34.52
0.02008	34.58
0.03675	34.55
0.05342	34.54
0.07008	34.49
0.08675	34.52
0.10342	34.52
0.12008	34.52
0.13675	34.52
0.15342	34.52
0.17008	34.52
0.18675	34.51
0.20342	34.52
0.22008	34.52
0.23675	34.52
0.25342	34.52
0.27008	34.52
0.28675	34.52
0.30342	34.51
0.32008	34.52
0.33675	34.53
0.35342	34.52
0.37008	34.52
0.38675	34.51
0.40342	34.52
0.42008	34.52
0.43675	34.52
0.45342	34.52
0.47008	34.52
0.48675	34.52
0.50342	34.52
0.52008	34.52
0.53675	34.52
0.55342	34.52
0.57008	34.52
0.58675	34.53
0.60342	34.52
0.62008	34.51
0.63675	34.52
0.65342	34.52
0.67008	34.52
0.68675	34.52
0.70342	34.52
0.72008	34.52
0.73675	34.52
0.75342	34.52
0.77008	34.52
0.78675	34.52
0.80342	34.52
0.82008	34.52
0.83675	34.52
0.85342	34.52
0.87008	34.52
0.88675	34.52
0.90342	34.52
0.92008	34.52
0.93675	34.53
0.95342	34.53
0.97008	34.51
0.98675	34.52
1.00342	34.52
1.02008	34.52
1.03675	34.51
1.05342	34.52
1.07008	34.52
1.08675	34.52
1.10342	34.52
1.12008	34.52
1.13675	34.53
1.15342	34.52
1.17008	34.52
1.18675	34.52
1.20342	34.52
1.22008	34.52
1.23675	34.52
1.25342	34.52
1.27008	34.52
1.28675	34.52
1.30342	34.52
1.32008	34.52
1.33675	34.52
1.35342	34.52
1.37008	34.52
1.38675	34.52
1.40342	34.52
1.42008	34.52
1.43675	34.52
1.45342	34.52
1.47008	34.52
1.48675	34.52
1.50342	34.52
1.52008	34.52
1.53675	34.52
1.55342	34.52
1.57008	34.52
1.58675	34.52
1.60342	34.52
1.62008	34.52
1.63675	34.52
1.65342	34.52
1.67008	34.52
1.68675	34.52
1.70342	34.52
1.72008	34.52
1.73675	34.52
1.75342	34.52
1.77008	34.52
1.78675	34.52
1.80342	34.51
1.82008	34.53
1.83675	34.51
1.85342	34.52
1.87008	34.52
1.88675	34.52
1.90342	34.52
1.92008	34.52
1.93675	34.52
1.95342	34.53
1.97008	34.52
1.98675	34.52
2.00342	34.52
2.02008	34.51
2.03675	34.52
2.05342	34.52
2.07008	34.52
2.08675	34.52
2.10342	34.52
2.12008	34.51
2.13675	34.52
2.15342	34.52
2.17008	34.52
2.18675	34.52
2.20342	34.52
2.22008	34.52
2.23675	34.52
2.25342	34.52
2.27008	34.51
2.28675	34.52
2.30342	34.52
2.32008	34.52
2.33675	34.52
2.35342	34.52
2.37008	34.51
2.38675	34.53
2.40342	34.52
2.42008	34.52
2.43675	34.52
2.45342	34.52
2.47008	34.52
2.48675	34.52
2.50342	34.70
2.52008	34.52
2.53675	34.52
2.55342	34.51
2.57008	34.52
2.58675	34.51
2.60342	34.52
2.62008	34.52
2.63675	34.52
2.65342	34.51
2.67008	34.52
2.68675	34.52
2.70342	34.51
2.72008	34.52
2.73675	34.52
2.75342	34.52
2.77008	34.52
2.78675	34.52
2.80342	34.52
2.82008	34.52
2.83675	34.52
2.85342	34.52
2.87008	34.52
2.88675	34.52
2.90342	34.52
2.92008	34.52
2.93675	34.52
2.95342	34.52
2.97008	34.52
2.98675	34.52
3.00342	34.52
3.02008	34.52
3.03675	34.52
3.05342	34.52
3.07008	34.51
3.08675	34.52
3.10342	34.52
3.12008	34.52
3.13675	34.52
3.15342	34.52
3.17008	34.52
3.18675	34.52
3.20342	34.52
3.22008	34.52
3.23675	34.51
3.25342	34.52
3.27008	34.52
3.28675	34.52
3.30342	34.52
3.32008	34.52
3.33675	34.52
3.35342	34.52
3.37008	34.52
3.38675	34.52
3.40342	34.52
3.42008	34.52
3.43675	34.52
3.45342	34.52
3.47008	34.52
3.48675	34.52
3.50342	34.52
3.52008	34.52
3.53675	34.51
3.55342	34.52
3.57008	34.52
3.58675	34.52
3.60342	34.52
3.62008	34.52
3.63675	34.52
3.65342	34.52
3.67008	34.52
3.68675	34.52
3.70342	34.52
3.72008	34.51
3.73675	34.52
3.75342	34.52
3.77008	34.52
3.78675	34.52
3.80342	34.52
3.82008	34.52
3.83675	34.52
3.85342	34.52
3.87008	34.52
3.88675	34.52
3.90342	34.52
3.92008	34.52
3.93675	34.52
3.95342	34.52
3.97008	34.52
3.98675	34.52

[Status Trace (Column Flow)]
Interval(msec)	1000
# of Points	240
Start Time(min)	0.003
End Time(min)	3.987
Intensity Units	
Intensity Multiplier	1
R.Time (min)	Intensity
0.00342	5.51
0.02008	5.28
0.03675	5.32
0.05342	5.58
0.07008	5.73
0.08675	5.54
0.10342	5.51
0.12008	5.51
0.13675	5.51
0.15342	5.51
0.17008	5.51
0.18675	5.51
0.20342	5.51
0.22008	5.51
0.23675	5.51
0.25342	5.51
0.27008	5.51
0.28675	5.51
0.30342	5.51
0.32008	5.51
0.33675	5.51
0.35342	5.51
0.37008	5.51
0.38675	5.51
0.40342	5.51
0.42008	5.51
0.43675	5.51
0.45342	5.51
0.47008	5.51
0.48675	5.51
0.50342	5.51
0.52008	5.51
0.53675	5.51
0.55342	5.51
0.57008	5.51
0.58675	5.51
0.60342	5.51
0.62008	5.51
0.63675	5.51
0.65342	5.51
0.67008	5.51
0.68675	5.51
0.70342	5.51
0.72008	5.51
0.73675	5.51
0.75342	5.51
0.77008	5.51
0.78675	5.51
0.80342	5.51
0.82008	5.51
0.83675	5.51
0.85342	5.51
0.87008	5.51
0.88675	5.51
0.90342	5.51
0.92008	5.51
0.93675	5.51
0.95342	5.51
0.97008	5.51
0.98675	5.51
1.00342	5.51
1.02008	5.51
1.03675	5.51
1.05342	5.51
1.07008	5.51
1.08675	5.51
1.10342	5.51
1.12008	5.51
1.13675	5.51
1.15342	5.51
1.17008	5.51
1.18675	5.51
1.20342	5.51
1.22008	5.51
1.23675	5.51
1.25342	5.51
1.27008	5.51
1.28675	5.51
1.30342	5.51
1.32008	5.51
1.33675	5.51
1.35342	5.51
1.37008	5.51
1.38675	5.51
1.40342	5.51
1.42008	5.51
1.43675	5.51
1.45342	5.51
1.47008	5.51
1.48675	5.51
1.50342	5.51
1.52008	5.51
1.53675	5.51
1.55342	5.51
1.57008	5.51
1.58675	5.51
1.60342	5.51
1.62008	5.51
1.63675	5.50
1.65342	5.49
1.67008	5.48
1.68675	5.47
1.70342	5.46
1.72008	5.45
1.73675	5.44
1.75342	5.43
1.77008	5.42
1.78675	5.41
1.80342	5.40
1.82008	5.39
1.83675	5.38
1.85342	5.37
1.87008	5.36
1.88675	5.35
1.90342	5.34
1.92008	5.33
1.93675	5.32
1.95342	5.31
1.97008	5.30
1.98675	5.29
2.00342	5.28
2.02008	5.27
2.03675	5.26
2.05342	5.25
2.07008	5.24
2.08675	5.23
2.10342	5.22
2.12008	5.22
2.13675	5.21
2.15342	5.20
2.17008	5.19
2.18675	5.18
2.20342	5.17
2.22008	5.16
2.23675	5.15
2.25342	5.14
2.27008	5.13
2.28675	5.12
2.30342	5.11
2.32008	5.10
2.33675	5.09
2.35342	5.09
2.37008	5.08
2.38675	5.07
2.40342	5.07
2.42008	5.07
2.43675	5.07
2.45342	5.07
2.47008	5.07
2.48675	5.07
2.50342	5.07
2.52008	5.07
2.53675	5.07
2.55342	5.07
2.57008	5.07
2.58675	5.07
2.60342	5.07
2.62008	5.07
2.63675	5.07
2.65342	5.07
2.67008	5.07
2.68675	5.07
2.70342	5.07
2.72008	5.07
2.73675	5.07
2.75342	5.07
2.77008	5.07
2.78675	5.07
2.80342	5.07
2.82008	5.07
2.83675	5.07
2.85342	5.07
2.87008	5.07
2.88675	5.07
2.90342	5.07
2.92008	5.07
2.93675	5.07
2.95342	5.07
2.97008	5.07
2.98675	5.07
3.00342	5.07
3.02008	5.07
3.03675	5.07
3.05342	5.07
3.07008	5.07
3.08675	5.07
3.10342	5.07
3.12008	5.07
3.13675	5.07
3.15342	5.07
3.17008	5.07
3.18675	5.07
3.20342	5.07
3.22008	5.07
3.23675	5.07
3.25342	5.07
3.27008	5.07
3.28675	5.07
3.30342	5.07
3.32008	5.07
3.33675	5.07
3.35342	5.07
3.37008	5.07
3.38675	5.07
3.40342	5.07
3.42008	5.07
3.43675	5.07
3.45342	5.07
3.47008	5.07
3.48675	5.07
3.50342	5.07
3.52008	5.07
3.53675	5.07
3.55342	5.07
3.57008	5.07
3.58675	5.07
3.60342	5.07
3.62008	5.07
3.63675	5.07
3.65342	5.07
3.67008	5.07
3.68675	5.07
3.70342	5.07
3.72008	5.07
3.73675	5.07
3.75342	5.07
3.77008	5.07
3.78675	5.07
3.80342	5.07
3.82008	5.07
3.83675	5.07
3.85342	5.07
3.87008	5.07
3.88675	5.07
3.90342	5.07
3.92008	5.07
3.93675	5.07
3.95342	5.07
3.97008	5.07
3.98675	5.07

[Status Trace (Linear Velocity)]
Interval(msec)	1000
# of Points	240
Start Time(min)	0.003
End Time(min)	3.987
Intensity Units	
Intensity Multiplier	1
R.Time (min)	Intensity
0.00342	39.01
0.02008	37.74
0.03675	37.93
0.05342	39.42
0.07008	40.22
0.08675	39.21
0.10342	38.99
0.12008	39.01
0.13675	39.02
0.15342	39.02
0.17008	39.01
0.18675	39.01
0.20342	39.01
0.22008	39.01
0.23675	39.01
0.25342	39.01
0.27008	39.01
0.28675	39.01
0.30342	39.01
0.32008	39.01
0.33675	39.01
0.35342	39.01
0.37008	39.01
0.38675	39.01
0.40342	39.01
0.42008	39.01
0.43675	39.01
0.45342	39.01
0.47008	39.01
0.48675	39.01
0.50342	39.01
0.52008	39.01
0.53675	39.01
0.55342	39.01
0.57008	39.01
0.58675	39.01
0.60342	39.01
0.62008	39.01
0.63675	39.01
0.65342	39.01
0.67008	39.01
0.68675	39.01
0.70342	39.01
0.72008	39.01
0.73675	39.01
0.75342	39.02
0.77008	39.01
0.78675	39.01
0.80342	39.01
0.82008	39.01
0.83675	39.01
0.85342	39.01
0.87008	39.01
0.88675	39.01
0.90342	39.01
0.92008	39.01
0.93675	39.02
0.95342	39.01
0.97008	39.01
0.98675	39.02
1.00342	39.02
1.02008	39.02
1.03675	39.02
1.05342	39.02
1.07008	39.02
1.08675	39.02
1.10342	39.01
1.12008	39.01
1.13675	39.01
1.15342	39.01
1.17008	39.01
1.18675	39.01
1.20342	39.01
1.22008	39.01
1.23675	39.01
1.25342	39.01
1.27008	39.01
1.28675	39.02
1.30342	39.02
1.32008	39.02
1.33675	39.01
1.35342	39.02
1.37008	39.02
1.38675	39.02
1.40342	39.02
1.42008	39.02
1.43675	39.02
1.45342	39.02
1.47008	39.02
1.48675	39.02
1.50342	39.01
1.52008	39.01
1.53675	39.01
1.55342	39.02
1.57008	39.02
1.58675	39.01
1.60342	39.01
1.62008	39.00
1.63675	38.99
1.65342	38.97
1.67008	38.94
1.68675	38.90
1.70342	38.87
1.72008	38.83
1.73675	38.80
1.75342	38.77
1.77008	38.74
1.78675	38.71
1.80342	38.67
1.82008	38.64
1.83675	38.61
1.85342	38.58
1.87008	38.55
1.88675	38.52
1.90342	38.49
1.92008	38.46
1.93675	38.43
1.95342	38.40
1.97008	38.37
1.98675	38.34
2.00342	38.31
2.02008	38.28
2.03675	38.25
2.05342	38.22
2.07008	38.19
2.08675	38.16
2.10342	38.13
2.12008	38.10
2.13675	38.07
2.15342	38.04
2.17008	38.01
2.18675	37.98
2.20342	37.95
2.22008	37.92
2.23675	37.89
2.25342	37.86
2.27008	37.83
2.28675	37.80
2.30342	37.77
2.32008	37.74
2.33675	37.71
2.35342	37.69
2.37008	37.66
2.38675	37.65
2.40342	37.64
2.42008	37.65
2.43675	37.65
2.45342	37.65
2.47008	37.65
2.48675	37.65
2.50342	37.62
2.52008	37.65
2.53675	37.64
2.55342	37.65
2.57008	37.65
2.58675	37.65
2.60342	37.65
2.62008	37.64
2.63675	37.64
2.65342	37.64
2.67008	37.64
2.68675	37.64
2.70342	37.64
2.72008	37.64
2.73675	37.64
2.75342	37.64
2.77008	37.64
2.78675	37.64
2.80342	37.64
2.82008	37.64
2.83675	37.64
2.85342	37.64
2.87008	37.64
2.88675	37.64
2.90342	37.63
2.92008	37.63
2.93675	37.63
2.95342	37.63
2.97008	37.63
2.98675	37.63
3.00342	37.63
3.02008	37.63
3.03675	37.63
3.05342	37.63
3.07008	37.62
3.08675	37.62
3.10342	37.62
3.12008	37.62
3.13675	37.62
3.15342	37.62
3.17008	37.62
3.18675	37.62
3.20342	37.62
3.22008	37.62
3.23675	37.62
3.25342	37.62
3.27008	37.62
3.28675	37.62
3.30342	37.63
3.32008	37.62
3.33675	37.62
3.35342	37.63
3.37008	37.63
3.38675	37.63
3.40342	37.63
3.42008	37.63
3.43675	37.63
3.45342	37.63
3.47008	37.63
3.48675	37.63
3.50342	37.63
3.52008	37.63
3.53675	37.63
3.55342	37.62
3.57008	37.62
3.58675	37.62
3.60342	37.62
3.62008	37.62
3.63675	37.62
3.65342	37.62
3.67008	37.62
3.68675	37.62
3.70342	37.62
3.72008	37.62
3.73675	37.62
3.75342	37.62
3.77008	37.62
3.78675	37.62
3.80342	37.62
3.82008	37.62
3.83675	37.62
3.85342	37.63
3.87008	37.62
3.88675	37.62
3.90342	37.62
3.92008	37.62
3.93675	37.62
3.95342	37.62
3.97008	37.62
3.98675	37.62

