[Header]
Application Name	LabSolutions
Version	5.110
Data File Name	C:\Users\User\Desktop\Junior\UIC Prairie Sampling\7.18.23\071823_032.gcd
Output Date	8/29/2023
Output Time	10:40:21 AM

[File Information]
Type	Data File
Generated	8/28/2023 5:45:55 PM
Generated by	System Administrator
Modified	8/28/2023 5:52:33 PM
Modified by	System Administrator

[Sample Information]
Operator Name	System Administrator
Acquired	8/28/2023 5:48:33 PM
Sample Type	0:Unknown
Level	0
Sample Name	032
Sample ID	032
ISTD Amount1	1
ISTD Amount2	1
ISTD Amount3	1
ISTD Amount4	1
ISTD Amount5	1
ISTD Amount6	1
ISTD Amount7	1
ISTD Amount8	1
ISTD Amount9	1
ISTD Amount10	1
ISTD Amount11	1
ISTD Amount12	1
ISTD Amount13	1
ISTD Amount14	1
ISTD Amount15	1
ISTD Amount16	1
ISTD Amount17	1
ISTD Amount18	1
ISTD Amount19	1
ISTD Amount20	1
ISTD Amount21	1
ISTD Amount22	1
ISTD Amount23	1
ISTD Amount24	1
ISTD Amount25	1
ISTD Amount26	1
ISTD Amount27	1
ISTD Amount28	1
ISTD Amount29	1
ISTD Amount30	1
ISTD Amount31	1
ISTD Amount32	1
Sample Amount	1
Dilution Factor	1
Vial#	31
Injection Volume	1
Injection Count	1
Bar Code	

[Original Files]
Data File	C:\Users\User\Desktop\Junior\UIC Prairie Sampling\7.18.23\071823_032.gcd
Method File	C:\LabSolutions\Data\GHG_4min_2022\ghg3_togas_w_acet_4 min_new_int.gcm
Batch File	C:\LabSolutions\Data\BATCH FILES\071823.gcb
Report Format File	c:\LabSolutions\System\DEFAULT.lsr

[File Description]


[Configuration]
Instrument Name	C0B7VH3-Instrument1
Instrument #	1
Line #	1
# of Detectors	3
Detector ID	DET#1	DET#2	DET#3
Detector Name	FID	PTCD	ECD
# of Channels	1	1	1

[Peak Table(Ch1)]
# of Peaks	4
Peak#	R.Time	I.Time	F.Time	Area	Height	A/H	Conc.	Mark	ID#	Name	k'	Plate #	Plate Ht.	Tailing	Resolution	Sep.Factor	Area Ratio	Height Ratio	Conc. %	Norm Conc.
1	0.310	0.189	0.423	1507	193	7.825	0.000	   			0.000	39	3847.625	0.975	0.000	0.000	0	0	0.000	0.000
2	1.472	1.424	1.531	10354	5161	2.006	0.000	   	1	CO	3.753	9943	15.087	1.295	9.030	0.000	0	0	0.000	0.000
3	1.564	1.531	1.626	4326	2209	1.958	21.089	 V 	2	CH4	4.050	11536	13.002	1.129	1.563	1.079	0	0	6.934	6.934
4	1.989	1.945	2.510	1468790	704275	2.086	283.063	   	3	CO2	5.423	17681	8.484	1.334	7.205	1.339	0	0	93.066	93.066

[Peak Table(Ch2)]
# of Peaks	0

[Peak Table(Ch3)]
# of Peaks	6
Peak#	R.Time	I.Time	F.Time	Area	Height	A/H	Conc.	Mark	ID#	Name	k'	Plate #	Plate Ht.	Tailing	Resolution	Sep.Factor	Area Ratio	Height Ratio	Conc. %	Norm Conc.
1	2.458	2.440	2.502	451	195	2.310	0.000	   			0.000	19781	7.583	0.000	0.000	0.000	0	0	0.000	0.000
2	2.521	2.502	2.561	177	81	2.176	0.000	 V 			0.025	6745	22.238	0.000	0.647	0.000	0	0	0.000	0.000
3	2.609	2.561	2.667	256	80	3.191	0.000	 V 			0.061	12103	12.394	0.000	0.809	2.412	0	0	0.000	0.000
4	2.891	2.836	2.986	12876	3647	3.530	0.190	   	1	N2O	0.176	14311	10.482	1.512	2.948	2.878	0	0	100.000	100.000
5	3.060	2.986	3.327	12500	796	15.696	0.000	 V 	2	SF6	0.245	249	601.746	0.000	0.387	1.390	0	0	0.000	0.000
6	3.397	3.327	3.965	9011	540	16.687	0.000	 V 			0.382	286	524.116	0.000	0.427	1.561	0	0	0.000	0.000

[Compound Results(Ch1)]
# of IDs	6
ID#	Name	R.Time	Area	Height	Conc.	Curve	3rd	2nd	1st	Constant	Area Ratio	Height Ratio	Conc. %	Norm Conc.
1	CO	1.472	10354	5161	0.000	Linear	0.000000e+00	0.000000e+00	0.000000e+00	0.000000e+00	0	0	0.000	0.000
2	CH4	1.564	4326	2209	21.089	Linear	0.000000e+00	0.000000e+00	2.051179e+002	0.000000e+00	0	0	6.934	6.934
3	CO2	1.989	1468790	704275	283.063	Linear	0.000000e+00	0.000000e+00	5.188919e+003	0.000000e+00	0	0	93.066	93.066
4	Ethylene	0.000	0	0	0.000	Linear	0.000000e+00	0.000000e+00	0.000000e+00	0.000000e+00	0	0	0.000	0.000
5	Acetylene	0.000	0	0	0.000	Linear	0.000000e+00	0.000000e+00	0.000000e+00	0.000000e+00	0	0	0.000	0.000
6	Ethane	0.000	0	0	0.000	Linear	0.000000e+00	0.000000e+00	0.000000e+00	0.000000e+00	0	0	0.000	0.000

[Compound Results(Ch2)]
# of IDs	5
ID#	Name	R.Time	Area	Height	Conc.	Curve	3rd	2nd	1st	Constant	Area Ratio	Height Ratio	Conc. %	Norm Conc.
1	Hydrogen	0.000	0	0	0.000	Linear	0.000000e+00	0.000000e+00	0.000000e+00	0.000000e+00	0	0	0.000	0.000
2	Oxygen	0.000	0	0	0.000	Linear	0.000000e+00	0.000000e+00	0.000000e+00	0.000000e+00	0	0	0.000	0.000
3	Nitrogen	0.000	0	0	0.000	Linear	0.000000e+00	0.000000e+00	0.000000e+00	0.000000e+00	0	0	0.000	0.000
4	Methane	0.000	0	0	0.000	Linear	0.000000e+00	0.000000e+00	0.000000e+00	0.000000e+00	0	0	0.000	0.000
5	Carbon Monoxide	0.000	0	0	0.000	Linear	0.000000e+00	0.000000e+00	0.000000e+00	0.000000e+00	0	0	0.000	0.000

[Compound Results(Ch3)]
# of IDs	2
ID#	Name	R.Time	Area	Height	Conc.	Curve	3rd	2nd	1st	Constant	Area Ratio	Height Ratio	Conc. %	Norm Conc.
1	N2O	2.891	12876	3647	0.190	Linear	0.000000e+00	0.000000e+00	6.759880e+004	0.000000e+00	0	0	100.000	100.000
2	SF6	3.060	12500	796	0.000	Linear	0.000000e+00	0.000000e+00	0.000000e+00	0.000000e+00	0	0	0.000	0.000

[Group Results(Ch1)]
# of Groups	0

[Group Results(Ch2)]
# of Groups	0

[Group Results(Ch3)]
# of Groups	0

[Chromatogram (Ch1)]
Interval(msec)	220
# of Points	1091
Start Time(min)	0.002
End Time(min)	3.998
R.Time (min)	Intensity
0.00167	17
0.00533	20
0.00900	24
0.01267	25
0.01633	23
0.02000	18
0.02367	15
0.02733	16
0.03100	17
0.03467	14
0.03833	11
0.04200	9
0.04567	8
0.04933	4
0.05300	1
0.05667	-4
0.06033	-8
0.06400	-9
0.06767	-9
0.07133	-3
0.07500	4
0.07867	11
0.08233	19
0.08600	26
0.08967	31
0.09333	30
0.09700	28
0.10067	23
0.10433	12
0.10800	2
0.11167	-1
0.11533	-1
0.11900	-1
0.12267	-1
0.12633	0
0.13000	-0
0.13367	-2
0.13733	-7
0.14100	-8
0.14467	-5
0.14833	0
0.15200	4
0.15567	4
0.15933	1
0.16300	-4
0.16667	-7
0.17033	-9
0.17400	-8
0.17767	-4
0.18133	1
0.18500	5
0.18867	10
0.19233	17
0.19600	26
0.19967	34
0.20333	39
0.20700	45
0.21067	48
0.21433	50
0.21800	62
0.22167	82
0.22533	99
0.22900	109
0.23267	115
0.23633	118
0.24000	118
0.24367	119
0.24733	123
0.25100	130
0.25467	136
0.25833	142
0.26200	151
0.26567	162
0.26933	172
0.27300	181
0.27667	186
0.28033	187
0.28400	186
0.28767	188
0.29133	196
0.29500	203
0.29867	207
0.30233	212
0.30600	216
0.30967	220
0.31333	219
0.31700	215
0.32067	209
0.32433	205
0.32800	203
0.33167	201
0.33533	199
0.33900	196
0.34267	190
0.34633	183
0.35000	180
0.35367	177
0.35733	170
0.36100	157
0.36467	144
0.36833	132
0.37200	118
0.37567	106
0.37933	99
0.38300	94
0.38667	92
0.39033	95
0.39400	98
0.39767	99
0.40133	96
0.40500	90
0.40867	82
0.41233	74
0.41600	64
0.41967	52
0.42333	43
0.42700	38
0.43067	39
0.43433	41
0.43800	40
0.44167	41
0.44533	41
0.44900	41
0.45267	38
0.45633	36
0.46000	33
0.46367	28
0.46733	22
0.47100	19
0.47467	21
0.47833	22
0.48200	23
0.48567	23
0.48933	22
0.49300	22
0.49667	21
0.50033	20
0.50400	17
0.50767	13
0.51133	10
0.51500	11
0.51867	18
0.52233	25
0.52600	32
0.52967	36
0.53333	36
0.53700	33
0.54067	29
0.54433	24
0.54800	18
0.55167	16
0.55533	18
0.55900	21
0.56267	22
0.56633	24
0.57000	27
0.57367	29
0.57733	28
0.58100	26
0.58467	24
0.58833	20
0.59200	17
0.59567	14
0.59933	15
0.60300	16
0.60667	17
0.61033	19
0.61400	24
0.61767	26
0.62133	23
0.62500	18
0.62867	14
0.63233	11
0.63600	11
0.63967	14
0.64333	16
0.64700	17
0.65067	19
0.65433	24
0.65800	32
0.66167	41
0.66533	47
0.66900	48
0.67267	46
0.67633	44
0.68000	41
0.68367	38
0.68733	35
0.69100	33
0.69467	28
0.69833	21
0.70200	12
0.70567	3
0.70933	-3
0.71300	-4
0.71667	0
0.72033	6
0.72400	11
0.72767	14
0.73133	13
0.73500	12
0.73867	12
0.74233	14
0.74600	17
0.74967	19
0.75333	17
0.75700	15
0.76067	16
0.76433	17
0.76800	18
0.77167	16
0.77533	16
0.77900	18
0.78267	20
0.78633	23
0.79000	26
0.79367	26
0.79733	24
0.80100	19
0.80467	13
0.80833	10
0.81200	10
0.81567	12
0.81933	13
0.82300	13
0.82667	13
0.83033	15
0.83400	18
0.83767	22
0.84133	26
0.84500	26
0.84867	25
0.85233	25
0.85600	27
0.85967	31
0.86333	34
0.86700	34
0.87067	33
0.87433	30
0.87800	29
0.88167	29
0.88533	30
0.88900	29
0.89267	27
0.89633	24
0.90000	19
0.90367	14
0.90733	11
0.91100	9
0.91467	6
0.91833	3
0.92200	4
0.92567	8
0.92933	11
0.93300	14
0.93667	17
0.94033	19
0.94400	20
0.94767	20
0.95133	18
0.95500	18
0.95867	19
0.96233	23
0.96600	27
0.96967	27
0.97333	27
0.97700	27
0.98067	28
0.98433	24
0.98800	16
0.99167	10
0.99533	6
0.99900	2
1.00267	0
1.00633	3
1.01000	5
1.01367	6
1.01733	5
1.02100	5
1.02467	7
1.02833	12
1.03200	20
1.03567	24
1.03933	25
1.04300	28
1.04667	33
1.05033	35
1.05400	35
1.05767	36
1.06133	37
1.06500	40
1.06867	42
1.07233	39
1.07600	33
1.07967	26
1.08333	18
1.08700	10
1.09067	6
1.09433	5
1.09800	7
1.10167	9
1.10533	12
1.10900	15
1.11267	17
1.11633	19
1.12000	20
1.12367	19
1.12733	15
1.13100	7
1.13467	-0
1.13833	1
1.14200	7
1.14567	14
1.14933	20
1.15300	25
1.15667	28
1.16033	27
1.16400	25
1.16767	22
1.17133	19
1.17500	14
1.17867	9
1.18233	1
1.18600	-6
1.18967	-8
1.19333	-6
1.19700	-5
1.20067	-6
1.20433	-6
1.20800	-3
1.21167	1
1.21533	3
1.21900	6
1.22267	10
1.22633	15
1.23000	20
1.23367	23
1.23733	21
1.24100	16
1.24467	10
1.24833	7
1.25200	9
1.25567	10
1.25933	9
1.26300	5
1.26667	3
1.27033	4
1.27400	9
1.27767	13
1.28133	14
1.28500	11
1.28867	8
1.29233	8
1.29600	10
1.29967	14
1.30333	19
1.30700	22
1.31067	22
1.31433	19
1.31800	15
1.32167	10
1.32533	11
1.32900	10
1.33267	9
1.33633	7
1.34000	2
1.34367	-1
1.34733	-1
1.35100	1
1.35467	7
1.35833	12
1.36200	14
1.36567	13
1.36933	9
1.37300	5
1.37667	1
1.38033	-2
1.38400	-4
1.38767	-5
1.39133	-7
1.39500	-10
1.39867	-11
1.40233	-10
1.40600	-10
1.40967	-10
1.41333	-10
1.41700	-9
1.42067	-6
1.42433	1
1.42800	5
1.43167	8
1.43533	16
1.43900	39
1.44267	84
1.44633	261
1.45000	786
1.45367	1682
1.45733	2729
1.46100	3702
1.46467	4477
1.46833	4986
1.47200	5165
1.47567	4969
1.47933	4429
1.48300	3673
1.48667	2863
1.49033	2131
1.49400	1540
1.49767	1096
1.50133	773
1.50500	544
1.50867	385
1.51233	275
1.51600	199
1.51967	147
1.52333	109
1.52700	83
1.53067	71
1.53433	91
1.53800	192
1.54167	430
1.54533	803
1.54900	1235
1.55267	1638
1.55633	1956
1.56000	2159
1.56367	2220
1.56733	2114
1.57100	1855
1.57467	1506
1.57833	1145
1.58200	831
1.58567	580
1.58933	390
1.59300	256
1.59667	165
1.60033	107
1.60400	73
1.60767	54
1.61133	41
1.61500	32
1.61867	26
1.62233	20
1.62600	15
1.62967	11
1.63333	8
1.63700	7
1.64067	9
1.64433	15
1.64800	18
1.65167	14
1.65533	7
1.65900	-1
1.66267	-11
1.66633	-22
1.67000	-31
1.67367	-35
1.67733	-30
1.68100	-23
1.68467	-18
1.68833	-15
1.69200	-9
1.69567	-7
1.69933	-9
1.70300	-12
1.70667	-14
1.71033	-15
1.71400	-15
1.71767	-16
1.72133	-17
1.72500	-18
1.72867	-16
1.73233	-13
1.73600	-8
1.73967	-1
1.74333	6
1.74700	10
1.75067	11
1.75433	7
1.75800	3
1.76167	1
1.76533	3
1.76900	4
1.77267	4
1.77633	5
1.78000	6
1.78367	6
1.78733	5
1.79100	1
1.79467	-10
1.79833	-21
1.80200	-26
1.80567	-25
1.80933	-20
1.81300	-13
1.81667	-8
1.82033	-5
1.82400	1
1.82767	7
1.83133	11
1.83500	15
1.83867	22
1.84233	30
1.84600	36
1.84967	39
1.85333	40
1.85700	41
1.86067	41
1.86433	36
1.86800	30
1.87167	26
1.87533	22
1.87900	18
1.88267	14
1.88633	10
1.89000	8
1.89367	6
1.89733	2
1.90100	-2
1.90467	-5
1.90833	-9
1.91200	-9
1.91567	-4
1.91933	5
1.92300	13
1.92667	17
1.93033	17
1.93400	18
1.93767	18
1.94133	20
1.94500	30
1.94867	102
1.95233	556
1.95600	2807
1.95967	11267
1.96333	35340
1.96700	88087
1.97067	178245
1.97433	300931
1.97800	437231
1.98167	562984
1.98533	656824
1.98900	704327
1.99267	699960
1.99633	647196
2.00000	558834
2.00367	453417
2.00733	348778
2.01100	257152
2.01467	183877
2.01833	128971
2.02200	89671
2.02567	62396
2.02933	43833
2.03300	31331
2.03667	22933
2.04033	17268
2.04400	13409
2.04767	10738
2.05133	8855
2.05500	7497
2.05867	6494
2.06233	5732
2.06600	5132
2.06967	4644
2.07333	4241
2.07700	3904
2.08067	3619
2.08433	3374
2.08800	3161
2.09167	2974
2.09533	2806
2.09900	2658
2.10267	2526
2.10633	2407
2.11000	2300
2.11367	2202
2.11733	2107
2.12100	2016
2.12467	1934
2.12833	1863
2.13200	1797
2.13567	1731
2.13933	1667
2.14300	1609
2.14667	1559
2.15033	1515
2.15400	1474
2.15767	1434
2.16133	1394
2.16500	1356
2.16867	1316
2.17233	1278
2.17600	1241
2.17967	1206
2.18333	1175
2.18700	1145
2.19067	1117
2.19433	1089
2.19800	1060
2.20167	1033
2.20533	1005
2.20900	976
2.21267	950
2.21633	924
2.22000	898
2.22367	871
2.22733	847
2.23100	830
2.23467	815
2.23833	800
2.24200	785
2.24567	772
2.24933	759
2.25300	748
2.25667	739
2.26033	728
2.26400	716
2.26767	701
2.27133	684
2.27500	668
2.27867	655
2.28233	642
2.28600	630
2.28967	619
2.29333	610
2.29700	604
2.30067	600
2.30433	593
2.30800	584
2.31167	573
2.31533	567
2.31900	563
2.32267	560
2.32633	556
2.33000	552
2.33367	546
2.33733	539
2.34100	529
2.34467	514
2.34833	501
2.35200	492
2.35567	486
2.35933	480
2.36300	471
2.36667	463
2.37033	456
2.37400	447
2.37767	437
2.38133	431
2.38500	428
2.38867	428
2.39233	426
2.39600	421
2.39967	416
2.40333	414
2.40700	413
2.41067	416
2.41433	420
2.41800	420
2.42167	419
2.42533	415
2.42900	412
2.43267	409
2.43633	403
2.44000	393
2.44367	384
2.44733	377
2.45100	372
2.45467	368
2.45833	362
2.46200	356
2.46567	351
2.46933	347
2.47300	348
2.47667	352
2.48033	352
2.48400	346
2.48767	337
2.49133	328
2.49500	323
2.49867	321
2.50233	319
2.50600	318
2.50967	318
2.51333	322
2.51700	326
2.52067	329
2.52433	332
2.52800	332
2.53167	328
2.53533	324
2.53900	322
2.54267	319
2.54633	315
2.55000	307
2.55367	300
2.55733	292
2.56100	282
2.56467	276
2.56833	274
2.57200	272
2.57567	267
2.57933	264
2.58300	266
2.58667	270
2.59033	271
2.59400	271
2.59767	271
2.60133	270
2.60500	265
2.60867	260
2.61233	253
2.61600	247
2.61967	244
2.62333	241
2.62700	240
2.63067	240
2.63433	241
2.63800	242
2.64167	242
2.64533	239
2.64900	235
2.65267	228
2.65633	218
2.66000	208
2.66367	203
2.66733	203
2.67100	205
2.67467	206
2.67833	205
2.68200	203
2.68567	204
2.68933	204
2.69300	205
2.69667	205
2.70033	204
2.70400	203
2.70767	203
2.71133	203
2.71500	203
2.71867	201
2.72233	200
2.72600	200
2.72967	200
2.73333	197
2.73700	194
2.74067	193
2.74433	192
2.74800	191
2.75167	191
2.75533	192
2.75900	192
2.76267	191
2.76633	188
2.77000	183
2.77367	180
2.77733	182
2.78100	185
2.78467	186
2.78833	182
2.79200	178
2.79567	176
2.79933	177
2.80300	179
2.80667	181
2.81033	181
2.81400	177
2.81767	173
2.82133	170
2.82500	167
2.82867	167
2.83233	167
2.83600	167
2.83967	165
2.84333	162
2.84700	157
2.85067	151
2.85433	144
2.85800	140
2.86167	139
2.86533	141
2.86900	147
2.87267	153
2.87633	155
2.88000	151
2.88367	147
2.88733	143
2.89100	139
2.89467	137
2.89833	137
2.90200	137
2.90567	135
2.90933	131
2.91300	129
2.91667	129
2.92033	130
2.92400	131
2.92767	127
2.93133	123
2.93500	122
2.93867	125
2.94233	128
2.94600	130
2.94967	130
2.95333	129
2.95700	127
2.96067	126
2.96433	124
2.96800	123
2.97167	126
2.97533	130
2.97900	133
2.98267	138
2.98633	139
2.99000	136
2.99367	132
2.99733	128
3.00100	127
3.00467	125
3.00833	123
3.01200	122
3.01567	122
3.01933	125
3.02300	129
3.02667	131
3.03033	128
3.03400	119
3.03767	112
3.04133	109
3.04500	106
3.04867	102
3.05233	96
3.05600	91
3.05967	92
3.06333	98
3.06700	102
3.07067	102
3.07433	103
3.07800	108
3.08167	111
3.08533	108
3.08900	103
3.09267	99
3.09633	97
3.10000	98
3.10367	100
3.10733	102
3.11100	100
3.11467	96
3.11833	93
3.12200	89
3.12567	85
3.12933	82
3.13300	80
3.13667	77
3.14033	74
3.14400	74
3.14767	79
3.15133	83
3.15500	84
3.15867	83
3.16233	79
3.16600	76
3.16967	77
3.17333	78
3.17700	82
3.18067	89
3.18433	97
3.18800	102
3.19167	103
3.19533	104
3.19900	101
3.20267	94
3.20633	86
3.21000	78
3.21367	69
3.21733	59
3.22100	51
3.22467	45
3.22833	45
3.23200	47
3.23567	50
3.23933	54
3.24300	57
3.24667	58
3.25033	59
3.25400	60
3.25767	61
3.26133	65
3.26500	71
3.26867	76
3.27233	77
3.27600	74
3.27967	69
3.28333	65
3.28700	65
3.29067	64
3.29433	63
3.29800	60
3.30167	56
3.30533	53
3.30900	52
3.31267	52
3.31633	52
3.32000	50
3.32367	46
3.32733	43
3.33100	43
3.33467	44
3.33833	46
3.34200	48
3.34567	49
3.34933	49
3.35300	50
3.35667	51
3.36033	53
3.36400	53
3.36767	49
3.37133	47
3.37500	48
3.37867	49
3.38233	50
3.38600	47
3.38967	42
3.39333	39
3.39700	39
3.40067	42
3.40433	46
3.40800	50
3.41167	54
3.41533	56
3.41900	57
3.42267	59
3.42633	59
3.43000	58
3.43367	58
3.43733	58
3.44100	57
3.44467	55
3.44833	54
3.45200	55
3.45567	55
3.45933	56
3.46300	57
3.46667	59
3.47033	59
3.47400	53
3.47767	46
3.48133	42
3.48500	41
3.48867	43
3.49233	47
3.49600	49
3.49967	50
3.50333	52
3.50700	52
3.51067	52
3.51433	50
3.51800	47
3.52167	46
3.52533	45
3.52900	44
3.53267	42
3.53633	40
3.54000	39
3.54367	35
3.54733	34
3.55100	33
3.55467	31
3.55833	30
3.56200	27
3.56567	21
3.56933	17
3.57300	16
3.57667	17
3.58033	21
3.58400	25
3.58767	27
3.59133	29
3.59500	29
3.59867	26
3.60233	26
3.60600	26
3.60967	29
3.61333	33
3.61700	37
3.62067	39
3.62433	38
3.62800	35
3.63167	32
3.63533	32
3.63900	35
3.64267	39
3.64633	40
3.65000	37
3.65367	32
3.65733	29
3.66100	26
3.66467	23
3.66833	23
3.67200	23
3.67567	24
3.67933	24
3.68300	22
3.68667	20
3.69033	18
3.69400	18
3.69767	18
3.70133	19
3.70500	21
3.70867	24
3.71233	25
3.71600	23
3.71967	21
3.72333	19
3.72700	18
3.73067	19
3.73433	23
3.73800	30
3.74167	34
3.74533	35
3.74900	33
3.75267	31
3.75633	28
3.76000	22
3.76367	17
3.76733	14
3.77100	12
3.77467	10
3.77833	6
3.78200	3
3.78567	3
3.78933	3
3.79300	5
3.79667	9
3.80033	11
3.80400	14
3.80767	21
3.81133	27
3.81500	30
3.81867	32
3.82233	35
3.82600	35
3.82967	34
3.83333	29
3.83700	19
3.84067	8
3.84433	-1
3.84800	-6
3.85167	-6
3.85533	-2
3.85900	4
3.86267	13
3.86633	20
3.87000	25
3.87367	27
3.87733	24
3.88100	19
3.88467	16
3.88833	17
3.89200	21
3.89567	27
3.89933	33
3.90300	37
3.90667	38
3.91033	35
3.91400	31
3.91767	27
3.92133	24
3.92500	23
3.92867	22
3.93233	19
3.93600	16
3.93967	13
3.94333	9
3.94700	5
3.95067	5
3.95433	5
3.95800	7
3.96167	9
3.96533	8
3.96900	3
3.97267	-2
3.97633	-7
3.98000	-11
3.98367	-11
3.98733	-8
3.99100	-8
3.99467	-9
3.99833	-9

[Chromatogram (Ch2)]
Interval(msec)	220
# of Points	1091
Start Time(min)	0.002
End Time(min)	3.998
R.Time (min)	Intensity
0.00167	-0
0.00533	-0
0.00900	-0
0.01267	-1
0.01633	-1
0.02000	-1
0.02367	-1
0.02733	-1
0.03100	-0
0.03467	-0
0.03833	-0
0.04200	0
0.04567	0
0.04933	0
0.05300	0
0.05667	0
0.06033	0
0.06400	0
0.06767	-0
0.07133	-0
0.07500	-0
0.07867	-0
0.08233	-0
0.08600	0
0.08967	1
0.09333	1
0.09700	1
0.10067	1
0.10433	1
0.10800	1
0.11167	1
0.11533	1
0.11900	1
0.12267	1
0.12633	1
0.13000	1
0.13367	1
0.13733	1
0.14100	1
0.14467	0
0.14833	0
0.15200	-0
0.15567	-1
0.15933	-1
0.16300	-1
0.16667	-1
0.17033	-1
0.17400	-1
0.17767	-1
0.18133	-0
0.18500	-0
0.18867	-0
0.19233	-0
0.19600	-0
0.19967	-1
0.20333	-1
0.20700	-1
0.21067	-1
0.21433	-1
0.21800	-1
0.22167	-1
0.22533	-1
0.22900	-1
0.23267	-1
0.23633	-1
0.24000	-1
0.24367	-1
0.24733	-1
0.25100	-1
0.25467	-1
0.25833	-2
0.26200	-2
0.26567	-2
0.26933	-2
0.27300	-2
0.27667	-2
0.28033	-2
0.28400	-2
0.28767	-2
0.29133	-2
0.29500	-1
0.29867	-1
0.30233	-1
0.30600	-1
0.30967	-1
0.31333	-1
0.31700	-1
0.32067	-1
0.32433	-1
0.32800	-1
0.33167	-1
0.33533	-1
0.33900	-1
0.34267	-1
0.34633	-1
0.35000	-1
0.35367	-1
0.35733	-1
0.36100	-1
0.36467	-1
0.36833	-1
0.37200	-2
0.37567	-2
0.37933	-2
0.38300	-2
0.38667	-2
0.39033	-2
0.39400	-2
0.39767	-2
0.40133	-2
0.40500	-2
0.40867	-2
0.41233	-2
0.41600	-2
0.41967	-2
0.42333	-2
0.42700	-2
0.43067	-2
0.43433	-1
0.43800	-1
0.44167	-1
0.44533	-1
0.44900	-1
0.45267	-1
0.45633	-1
0.46000	-1
0.46367	-1
0.46733	-1
0.47100	-1
0.47467	-1
0.47833	-1
0.48200	-1
0.48567	-1
0.48933	-1
0.49300	-1
0.49667	-1
0.50033	-1
0.50400	-1
0.50767	-1
0.51133	-1
0.51500	-1
0.51867	-1
0.52233	-1
0.52600	-1
0.52967	-1
0.53333	-1
0.53700	-1
0.54067	-1
0.54433	-1
0.54800	-1
0.55167	-1
0.55533	-1
0.55900	-1
0.56267	-2
0.56633	-2
0.57000	-2
0.57367	-2
0.57733	-2
0.58100	-2
0.58467	-2
0.58833	-2
0.59200	-2
0.59567	-2
0.59933	-2
0.60300	-1
0.60667	-1
0.61033	-1
0.61400	-1
0.61767	-1
0.62133	-1
0.62500	-2
0.62867	-2
0.63233	-2
0.63600	-2
0.63967	-2
0.64333	-2
0.64700	-2
0.65067	-1
0.65433	-1
0.65800	-1
0.66167	-1
0.66533	-1
0.66900	-1
0.67267	-1
0.67633	-1
0.68000	-1
0.68367	-1
0.68733	-1
0.69100	-1
0.69467	-1
0.69833	-1
0.70200	-1
0.70567	-1
0.70933	-1
0.71300	-1
0.71667	-1
0.72033	-1
0.72400	-2
0.72767	-2
0.73133	-2
0.73500	-2
0.73867	-2
0.74233	-1
0.74600	-1
0.74967	-1
0.75333	-1
0.75700	-1
0.76067	-1
0.76433	-1
0.76800	-1
0.77167	-1
0.77533	-2
0.77900	-2
0.78267	-1
0.78633	-1
0.79000	-1
0.79367	-1
0.79733	-1
0.80100	-1
0.80467	-1
0.80833	-1
0.81200	-1
0.81567	-1
0.81933	-1
0.82300	-1
0.82667	-2
0.83033	-2
0.83400	-2
0.83767	-2
0.84133	-2
0.84500	-2
0.84867	-2
0.85233	-2
0.85600	-2
0.85967	-2
0.86333	-2
0.86700	-2
0.87067	-2
0.87433	-2
0.87800	-2
0.88167	-2
0.88533	-2
0.88900	-2
0.89267	-2
0.89633	-2
0.90000	-2
0.90367	-2
0.90733	-2
0.91100	-1
0.91467	-1
0.91833	-1
0.92200	-1
0.92567	-1
0.92933	-1
0.93300	-1
0.93667	-1
0.94033	-1
0.94400	-1
0.94767	-1
0.95133	-1
0.95500	-2
0.95867	-2
0.96233	-2
0.96600	-1
0.96967	-1
0.97333	-1
0.97700	-1
0.98067	-0
0.98433	-0
0.98800	-1
0.99167	-1
0.99533	-1
0.99900	-1
1.00267	-1
1.00633	-1
1.01000	-1
1.01367	-1
1.01733	-1
1.02100	-0
1.02467	-0
1.02833	-0
1.03200	-0
1.03567	-1
1.03933	-1
1.04300	-1
1.04667	-1
1.05033	-1
1.05400	-1
1.05767	-1
1.06133	-1
1.06500	-1
1.06867	-1
1.07233	-1
1.07600	-1
1.07967	-2
1.08333	-2
1.08700	-2
1.09067	-2
1.09433	-2
1.09800	-2
1.10167	-2
1.10533	-2
1.10900	-2
1.11267	-2
1.11633	-2
1.12000	-2
1.12367	-2
1.12733	-2
1.13100	-2
1.13467	-2
1.13833	-2
1.14200	-2
1.14567	-2
1.14933	-2
1.15300	-2
1.15667	-2
1.16033	-2
1.16400	-2
1.16767	-2
1.17133	-2
1.17500	-1
1.17867	-1
1.18233	-1
1.18600	-1
1.18967	-1
1.19333	-1
1.19700	-1
1.20067	-1
1.20433	-1
1.20800	-1
1.21167	-1
1.21533	-2
1.21900	-2
1.22267	-2
1.22633	-2
1.23000	-2
1.23367	-2
1.23733	-2
1.24100	-2
1.24467	-2
1.24833	-2
1.25200	-2
1.25567	-2
1.25933	-2
1.26300	-2
1.26667	-2
1.27033	-2
1.27400	-2
1.27767	-2
1.28133	-2
1.28500	-1
1.28867	-1
1.29233	-1
1.29600	-1
1.29967	-1
1.30333	-1
1.30700	-1
1.31067	-1
1.31433	-1
1.31800	-1
1.32167	-2
1.32533	-2
1.32900	-2
1.33267	-3
1.33633	-3
1.34000	-3
1.34367	-3
1.34733	-3
1.35100	-3
1.35467	-3
1.35833	-3
1.36200	-3
1.36567	-3
1.36933	-3
1.37300	-2
1.37667	-2
1.38033	-2
1.38400	-2
1.38767	-2
1.39133	-1
1.39500	-1
1.39867	-1
1.40233	-1
1.40600	-1
1.40967	-1
1.41333	-2
1.41700	-2
1.42067	-3
1.42433	-3
1.42800	-3
1.43167	-3
1.43533	-3
1.43900	-3
1.44267	-3
1.44633	-3
1.45000	-3
1.45367	-3
1.45733	-3
1.46100	-3
1.46467	-2
1.46833	-2
1.47200	-2
1.47567	-2
1.47933	-2
1.48300	-2
1.48667	-2
1.49033	-2
1.49400	-2
1.49767	-2
1.50133	-2
1.50500	-1
1.50867	-1
1.51233	-1
1.51600	-1
1.51967	-1
1.52333	-1
1.52700	-2
1.53067	-2
1.53433	-2
1.53800	-2
1.54167	-2
1.54533	-1
1.54900	-1
1.55267	-1
1.55633	-1
1.56000	-1
1.56367	-1
1.56733	-1
1.57100	-1
1.57467	-2
1.57833	-2
1.58200	-2
1.58567	-2
1.58933	-2
1.59300	-3
1.59667	-3
1.60033	-4
1.60400	-5
1.60767	-7
1.61133	-8
1.61500	-10
1.61867	-13
1.62233	-15
1.62600	-18
1.62967	-21
1.63333	-24
1.63700	-27
1.64067	-31
1.64433	-34
1.64800	-37
1.65167	-40
1.65533	-44
1.65900	-47
1.66267	-51
1.66633	-55
1.67000	-59
1.67367	-64
1.67733	-69
1.68100	-73
1.68467	-78
1.68833	-82
1.69200	-85
1.69567	-88
1.69933	-90
1.70300	-92
1.70667	-93
1.71033	-94
1.71400	-95
1.71767	-95
1.72133	-94
1.72500	-94
1.72867	-94
1.73233	-94
1.73600	-93
1.73967	-93
1.74333	-93
1.74700	-94
1.75067	-95
1.75433	-96
1.75800	-97
1.76167	-98
1.76533	-99
1.76900	-99
1.77267	-99
1.77633	-98
1.78000	-98
1.78367	-98
1.78733	-98
1.79100	-98
1.79467	-99
1.79833	-99
1.80200	-100
1.80567	-100
1.80933	-101
1.81300	-101
1.81667	-102
1.82033	-102
1.82400	-101
1.82767	-101
1.83133	-100
1.83500	-99
1.83867	-98
1.84233	-97
1.84600	-97
1.84967	-97
1.85333	-97
1.85700	-98
1.86067	-99
1.86433	-99
1.86800	-100
1.87167	-100
1.87533	-100
1.87900	-99
1.88267	-99
1.88633	-99
1.89000	-99
1.89367	-99
1.89733	-99
1.90100	-99
1.90467	-99
1.90833	-99
1.91200	-99
1.91567	-98
1.91933	-98
1.92300	-98
1.92667	-98
1.93033	-97
1.93400	-97
1.93767	-97
1.94133	-96
1.94500	-96
1.94867	-96
1.95233	-95
1.95600	-95
1.95967	-95
1.96333	-94
1.96700	-94
1.97067	-94
1.97433	-94
1.97800	-94
1.98167	-94
1.98533	-94
1.98900	-94
1.99267	-93
1.99633	-92
2.00000	-92
2.00367	-91
2.00733	-90
2.01100	-90
2.01467	-90
2.01833	-90
2.02200	-89
2.02567	-89
2.02933	-89
2.03300	-89
2.03667	-89
2.04033	-88
2.04400	-88
2.04767	-89
2.05133	-89
2.05500	-89
2.05867	-88
2.06233	-88
2.06600	-87
2.06967	-87
2.07333	-86
2.07700	-86
2.08067	-86
2.08433	-86
2.08800	-86
2.09167	-86
2.09533	-86
2.09900	-85
2.10267	-85
2.10633	-84
2.11000	-84
2.11367	-83
2.11733	-83
2.12100	-82
2.12467	-82
2.12833	-82
2.13200	-82
2.13567	-82
2.13933	-81
2.14300	-81
2.14667	-81
2.15033	-81
2.15400	-81
2.15767	-81
2.16133	-81
2.16500	-81
2.16867	-80
2.17233	-80
2.17600	-80
2.17967	-79
2.18333	-78
2.18700	-78
2.19067	-78
2.19433	-78
2.19800	-78
2.20167	-78
2.20533	-78
2.20900	-78
2.21267	-78
2.21633	-78
2.22000	-77
2.22367	-76
2.22733	-74
2.23100	-73
2.23467	-72
2.23833	-72
2.24200	-72
2.24567	-71
2.24933	-71
2.25300	-71
2.25667	-71
2.26033	-71
2.26400	-71
2.26767	-71
2.27133	-71
2.27500	-71
2.27867	-71
2.28233	-71
2.28600	-71
2.28967	-71
2.29333	-71
2.29700	-71
2.30067	-70
2.30433	-70
2.30800	-69
2.31167	-69
2.31533	-68
2.31900	-68
2.32267	-67
2.32633	-67
2.33000	-67
2.33367	-67
2.33733	-67
2.34100	-67
2.34467	-67
2.34833	-66
2.35200	-65
2.35567	-64
2.35933	-63
2.36300	-62
2.36667	-60
2.37033	-58
2.37400	-56
2.37767	-54
2.38133	-51
2.38500	-48
2.38867	-44
2.39233	-40
2.39600	-36
2.39967	-32
2.40333	-27
2.40700	-23
2.41067	-19
2.41433	-15
2.41800	-12
2.42167	-9
2.42533	-6
2.42900	-4
2.43267	-2
2.43633	-1
2.44000	1
2.44367	3
2.44733	5
2.45100	6
2.45467	8
2.45833	9
2.46200	10
2.46567	11
2.46933	11
2.47300	12
2.47667	13
2.48033	13
2.48400	14
2.48767	15
2.49133	15
2.49500	15
2.49867	16
2.50233	15
2.50600	15
2.50967	15
2.51333	16
2.51700	16
2.52067	17
2.52433	17
2.52800	17
2.53167	17
2.53533	17
2.53900	18
2.54267	18
2.54633	18
2.55000	17
2.55367	17
2.55733	16
2.56100	15
2.56467	14
2.56833	14
2.57200	13
2.57567	13
2.57933	13
2.58300	13
2.58667	14
2.59033	14
2.59400	15
2.59767	16
2.60133	16
2.60500	17
2.60867	18
2.61233	18
2.61600	18
2.61967	19
2.62333	19
2.62700	19
2.63067	19
2.63433	19
2.63800	19
2.64167	19
2.64533	20
2.64900	20
2.65267	21
2.65633	21
2.66000	21
2.66367	21
2.66733	21
2.67100	21
2.67467	21
2.67833	21
2.68200	21
2.68567	21
2.68933	21
2.69300	22
2.69667	23
2.70033	23
2.70400	24
2.70767	25
2.71133	25
2.71500	26
2.71867	26
2.72233	27
2.72600	28
2.72967	28
2.73333	28
2.73700	28
2.74067	27
2.74433	26
2.74800	26
2.75167	26
2.75533	26
2.75900	25
2.76267	26
2.76633	26
2.77000	26
2.77367	27
2.77733	27
2.78100	28
2.78467	28
2.78833	29
2.79200	29
2.79567	29
2.79933	30
2.80300	30
2.80667	30
2.81033	30
2.81400	30
2.81767	30
2.82133	30
2.82500	30
2.82867	30
2.83233	30
2.83600	30
2.83967	30
2.84333	30
2.84700	30
2.85067	29
2.85433	29
2.85800	27
2.86167	25
2.86533	21
2.86900	14
2.87267	4
2.87633	-11
2.88000	-30
2.88367	-54
2.88733	-84
2.89100	-119
2.89467	-159
2.89833	-205
2.90200	-255
2.90567	-309
2.90933	-367
2.91300	-428
2.91667	-491
2.92033	-555
2.92400	-621
2.92767	-686
2.93133	-750
2.93500	-811
2.93867	-869
2.94233	-924
2.94600	-979
2.94967	-1034
2.95333	-1083
2.95700	-1116
2.96067	-1126
2.96433	-1111
2.96800	-1072
2.97167	-1015
2.97533	-944
2.97900	-865
2.98267	-783
2.98633	-701
2.99000	-622
2.99367	-548
2.99733	-479
3.00100	-417
3.00467	-361
3.00833	-310
3.01200	-266
3.01567	-227
3.01933	-193
3.02300	-164
3.02667	-138
3.03033	-116
3.03400	-97
3.03767	-81
3.04133	-67
3.04500	-55
3.04867	-44
3.05233	-36
3.05600	-28
3.05967	-21
3.06333	-16
3.06700	-11
3.07067	-7
3.07433	-3
3.07800	-1
3.08167	2
3.08533	4
3.08900	6
3.09267	8
3.09633	9
3.10000	10
3.10367	11
3.10733	12
3.11100	13
3.11467	14
3.11833	15
3.12200	15
3.12567	16
3.12933	16
3.13300	17
3.13667	17
3.14033	18
3.14400	18
3.14767	18
3.15133	19
3.15500	19
3.15867	19
3.16233	19
3.16600	20
3.16967	20
3.17333	20
3.17700	21
3.18067	21
3.18433	21
3.18800	21
3.19167	21
3.19533	21
3.19900	22
3.20267	22
3.20633	22
3.21000	22
3.21367	22
3.21733	22
3.22100	22
3.22467	23
3.22833	23
3.23200	23
3.23567	23
3.23933	23
3.24300	23
3.24667	23
3.25033	23
3.25400	24
3.25767	24
3.26133	24
3.26500	25
3.26867	25
3.27233	25
3.27600	26
3.27967	26
3.28333	27
3.28700	27
3.29067	28
3.29433	28
3.29800	28
3.30167	29
3.30533	29
3.30900	29
3.31267	29
3.31633	29
3.32000	29
3.32367	30
3.32733	30
3.33100	30
3.33467	30
3.33833	30
3.34200	30
3.34567	30
3.34933	30
3.35300	30
3.35667	30
3.36033	30
3.36400	30
3.36767	30
3.37133	29
3.37500	29
3.37867	29
3.38233	29
3.38600	29
3.38967	29
3.39333	29
3.39700	29
3.40067	29
3.40433	29
3.40800	29
3.41167	29
3.41533	29
3.41900	30
3.42267	29
3.42633	29
3.43000	29
3.43367	29
3.43733	29
3.44100	29
3.44467	29
3.44833	29
3.45200	29
3.45567	29
3.45933	29
3.46300	29
3.46667	29
3.47033	29
3.47400	29
3.47767	29
3.48133	29
3.48500	29
3.48867	29
3.49233	29
3.49600	29
3.49967	29
3.50333	29
3.50700	29
3.51067	29
3.51433	29
3.51800	29
3.52167	29
3.52533	29
3.52900	29
3.53267	29
3.53633	29
3.54000	29
3.54367	29
3.54733	29
3.55100	29
3.55467	29
3.55833	29
3.56200	29
3.56567	29
3.56933	29
3.57300	29
3.57667	28
3.58033	28
3.58400	28
3.58767	28
3.59133	28
3.59500	29
3.59867	29
3.60233	29
3.60600	29
3.60967	29
3.61333	29
3.61700	29
3.62067	29
3.62433	29
3.62800	29
3.63167	29
3.63533	29
3.63900	29
3.64267	29
3.64633	29
3.65000	29
3.65367	29
3.65733	29
3.66100	29
3.66467	29
3.66833	29
3.67200	29
3.67567	29
3.67933	29
3.68300	29
3.68667	29
3.69033	29
3.69400	29
3.69767	30
3.70133	30
3.70500	30
3.70867	29
3.71233	29
3.71600	29
3.71967	29
3.72333	29
3.72700	29
3.73067	29
3.73433	29
3.73800	29
3.74167	29
3.74533	29
3.74900	29
3.75267	29
3.75633	29
3.76000	29
3.76367	29
3.76733	29
3.77100	29
3.77467	29
3.77833	29
3.78200	29
3.78567	28
3.78933	28
3.79300	28
3.79667	29
3.80033	29
3.80400	29
3.80767	29
3.81133	29
3.81500	28
3.81867	28
3.82233	29
3.82600	29
3.82967	29
3.83333	29
3.83700	29
3.84067	29
3.84433	29
3.84800	29
3.85167	29
3.85533	29
3.85900	29
3.86267	29
3.86633	29
3.87000	29
3.87367	29
3.87733	29
3.88100	29
3.88467	29
3.88833	29
3.89200	29
3.89567	29
3.89933	29
3.90300	29
3.90667	29
3.91033	29
3.91400	29
3.91767	29
3.92133	29
3.92500	29
3.92867	29
3.93233	29
3.93600	29
3.93967	29
3.94333	29
3.94700	29
3.95067	29
3.95433	29
3.95800	29
3.96167	29
3.96533	29
3.96900	29
3.97267	29
3.97633	29
3.98000	29
3.98367	29
3.98733	29
3.99100	29
3.99467	29
3.99833	29

[Chromatogram (Ch3)]
Interval(msec)	220
# of Points	1091
Start Time(min)	0.002
End Time(min)	3.998
R.Time (min)	Intensity
0.00167	-0
0.00533	2
0.00900	4
0.01267	5
0.01633	8
0.02000	9
0.02367	6
0.02733	1
0.03100	0
0.03467	2
0.03833	4
0.04200	4
0.04567	3
0.04933	3
0.05300	3
0.05667	4
0.06033	6
0.06400	7
0.06767	7
0.07133	6
0.07500	4
0.07867	3
0.08233	1
0.08600	1
0.08967	4
0.09333	4
0.09700	3
0.10067	1
0.10433	2
0.10800	3
0.11167	2
0.11533	2
0.11900	3
0.12267	4
0.12633	4
0.13000	2
0.13367	-1
0.13733	-1
0.14100	2
0.14467	4
0.14833	3
0.15200	0
0.15567	-0
0.15933	-1
0.16300	0
0.16667	1
0.17033	0
0.17400	1
0.17767	3
0.18133	5
0.18500	5
0.18867	5
0.19233	4
0.19600	5
0.19967	2
0.20333	-1
0.20700	-2
0.21067	-1
0.21433	-1
0.21800	1
0.22167	-0
0.22533	-0
0.22900	1
0.23267	3
0.23633	1
0.24000	3
0.24367	5
0.24733	6
0.25100	7
0.25467	6
0.25833	7
0.26200	6
0.26567	6
0.26933	2
0.27300	0
0.27667	0
0.28033	3
0.28400	5
0.28767	6
0.29133	5
0.29500	4
0.29867	6
0.30233	7
0.30600	6
0.30967	7
0.31333	9
0.31700	9
0.32067	8
0.32433	8
0.32800	9
0.33167	8
0.33533	5
0.33900	2
0.34267	1
0.34633	0
0.35000	3
0.35367	6
0.35733	8
0.36100	7
0.36467	6
0.36833	4
0.37200	4
0.37567	3
0.37933	5
0.38300	7
0.38667	7
0.39033	6
0.39400	5
0.39767	6
0.40133	5
0.40500	6
0.40867	4
0.41233	2
0.41600	4
0.41967	5
0.42333	6
0.42700	6
0.43067	3
0.43433	1
0.43800	-1
0.44167	-0
0.44533	1
0.44900	3
0.45267	7
0.45633	7
0.46000	5
0.46367	7
0.46733	9
0.47100	9
0.47467	8
0.47833	9
0.48200	11
0.48567	11
0.48933	7
0.49300	5
0.49667	5
0.50033	5
0.50400	4
0.50767	3
0.51133	2
0.51500	0
0.51867	-1
0.52233	-3
0.52600	-5
0.52967	-2
0.53333	-0
0.53700	-2
0.54067	-2
0.54433	3
0.54800	6
0.55167	6
0.55533	9
0.55900	10
0.56267	9
0.56633	6
0.57000	6
0.57367	7
0.57733	7
0.58100	7
0.58467	7
0.58833	5
0.59200	1
0.59567	-0
0.59933	0
0.60300	1
0.60667	1
0.61033	3
0.61400	6
0.61767	8
0.62133	10
0.62500	11
0.62867	9
0.63233	8
0.63600	10
0.63967	10
0.64333	11
0.64700	10
0.65067	10
0.65433	10
0.65800	9
0.66167	8
0.66533	7
0.66900	7
0.67267	8
0.67633	8
0.68000	8
0.68367	9
0.68733	11
0.69100	10
0.69467	9
0.69833	8
0.70200	9
0.70567	10
0.70933	14
0.71300	15
0.71667	15
0.72033	11
0.72400	11
0.72767	11
0.73133	10
0.73500	9
0.73867	9
0.74233	8
0.74600	7
0.74967	8
0.75333	6
0.75700	8
0.76067	8
0.76433	10
0.76800	11
0.77167	12
0.77533	12
0.77900	11
0.78267	11
0.78633	10
0.79000	9
0.79367	7
0.79733	6
0.80100	7
0.80467	11
0.80833	13
0.81200	11
0.81567	9
0.81933	9
0.82300	9
0.82667	11
0.83033	11
0.83400	10
0.83767	8
0.84133	9
0.84500	11
0.84867	15
0.85233	15
0.85600	13
0.85967	11
0.86333	12
0.86700	10
0.87067	9
0.87433	11
0.87800	12
0.88167	10
0.88533	10
0.88900	9
0.89267	9
0.89633	9
0.90000	11
0.90367	13
0.90733	13
0.91100	11
0.91467	13
0.91833	15
0.92200	17
0.92567	17
0.92933	19
0.93300	19
0.93667	18
0.94033	17
0.94400	15
0.94767	13
0.95133	10
0.95500	8
0.95867	8
0.96233	7
0.96600	7
0.96967	10
0.97333	13
0.97700	15
0.98067	15
0.98433	14
0.98800	12
0.99167	12
0.99533	11
0.99900	8
1.00267	9
1.00633	13
1.01000	16
1.01367	17
1.01733	16
1.02100	12
1.02467	8
1.02833	9
1.03200	9
1.03567	11
1.03933	14
1.04300	14
1.04667	13
1.05033	13
1.05400	16
1.05767	19
1.06133	19
1.06500	17
1.06867	16
1.07233	15
1.07600	12
1.07967	10
1.08333	9
1.08700	7
1.09067	7
1.09433	10
1.09800	14
1.10167	15
1.10533	16
1.10900	17
1.11267	16
1.11633	15
1.12000	15
1.12367	15
1.12733	16
1.13100	16
1.13467	16
1.13833	16
1.14200	13
1.14567	12
1.14933	10
1.15300	5
1.15667	2
1.16033	1
1.16400	3
1.16767	5
1.17133	9
1.17500	12
1.17867	12
1.18233	14
1.18600	16
1.18967	14
1.19333	13
1.19700	16
1.20067	22
1.20433	24
1.20800	23
1.21167	21
1.21533	18
1.21900	16
1.22267	16
1.22633	13
1.23000	12
1.23367	12
1.23733	12
1.24100	13
1.24467	14
1.24833	13
1.25200	13
1.25567	14
1.25933	15
1.26300	16
1.26667	15
1.27033	13
1.27400	12
1.27767	9
1.28133	8
1.28500	11
1.28867	12
1.29233	12
1.29600	13
1.29967	11
1.30333	13
1.30700	15
1.31067	14
1.31433	12
1.31800	13
1.32167	14
1.32533	16
1.32900	16
1.33267	15
1.33633	17
1.34000	16
1.34367	14
1.34733	13
1.35100	16
1.35467	17
1.35833	16
1.36200	16
1.36567	16
1.36933	15
1.37300	16
1.37667	17
1.38033	19
1.38400	20
1.38767	19
1.39133	17
1.39500	15
1.39867	12
1.40233	12
1.40600	15
1.40967	14
1.41333	11
1.41700	10
1.42067	10
1.42433	9
1.42800	7
1.43167	6
1.43533	7
1.43900	8
1.44267	10
1.44633	10
1.45000	11
1.45367	12
1.45733	11
1.46100	9
1.46467	8
1.46833	10
1.47200	11
1.47567	12
1.47933	11
1.48300	9
1.48667	10
1.49033	12
1.49400	11
1.49767	13
1.50133	15
1.50500	16
1.50867	16
1.51233	17
1.51600	20
1.51967	21
1.52333	18
1.52700	16
1.53067	15
1.53433	14
1.53800	14
1.54167	13
1.54533	11
1.54900	11
1.55267	14
1.55633	14
1.56000	11
1.56367	9
1.56733	8
1.57100	7
1.57467	6
1.57833	6
1.58200	9
1.58567	11
1.58933	12
1.59300	14
1.59667	15
1.60033	16
1.60400	15
1.60767	14
1.61133	12
1.61500	12
1.61867	12
1.62233	8
1.62600	7
1.62967	8
1.63333	8
1.63700	9
1.64067	11
1.64433	12
1.64800	11
1.65167	13
1.65533	16
1.65900	17
1.66267	17
1.66633	18
1.67000	17
1.67367	15
1.67733	13
1.68100	14
1.68467	14
1.68833	16
1.69200	16
1.69567	18
1.69933	22
1.70300	26
1.70667	24
1.71033	21
1.71400	20
1.71767	21
1.72133	22
1.72500	23
1.72867	22
1.73233	21
1.73600	21
1.73967	21
1.74333	22
1.74700	22
1.75067	22
1.75433	21
1.75800	21
1.76167	20
1.76533	21
1.76900	22
1.77267	23
1.77633	25
1.78000	26
1.78367	27
1.78733	25
1.79100	24
1.79467	23
1.79833	24
1.80200	26
1.80567	27
1.80933	26
1.81300	27
1.81667	26
1.82033	21
1.82400	19
1.82767	18
1.83133	17
1.83500	17
1.83867	18
1.84233	17
1.84600	18
1.84967	22
1.85333	23
1.85700	27
1.86067	31
1.86433	33
1.86800	32
1.87167	30
1.87533	30
1.87900	29
1.88267	28
1.88633	29
1.89000	29
1.89367	30
1.89733	28
1.90100	26
1.90467	26
1.90833	26
1.91200	27
1.91567	26
1.91933	29
1.92300	30
1.92667	28
1.93033	26
1.93400	29
1.93767	29
1.94133	30
1.94500	30
1.94867	28
1.95233	29
1.95600	29
1.95967	26
1.96333	28
1.96700	30
1.97067	29
1.97433	29
1.97800	31
1.98167	35
1.98533	39
1.98900	43
1.99267	46
1.99633	44
2.00000	44
2.00367	44
2.00733	45
2.01100	45
2.01467	45
2.01833	42
2.02200	42
2.02567	45
2.02933	48
2.03300	49
2.03667	47
2.04033	47
2.04400	48
2.04767	49
2.05133	50
2.05500	48
2.05867	49
2.06233	50
2.06600	51
2.06967	51
2.07333	53
2.07700	56
2.08067	55
2.08433	55
2.08800	53
2.09167	53
2.09533	54
2.09900	55
2.10267	59
2.10633	61
2.11000	60
2.11367	59
2.11733	56
2.12100	55
2.12467	57
2.12833	60
2.13200	63
2.13567	67
2.13933	67
2.14300	66
2.14667	66
2.15033	65
2.15400	67
2.15767	68
2.16133	70
2.16500	66
2.16867	65
2.17233	64
2.17600	65
2.17967	66
2.18333	65
2.18700	64
2.19067	67
2.19433	71
2.19800	72
2.20167	71
2.20533	70
2.20900	72
2.21267	73
2.21633	75
2.22000	75
2.22367	74
2.22733	72
2.23100	73
2.23467	74
2.23833	74
2.24200	77
2.24567	79
2.24933	80
2.25300	78
2.25667	77
2.26033	78
2.26400	81
2.26767	84
2.27133	88
2.27500	89
2.27867	87
2.28233	85
2.28600	82
2.28967	80
2.29333	80
2.29700	81
2.30067	83
2.30433	86
2.30800	91
2.31167	93
2.31533	93
2.31900	92
2.32267	91
2.32633	92
2.33000	94
2.33367	98
2.33733	99
2.34100	98
2.34467	96
2.34833	95
2.35200	96
2.35567	98
2.35933	98
2.36300	97
2.36667	96
2.37033	96
2.37400	96
2.37767	95
2.38133	95
2.38500	90
2.38867	86
2.39233	89
2.39600	96
2.39967	107
2.40333	116
2.40700	121
2.41067	122
2.41433	124
2.41800	128
2.42167	130
2.42533	133
2.42900	133
2.43267	132
2.43633	128
2.44000	129
2.44367	168
2.44733	227
2.45100	281
2.45467	314
2.45833	321
2.46200	311
2.46567	297
2.46933	289
2.47300	279
2.47667	263
2.48033	243
2.48400	222
2.48767	204
2.49133	192
2.49500	185
2.49867	182
2.50233	183
2.50600	185
2.50967	188
2.51333	191
2.51700	193
2.52067	193
2.52433	187
2.52800	178
2.53167	167
2.53533	156
2.53900	147
2.54267	139
2.54633	130
2.55000	124
2.55367	118
2.55733	112
2.56100	111
2.56467	112
2.56833	114
2.57200	117
2.57567	123
2.57933	130
2.58300	137
2.58667	143
2.59033	149
2.59400	154
2.59767	158
2.60133	163
2.60500	168
2.60867	173
2.61233	172
2.61600	168
2.61967	163
2.62333	158
2.62700	151
2.63067	142
2.63433	132
2.63800	123
2.64167	114
2.64533	107
2.64900	103
2.65267	96
2.65633	88
2.66000	84
2.66367	82
2.66733	80
2.67100	78
2.67467	78
2.67833	77
2.68200	75
2.68567	73
2.68933	71
2.69300	72
2.69667	73
2.70033	75
2.70400	77
2.70767	76
2.71133	76
2.71500	79
2.71867	84
2.72233	87
2.72600	90
2.72967	90
2.73333	88
2.73700	86
2.74067	86
2.74433	88
2.74800	92
2.75167	98
2.75533	103
2.75900	108
2.76267	112
2.76633	116
2.77000	117
2.77367	121
2.77733	125
2.78100	127
2.78467	129
2.78833	131
2.79200	135
2.79567	141
2.79933	144
2.80300	145
2.80667	146
2.81033	146
2.81400	146
2.81767	147
2.82133	146
2.82500	145
2.82867	146
2.83233	147
2.83600	150
2.83967	158
2.84333	186
2.84700	246
2.85067	357
2.85433	533
2.85800	787
2.86167	1124
2.86533	1531
2.86900	1984
2.87267	2453
2.87633	2897
2.88000	3282
2.88367	3574
2.88733	3750
2.89100	3813
2.89467	3776
2.89833	3651
2.90200	3455
2.90567	3212
2.90933	2944
2.91300	2667
2.91667	2397
2.92033	2143
2.92400	1905
2.92767	1689
2.93133	1492
2.93500	1314
2.93867	1156
2.94233	1018
2.94600	899
2.94967	795
2.95333	704
2.95700	626
2.96067	557
2.96433	494
2.96800	441
2.97167	397
2.97533	359
2.97900	325
2.98267	294
2.98633	272
2.99000	275
2.99367	303
2.99733	358
3.00100	432
3.00467	515
3.00833	596
3.01200	672
3.01567	742
3.01933	800
3.02300	848
3.02667	888
3.03033	921
3.03400	947
3.03767	967
3.04133	983
3.04500	996
3.04867	1003
3.05233	1007
3.05600	1010
3.05967	1013
3.06333	1013
3.06700	1010
3.07067	1006
3.07433	1003
3.07800	1003
3.08167	1003
3.08533	1001
3.08900	999
3.09267	995
3.09633	988
3.10000	982
3.10367	978
3.10733	975
3.11100	970
3.11467	969
3.11833	968
3.12200	965
3.12567	960
3.12933	957
3.13300	955
3.13667	951
3.14033	947
3.14400	944
3.14767	942
3.15133	940
3.15500	933
3.15867	928
3.16233	925
3.16600	923
3.16967	920
3.17333	917
3.17700	912
3.18067	905
3.18433	899
3.18800	894
3.19167	891
3.19533	886
3.19900	883
3.20267	879
3.20633	874
3.21000	868
3.21367	861
3.21733	858
3.22100	854
3.22467	849
3.22833	843
3.23200	838
3.23567	832
3.23933	827
3.24300	821
3.24667	815
3.25033	811
3.25400	810
3.25767	808
3.26133	803
3.26500	800
3.26867	798
3.27233	795
3.27600	793
3.27967	790
3.28333	788
3.28700	788
3.29067	787
3.29433	785
3.29800	782
3.30167	775
3.30533	771
3.30900	769
3.31267	769
3.31633	771
3.32000	774
3.32367	777
3.32733	777
3.33100	776
3.33467	776
3.33833	776
3.34200	780
3.34567	785
3.34933	791
3.35300	797
3.35667	803
3.36033	810
3.36400	812
3.36767	814
3.37133	820
3.37500	828
3.37867	834
3.38233	837
3.38600	842
3.38967	847
3.39333	853
3.39700	856
3.40067	855
3.40433	855
3.40800	855
3.41167	855
3.41533	853
3.41900	853
3.42267	855
3.42633	851
3.43000	846
3.43367	839
3.43733	832
3.44100	824
3.44467	818
3.44833	811
3.45200	804
3.45567	796
3.45933	785
3.46300	775
3.46667	766
3.47033	757
3.47400	750
3.47767	742
3.48133	734
3.48500	723
3.48867	714
3.49233	707
3.49600	699
3.49967	692
3.50333	684
3.50700	678
3.51067	675
3.51433	671
3.51800	666
3.52167	655
3.52533	647
3.52900	646
3.53267	643
3.53633	640
3.54000	636
3.54367	633
3.54733	631
3.55100	629
3.55467	626
3.55833	626
3.56200	626
3.56567	623
3.56933	623
3.57300	621
3.57667	619
3.58033	615
3.58400	611
3.58767	607
3.59133	604
3.59500	601
3.59867	597
3.60233	594
3.60600	591
3.60967	587
3.61333	584
3.61700	583
3.62067	585
3.62433	585
3.62800	585
3.63167	586
3.63533	585
3.63900	582
3.64267	578
3.64633	574
3.65000	572
3.65367	571
3.65733	572
3.66100	571
3.66467	569
3.66833	567
3.67200	564
3.67567	562
3.67933	564
3.68300	565
3.68667	563
3.69033	561
3.69400	561
3.69767	558
3.70133	555
3.70500	555
3.70867	558
3.71233	559
3.71600	558
3.71967	555
3.72333	553
3.72700	551
3.73067	551
3.73433	554
3.73800	557
3.74167	558
3.74533	555
3.74900	553
3.75267	552
3.75633	551
3.76000	551
3.76367	551
3.76733	550
3.77100	546
3.77467	543
3.77833	539
3.78200	538
3.78567	538
3.78933	537
3.79300	536
3.79667	534
3.80033	534
3.80400	534
3.80767	531
3.81133	525
3.81500	520
3.81867	517
3.82233	518
3.82600	519
3.82967	523
3.83333	525
3.83700	526
3.84067	527
3.84433	527
3.84800	526
3.85167	524
3.85533	520
3.85900	514
3.86267	509
3.86633	511
3.87000	514
3.87367	516
3.87733	517
3.88100	516
3.88467	513
3.88833	511
3.89200	513
3.89567	512
3.89933	510
3.90300	507
3.90667	506
3.91033	503
3.91400	499
3.91767	491
3.92133	489
3.92500	489
3.92867	489
3.93233	489
3.93600	490
3.93967	490
3.94333	490
3.94700	493
3.95067	495
3.95433	495
3.95800	493
3.96167	489
3.96533	484
3.96900	479
3.97267	475
3.97633	474
3.98000	474
3.98367	475
3.98733	476
3.99100	476
3.99467	473
3.99833	469

[Status Trace (Column Oven Temperature)]
Interval(msec)	1000
# of Points	240
Start Time(min)	0.011
End Time(min)	3.995
Intensity Units	
Intensity Multiplier	1
R.Time (min)	Intensity
0.01147	35.03
0.02813	35.03
0.04480	35.03
0.06147	35.03
0.07813	35.03
0.09480	35.04
0.11147	35.03
0.12813	35.03
0.14480	35.02
0.16147	35.03
0.17813	35.02
0.19480	35.01
0.21147	35.02
0.22813	35.02
0.24480	35.02
0.26147	35.02
0.27813	35.02
0.29480	35.02
0.31147	35.01
0.32813	35.01
0.34480	35.01
0.36147	34.99
0.37813	34.99
0.39480	34.99
0.41147	35.00
0.42813	35.00
0.44480	35.00
0.46147	35.00
0.47813	35.01
0.49480	35.01
0.51147	35.01
0.52813	35.01
0.54480	35.01
0.56147	35.00
0.57813	35.01
0.59480	35.00
0.61147	35.00
0.62813	34.99
0.64480	35.00
0.66147	34.99
0.67813	35.01
0.69480	35.00
0.71147	35.01
0.72813	35.00
0.74480	34.99
0.76147	35.00
0.77813	35.01
0.79480	35.00
0.81147	35.01
0.82813	35.00
0.84480	35.00
0.86147	35.00
0.87813	35.00
0.89480	35.00
0.91147	35.01
0.92813	35.01
0.94480	35.00
0.96147	35.00
0.97813	35.00
0.99480	34.99
1.01147	34.99
1.02813	34.98
1.04480	34.99
1.06147	34.99
1.07813	34.99
1.09480	34.99
1.11147	34.99
1.12813	34.99
1.14480	35.00
1.16147	35.00
1.17813	35.00
1.19480	35.00
1.21147	34.99
1.22813	34.99
1.24480	34.98
1.26147	34.99
1.27813	34.99
1.29480	34.99
1.31147	34.99
1.32813	35.00
1.34480	34.99
1.36147	34.99
1.37813	34.99
1.39480	34.99
1.41147	34.99
1.42813	35.00
1.44480	34.99
1.46147	34.99
1.47813	34.99
1.49480	35.00
1.51147	34.99
1.52813	34.99
1.54480	34.99
1.56147	34.99
1.57813	34.99
1.59480	35.01
1.61147	35.08
1.62813	35.21
1.64480	35.40
1.66147	35.66
1.67813	36.02
1.69480	36.39
1.71147	36.74
1.72813	37.06
1.74480	37.39
1.76147	37.73
1.77813	38.05
1.79480	38.39
1.81147	38.74
1.82813	39.05
1.84480	39.37
1.86147	39.70
1.87813	40.03
1.89480	40.37
1.91147	40.69
1.92813	41.02
1.94480	41.35
1.96147	41.67
1.97813	42.00
1.99480	42.32
2.01147	42.64
2.02813	42.97
2.04480	43.29
2.06147	43.62
2.07813	43.95
2.09480	44.28
2.11147	44.60
2.12813	44.93
2.14480	45.26
2.16147	45.59
2.17813	45.92
2.19480	46.25
2.21147	46.61
2.22813	46.90
2.24480	47.22
2.26147	47.55
2.27813	47.87
2.29480	48.21
2.31147	48.53
2.32813	48.87
2.34480	49.18
2.36147	49.46
2.37813	49.66
2.39480	49.73
2.41147	49.72
2.42813	49.74
2.44480	49.74
2.46147	49.73
2.47813	49.75
2.49480	49.76
2.51147	49.77
2.52813	49.78
2.54480	49.78
2.56147	49.80
2.57813	49.81
2.59480	49.82
2.61147	49.82
2.62813	49.83
2.64480	49.83
2.66147	49.84
2.67813	49.86
2.69480	49.85
2.71147	49.85
2.72813	49.84
2.74480	49.88
2.76147	49.89
2.77813	49.89
2.79480	49.88
2.81147	49.88
2.82813	49.88
2.84480	49.90
2.86147	49.91
2.87813	49.92
2.89480	49.92
2.91147	49.94
2.92813	49.96
2.94480	49.98
2.96147	49.99
2.97813	50.00
2.99480	50.01
3.01147	50.02
3.02813	50.02
3.04480	50.04
3.06147	50.04
3.07813	50.05
3.09480	50.05
3.11147	50.05
3.12813	50.06
3.14480	50.06
3.16147	50.08
3.17813	50.08
3.19480	50.09
3.21147	50.09
3.22813	50.10
3.24480	50.11
3.26147	50.11
3.27813	50.10
3.29480	50.08
3.31147	50.07
3.32813	50.06
3.34480	50.05
3.36147	50.03
3.37813	50.03
3.39480	50.03
3.41147	50.02
3.42813	50.02
3.44480	50.03
3.46147	50.03
3.47813	50.04
3.49480	50.04
3.51147	50.03
3.52813	50.03
3.54480	50.04
3.56147	50.04
3.57813	50.04
3.59480	50.05
3.61147	50.05
3.62813	50.06
3.64480	50.06
3.66147	50.06
3.67813	50.06
3.69480	50.06
3.71147	50.06
3.72813	50.06
3.74480	50.05
3.76147	50.05
3.77813	50.05
3.79480	50.05
3.81147	50.05
3.82813	50.05
3.84480	50.05
3.86147	50.06
3.87813	50.06
3.89480	50.06
3.91147	50.07
3.92813	50.07
3.94480	50.07
3.96147	50.08
3.97813	50.08
3.99480	50.08

[Status Trace (Injection Unit Temperature)]
Interval(msec)	1000
# of Points	240
Start Time(min)	0.011
End Time(min)	3.995
Intensity Units	
Intensity Multiplier	1
R.Time (min)	Intensity
0.01147	99.98
0.02813	99.98
0.04480	99.97
0.06147	99.98
0.07813	99.98
0.09480	99.98
0.11147	99.98
0.12813	99.98
0.14480	99.98
0.16147	99.98
0.17813	99.98
0.19480	99.98
0.21147	99.98
0.22813	99.98
0.24480	99.98
0.26147	99.98
0.27813	99.98
0.29480	99.98
0.31147	99.98
0.32813	99.98
0.34480	99.98
0.36147	99.98
0.37813	99.98
0.39480	99.98
0.41147	99.98
0.42813	99.97
0.44480	99.97
0.46147	99.98
0.47813	99.98
0.49480	99.98
0.51147	99.98
0.52813	99.97
0.54480	99.98
0.56147	99.97
0.57813	99.98
0.59480	99.98
0.61147	99.98
0.62813	99.98
0.64480	99.97
0.66147	99.98
0.67813	99.98
0.69480	99.98
0.71147	99.98
0.72813	99.98
0.74480	99.97
0.76147	99.98
0.77813	99.98
0.79480	99.97
0.81147	99.98
0.82813	99.98
0.84480	99.98
0.86147	99.98
0.87813	99.98
0.89480	99.98
0.91147	99.98
0.92813	99.98
0.94480	99.98
0.96147	99.98
0.97813	99.98
0.99480	99.98
1.01147	99.98
1.02813	99.98
1.04480	99.98
1.06147	99.98
1.07813	99.98
1.09480	99.98
1.11147	99.98
1.12813	99.99
1.14480	99.98
1.16147	99.98
1.17813	99.99
1.19480	99.99
1.21147	99.99
1.22813	99.98
1.24480	99.99
1.26147	99.99
1.27813	99.99
1.29480	99.99
1.31147	99.98
1.32813	99.99
1.34480	99.99
1.36147	99.99
1.37813	99.98
1.39480	99.99
1.41147	99.99
1.42813	99.99
1.44480	99.99
1.46147	99.98
1.47813	99.99
1.49480	99.99
1.51147	99.99
1.52813	99.98
1.54480	99.99
1.56147	99.99
1.57813	99.99
1.59480	99.99
1.61147	99.99
1.62813	99.99
1.64480	99.99
1.66147	99.99
1.67813	99.98
1.69480	99.99
1.71147	99.99
1.72813	99.99
1.74480	99.99
1.76147	99.98
1.77813	99.98
1.79480	99.98
1.81147	99.99
1.82813	99.98
1.84480	99.98
1.86147	99.98
1.87813	99.98
1.89480	99.98
1.91147	99.97
1.92813	99.98
1.94480	99.97
1.96147	99.98
1.97813	99.97
1.99480	99.97
2.01147	99.97
2.02813	99.97
2.04480	99.97
2.06147	99.97
2.07813	99.97
2.09480	99.96
2.11147	99.97
2.12813	99.96
2.14480	99.96
2.16147	99.96
2.17813	99.96
2.19480	99.96
2.21147	99.96
2.22813	99.96
2.24480	99.96
2.26147	99.96
2.27813	99.96
2.29480	99.96
2.31147	99.96
2.32813	99.95
2.34480	99.96
2.36147	99.96
2.37813	99.95
2.39480	99.96
2.41147	99.96
2.42813	99.96
2.44480	99.96
2.46147	99.96
2.47813	99.96
2.49480	99.96
2.51147	99.96
2.52813	99.96
2.54480	99.96
2.56147	99.96
2.57813	99.97
2.59480	99.97
2.61147	99.96
2.62813	99.97
2.64480	99.97
2.66147	99.97
2.67813	99.97
2.69480	99.98
2.71147	99.98
2.72813	99.98
2.74480	99.98
2.76147	99.98
2.77813	99.98
2.79480	99.99
2.81147	99.98
2.82813	99.99
2.84480	99.99
2.86147	99.99
2.87813	100.00
2.89480	100.00
2.91147	100.00
2.92813	100.00
2.94480	100.00
2.96147	100.00
2.97813	100.01
2.99480	100.01
3.01147	100.01
3.02813	100.01
3.04480	100.01
3.06147	100.01
3.07813	100.02
3.09480	100.01
3.11147	100.02
3.12813	100.02
3.14480	100.02
3.16147	100.02
3.17813	100.02
3.19480	100.02
3.21147	100.02
3.22813	100.02
3.24480	100.03
3.26147	100.02
3.27813	100.03
3.29480	100.03
3.31147	100.03
3.32813	100.03
3.34480	100.03
3.36147	100.03
3.37813	100.03
3.39480	100.03
3.41147	100.03
3.42813	100.03
3.44480	100.03
3.46147	100.03
3.47813	100.03
3.49480	100.03
3.51147	100.03
3.52813	100.03
3.54480	100.04
3.56147	100.04
3.57813	100.03
3.59480	100.04
3.61147	100.04
3.62813	100.04
3.64480	100.04
3.66147	100.04
3.67813	100.04
3.69480	100.04
3.71147	100.04
3.72813	100.04
3.74480	100.04
3.76147	100.04
3.77813	100.04
3.79480	100.04
3.81147	100.04
3.82813	100.04
3.84480	100.04
3.86147	100.04
3.87813	100.04
3.89480	100.05
3.91147	100.05
3.92813	100.05
3.94480	100.05
3.96147	100.05
3.97813	100.05
3.99480	100.05

[Status Trace (Carrier Gas Pressure)]
Interval(msec)	1000
# of Points	240
Start Time(min)	0.011
End Time(min)	3.995
Intensity Units	
Intensity Multiplier	1
R.Time (min)	Intensity
0.01147	58.00
0.02813	54.93
0.04480	57.49
0.06147	59.59
0.07813	59.05
0.09480	58.02
0.11147	57.99
0.12813	58.01
0.14480	58.01
0.16147	58.00
0.17813	58.00
0.19480	58.00
0.21147	58.00
0.22813	58.00
0.24480	58.00
0.26147	58.00
0.27813	58.00
0.29480	58.00
0.31147	58.00
0.32813	58.00
0.34480	58.00
0.36147	58.00
0.37813	58.00
0.39480	58.00
0.41147	58.00
0.42813	58.00
0.44480	58.00
0.46147	58.00
0.47813	58.00
0.49480	58.00
0.51147	58.00
0.52813	58.00
0.54480	58.00
0.56147	58.00
0.57813	58.00
0.59480	58.00
0.61147	58.00
0.62813	58.00
0.64480	58.00
0.66147	58.00
0.67813	58.00
0.69480	58.00
0.71147	58.00
0.72813	58.00
0.74480	58.00
0.76147	58.00
0.77813	58.00
0.79480	58.00
0.81147	58.00
0.82813	58.00
0.84480	58.00
0.86147	58.00
0.87813	58.00
0.89480	58.00
0.91147	58.00
0.92813	58.00
0.94480	58.00
0.96147	58.00
0.97813	58.00
0.99480	58.00
1.01147	58.00
1.02813	58.00
1.04480	58.00
1.06147	58.00
1.07813	58.00
1.09480	58.00
1.11147	58.00
1.12813	58.00
1.14480	58.00
1.16147	58.00
1.17813	58.00
1.19480	58.00
1.21147	58.00
1.22813	58.00
1.24480	58.00
1.26147	58.00
1.27813	58.00
1.29480	58.00
1.31147	58.00
1.32813	58.00
1.34480	58.00
1.36147	58.00
1.37813	58.00
1.39480	58.00
1.41147	58.00
1.42813	58.00
1.44480	58.00
1.46147	58.00
1.47813	58.00
1.49480	58.00
1.51147	58.00
1.52813	58.00
1.54480	58.00
1.56147	58.00
1.57813	58.00
1.59480	58.00
1.61147	58.00
1.62813	58.00
1.64480	58.00
1.66147	58.00
1.67813	58.01
1.69480	58.00
1.71147	58.00
1.72813	58.00
1.74480	58.00
1.76147	58.00
1.77813	58.00
1.79480	58.00
1.81147	58.00
1.82813	58.00
1.84480	58.00
1.86147	58.00
1.87813	58.00
1.89480	58.00
1.91147	58.00
1.92813	58.00
1.94480	58.00
1.96147	58.00
1.97813	58.00
1.99480	58.00
2.01147	58.00
2.02813	58.00
2.04480	58.00
2.06147	58.00
2.07813	58.00
2.09480	58.00
2.11147	58.00
2.12813	58.00
2.14480	58.00
2.16147	58.00
2.17813	58.00
2.19480	58.00
2.21147	58.00
2.22813	58.00
2.24480	58.00
2.26147	58.00
2.27813	58.00
2.29480	58.00
2.31147	58.00
2.32813	58.00
2.34480	58.00
2.36147	58.00
2.37813	58.00
2.39480	57.99
2.41147	57.99
2.42813	58.00
2.44480	58.00
2.46147	58.00
2.47813	58.00
2.49480	58.00
2.51147	57.99
2.52813	57.99
2.54480	58.00
2.56147	58.00
2.57813	58.00
2.59480	58.00
2.61147	58.00
2.62813	58.00
2.64480	58.00
2.66147	58.00
2.67813	58.00
2.69480	58.00
2.71147	58.00
2.72813	58.00
2.74480	58.00
2.76147	58.00
2.77813	58.00
2.79480	58.00
2.81147	58.00
2.82813	58.00
2.84480	58.00
2.86147	58.00
2.87813	58.00
2.89480	58.00
2.91147	58.00
2.92813	58.00
2.94480	58.00
2.96147	58.00
2.97813	58.00
2.99480	58.00
3.01147	58.00
3.02813	58.00
3.04480	58.00
3.06147	58.00
3.07813	58.00
3.09480	58.00
3.11147	58.00
3.12813	58.00
3.14480	58.00
3.16147	58.00
3.17813	58.00
3.19480	58.00
3.21147	58.00
3.22813	58.00
3.24480	58.00
3.26147	58.00
3.27813	58.00
3.29480	58.00
3.31147	58.00
3.32813	58.00
3.34480	58.00
3.36147	58.00
3.37813	58.00
3.39480	58.00
3.41147	58.00
3.42813	58.00
3.44480	58.00
3.46147	58.00
3.47813	58.00
3.49480	58.00
3.51147	58.00
3.52813	58.00
3.54480	58.00
3.56147	58.00
3.57813	58.00
3.59480	58.00
3.61147	58.00
3.62813	58.00
3.64480	58.00
3.66147	58.00
3.67813	58.00
3.69480	58.00
3.71147	58.00
3.72813	58.00
3.74480	58.00
3.76147	58.00
3.77813	58.00
3.79480	58.00
3.81147	58.00
3.82813	58.00
3.84480	58.00
3.86147	58.00
3.87813	58.00
3.89480	58.00
3.91147	58.00
3.92813	58.00
3.94480	58.00
3.96147	58.00
3.97813	58.00
3.99480	58.00

[Status Trace (Carrier Gas Flow)]
Interval(msec)	1000
# of Points	240
Start Time(min)	0.011
End Time(min)	3.995
Intensity Units	
Intensity Multiplier	1
R.Time (min)	Intensity
0.01147	34.52
0.02813	34.54
0.04480	34.55
0.06147	34.54
0.07813	34.51
0.09480	34.51
0.11147	34.52
0.12813	34.52
0.14480	34.52
0.16147	34.52
0.17813	34.52
0.19480	34.52
0.21147	34.51
0.22813	34.52
0.24480	34.52
0.26147	34.52
0.27813	34.51
0.29480	34.52
0.31147	34.52
0.32813	34.52
0.34480	34.52
0.36147	34.52
0.37813	34.52
0.39480	34.51
0.41147	34.52
0.42813	34.51
0.44480	34.52
0.46147	34.52
0.47813	34.52
0.49480	34.52
0.51147	34.52
0.52813	34.52
0.54480	34.52
0.56147	34.52
0.57813	34.52
0.59480	34.52
0.61147	34.52
0.62813	34.52
0.64480	34.51
0.66147	34.52
0.67813	34.51
0.69480	34.52
0.71147	34.52
0.72813	34.51
0.74480	34.51
0.76147	34.51
0.77813	34.52
0.79480	34.52
0.81147	34.52
0.82813	34.51
0.84480	34.52
0.86147	34.52
0.87813	34.52
0.89480	34.52
0.91147	34.52
0.92813	34.52
0.94480	34.52
0.96147	34.53
0.97813	34.52
0.99480	34.52
1.01147	34.52
1.02813	34.52
1.04480	34.52
1.06147	34.52
1.07813	34.52
1.09480	34.51
1.11147	34.52
1.12813	34.52
1.14480	34.52
1.16147	34.51
1.17813	34.52
1.19480	34.52
1.21147	34.52
1.22813	34.52
1.24480	34.52
1.26147	34.52
1.27813	34.52
1.29480	34.52
1.31147	34.52
1.32813	34.52
1.34480	34.52
1.36147	34.52
1.37813	34.52
1.39480	34.51
1.41147	34.52
1.42813	34.52
1.44480	34.51
1.46147	34.51
1.47813	34.51
1.49480	34.52
1.51147	34.52
1.52813	34.52
1.54480	34.52
1.56147	34.52
1.57813	34.52
1.59480	34.52
1.61147	34.52
1.62813	34.52
1.64480	34.52
1.66147	34.52
1.67813	34.52
1.69480	34.52
1.71147	34.52
1.72813	34.52
1.74480	34.52
1.76147	34.52
1.77813	34.53
1.79480	34.52
1.81147	34.52
1.82813	34.52
1.84480	34.52
1.86147	34.52
1.87813	34.52
1.89480	34.52
1.91147	34.52
1.92813	34.51
1.94480	34.52
1.96147	34.52
1.97813	34.52
1.99480	34.52
2.01147	34.52
2.02813	34.52
2.04480	34.52
2.06147	34.52
2.07813	34.52
2.09480	34.52
2.11147	34.51
2.12813	34.52
2.14480	34.52
2.16147	34.52
2.17813	34.52
2.19480	34.52
2.21147	34.52
2.22813	34.52
2.24480	34.52
2.26147	34.52
2.27813	34.52
2.29480	34.52
2.31147	34.52
2.32813	34.51
2.34480	34.52
2.36147	34.52
2.37813	34.52
2.39480	34.52
2.41147	34.51
2.42813	34.52
2.44480	34.52
2.46147	34.52
2.47813	34.52
2.49480	34.52
2.51147	34.52
2.52813	34.52
2.54480	34.53
2.56147	34.53
2.57813	34.53
2.59480	34.52
2.61147	34.52
2.62813	34.52
2.64480	34.52
2.66147	34.52
2.67813	34.52
2.69480	34.52
2.71147	34.52
2.72813	34.51
2.74480	34.52
2.76147	34.52
2.77813	34.52
2.79480	34.52
2.81147	34.52
2.82813	34.52
2.84480	34.51
2.86147	34.52
2.87813	34.52
2.89480	34.52
2.91147	34.51
2.92813	34.52
2.94480	34.52
2.96147	34.52
2.97813	34.52
2.99480	34.52
3.01147	34.52
3.02813	34.51
3.04480	34.52
3.06147	34.52
3.07813	34.52
3.09480	34.52
3.11147	34.52
3.12813	34.52
3.14480	34.52
3.16147	34.52
3.17813	34.52
3.19480	34.52
3.21147	34.51
3.22813	34.52
3.24480	34.52
3.26147	34.52
3.27813	34.52
3.29480	34.53
3.31147	34.51
3.32813	34.52
3.34480	34.52
3.36147	34.52
3.37813	34.51
3.39480	34.51
3.41147	34.52
3.42813	34.52
3.44480	34.52
3.46147	34.51
3.47813	34.52
3.49480	34.52
3.51147	34.52
3.52813	34.52
3.54480	34.52
3.56147	34.52
3.57813	34.51
3.59480	34.52
3.61147	34.52
3.62813	34.52
3.64480	34.52
3.66147	34.52
3.67813	34.52
3.69480	34.52
3.71147	34.52
3.72813	34.52
3.74480	34.51
3.76147	34.52
3.77813	34.52
3.79480	34.52
3.81147	34.52
3.82813	34.52
3.84480	34.52
3.86147	34.52
3.87813	34.51
3.89480	34.52
3.91147	34.52
3.92813	34.52
3.94480	34.52
3.96147	34.52
3.97813	34.52
3.99480	34.52

[Status Trace (Column Flow)]
Interval(msec)	1000
# of Points	240
Start Time(min)	0.011
End Time(min)	3.995
Intensity Units	
Intensity Multiplier	1
R.Time (min)	Intensity
0.01147	5.51
0.02813	5.15
0.04480	5.45
0.06147	5.69
0.07813	5.63
0.09480	5.51
0.11147	5.50
0.12813	5.51
0.14480	5.51
0.16147	5.51
0.17813	5.51
0.19480	5.51
0.21147	5.51
0.22813	5.51
0.24480	5.51
0.26147	5.51
0.27813	5.51
0.29480	5.51
0.31147	5.51
0.32813	5.51
0.34480	5.51
0.36147	5.51
0.37813	5.51
0.39480	5.51
0.41147	5.51
0.42813	5.51
0.44480	5.51
0.46147	5.51
0.47813	5.51
0.49480	5.51
0.51147	5.51
0.52813	5.51
0.54480	5.51
0.56147	5.51
0.57813	5.51
0.59480	5.51
0.61147	5.51
0.62813	5.51
0.64480	5.51
0.66147	5.51
0.67813	5.51
0.69480	5.51
0.71147	5.51
0.72813	5.51
0.74480	5.51
0.76147	5.51
0.77813	5.51
0.79480	5.51
0.81147	5.51
0.82813	5.51
0.84480	5.51
0.86147	5.51
0.87813	5.51
0.89480	5.51
0.91147	5.51
0.92813	5.51
0.94480	5.51
0.96147	5.51
0.97813	5.51
0.99480	5.51
1.01147	5.51
1.02813	5.51
1.04480	5.51
1.06147	5.51
1.07813	5.51
1.09480	5.51
1.11147	5.51
1.12813	5.51
1.14480	5.51
1.16147	5.51
1.17813	5.51
1.19480	5.51
1.21147	5.51
1.22813	5.51
1.24480	5.51
1.26147	5.51
1.27813	5.51
1.29480	5.51
1.31147	5.51
1.32813	5.51
1.34480	5.51
1.36147	5.51
1.37813	5.51
1.39480	5.51
1.41147	5.51
1.42813	5.51
1.44480	5.51
1.46147	5.51
1.47813	5.51
1.49480	5.51
1.51147	5.51
1.52813	5.51
1.54480	5.51
1.56147	5.51
1.57813	5.51
1.59480	5.51
1.61147	5.50
1.62813	5.50
1.64480	5.49
1.66147	5.49
1.67813	5.47
1.69480	5.46
1.71147	5.45
1.72813	5.44
1.74480	5.43
1.76147	5.42
1.77813	5.41
1.79480	5.40
1.81147	5.39
1.82813	5.38
1.84480	5.37
1.86147	5.36
1.87813	5.35
1.89480	5.34
1.91147	5.33
1.92813	5.32
1.94480	5.31
1.96147	5.30
1.97813	5.29
1.99480	5.28
2.01147	5.27
2.02813	5.26
2.04480	5.25
2.06147	5.24
2.07813	5.24
2.09480	5.23
2.11147	5.22
2.12813	5.21
2.14480	5.20
2.16147	5.19
2.17813	5.18
2.19480	5.17
2.21147	5.16
2.22813	5.15
2.24480	5.14
2.26147	5.13
2.27813	5.12
2.29480	5.11
2.31147	5.10
2.32813	5.10
2.34480	5.09
2.36147	5.08
2.37813	5.07
2.39480	5.07
2.41147	5.07
2.42813	5.07
2.44480	5.07
2.46147	5.07
2.47813	5.07
2.49480	5.07
2.51147	5.07
2.52813	5.07
2.54480	5.07
2.56147	5.07
2.57813	5.07
2.59480	5.07
2.61147	5.07
2.62813	5.07
2.64480	5.07
2.66147	5.07
2.67813	5.07
2.69480	5.07
2.71147	5.07
2.72813	5.07
2.74480	5.07
2.76147	5.07
2.77813	5.07
2.79480	5.07
2.81147	5.07
2.82813	5.07
2.84480	5.07
2.86147	5.07
2.87813	5.07
2.89480	5.07
2.91147	5.07
2.92813	5.06
2.94480	5.06
2.96147	5.06
2.97813	5.06
2.99480	5.06
3.01147	5.06
3.02813	5.06
3.04480	5.06
3.06147	5.06
3.07813	5.06
3.09480	5.06
3.11147	5.06
3.12813	5.06
3.14480	5.06
3.16147	5.06
3.17813	5.06
3.19480	5.06
3.21147	5.06
3.22813	5.06
3.24480	5.06
3.26147	5.06
3.27813	5.06
3.29480	5.06
3.31147	5.06
3.32813	5.06
3.34480	5.06
3.36147	5.06
3.37813	5.06
3.39480	5.06
3.41147	5.06
3.42813	5.06
3.44480	5.06
3.46147	5.06
3.47813	5.06
3.49480	5.06
3.51147	5.06
3.52813	5.06
3.54480	5.06
3.56147	5.06
3.57813	5.06
3.59480	5.06
3.61147	5.06
3.62813	5.06
3.64480	5.06
3.66147	5.06
3.67813	5.06
3.69480	5.06
3.71147	5.06
3.72813	5.06
3.74480	5.06
3.76147	5.06
3.77813	5.06
3.79480	5.06
3.81147	5.06
3.82813	5.06
3.84480	5.06
3.86147	5.06
3.87813	5.06
3.89480	5.06
3.91147	5.06
3.92813	5.06
3.94480	5.06
3.96147	5.06
3.97813	5.06
3.99480	5.06

[Status Trace (Linear Velocity)]
Interval(msec)	1000
# of Points	240
Start Time(min)	0.011
End Time(min)	3.995
Intensity Units	
Intensity Multiplier	1
R.Time (min)	Intensity
0.01147	39.01
0.02813	37.00
0.04480	38.67
0.06147	40.05
0.07813	39.70
0.09480	39.02
0.11147	39.00
0.12813	39.02
0.14480	39.02
0.16147	39.01
0.17813	39.01
0.19480	39.01
0.21147	39.01
0.22813	39.01
0.24480	39.01
0.26147	39.01
0.27813	39.01
0.29480	39.01
0.31147	39.01
0.32813	39.01
0.34480	39.01
0.36147	39.01
0.37813	39.01
0.39480	39.02
0.41147	39.01
0.42813	39.01
0.44480	39.01
0.46147	39.01
0.47813	39.01
0.49480	39.01
0.51147	39.01
0.52813	39.01
0.54480	39.01
0.56147	39.01
0.57813	39.01
0.59480	39.01
0.61147	39.01
0.62813	39.01
0.64480	39.01
0.66147	39.01
0.67813	39.01
0.69480	39.01
0.71147	39.01
0.72813	39.01
0.74480	39.01
0.76147	39.01
0.77813	39.01
0.79480	39.01
0.81147	39.01
0.82813	39.01
0.84480	39.01
0.86147	39.01
0.87813	39.01
0.89480	39.01
0.91147	39.01
0.92813	39.01
0.94480	39.01
0.96147	39.01
0.97813	39.01
0.99480	39.01
1.01147	39.01
1.02813	39.01
1.04480	39.01
1.06147	39.01
1.07813	39.01
1.09480	39.01
1.11147	39.01
1.12813	39.01
1.14480	39.01
1.16147	39.01
1.17813	39.01
1.19480	39.01
1.21147	39.01
1.22813	39.01
1.24480	39.01
1.26147	39.01
1.27813	39.01
1.29480	39.01
1.31147	39.01
1.32813	39.01
1.34480	39.01
1.36147	39.01
1.37813	39.01
1.39480	39.01
1.41147	39.01
1.42813	39.01
1.44480	39.01
1.46147	39.01
1.47813	39.01
1.49480	39.01
1.51147	39.01
1.52813	39.01
1.54480	39.01
1.56147	39.01
1.57813	39.01
1.59480	39.01
1.61147	39.01
1.62813	39.00
1.64480	38.98
1.66147	38.95
1.67813	38.92
1.69480	38.88
1.71147	38.85
1.72813	38.82
1.74480	38.79
1.76147	38.75
1.77813	38.72
1.79480	38.69
1.81147	38.66
1.82813	38.63
1.84480	38.60
1.86147	38.57
1.87813	38.54
1.89480	38.50
1.91147	38.47
1.92813	38.44
1.94480	38.41
1.96147	38.38
1.97813	38.35
1.99480	38.32
2.01147	38.29
2.02813	38.26
2.04480	38.23
2.06147	38.20
2.07813	38.17
2.09480	38.14
2.11147	38.11
2.12813	38.08
2.14480	38.05
2.16147	38.02
2.17813	37.99
2.19480	37.96
2.21147	37.93
2.22813	37.90
2.24480	37.88
2.26147	37.85
2.27813	37.82
2.29480	37.79
2.31147	37.76
2.32813	37.73
2.34480	37.70
2.36147	37.68
2.37813	37.66
2.39480	37.65
2.41147	37.65
2.42813	37.65
2.44480	37.65
2.46147	37.65
2.47813	37.65
2.49480	37.65
2.51147	37.65
2.52813	37.64
2.54480	37.65
2.56147	37.65
2.57813	37.65
2.59480	37.64
2.61147	37.64
2.62813	37.64
2.64480	37.64
2.66147	37.64
2.67813	37.64
2.69480	37.64
2.71147	37.64
2.72813	37.64
2.74480	37.64
2.76147	37.64
2.77813	37.64
2.79480	37.64
2.81147	37.64
2.82813	37.64
2.84480	37.64
2.86147	37.64
2.87813	37.64
2.89480	37.64
2.91147	37.63
2.92813	37.63
2.94480	37.63
2.96147	37.63
2.97813	37.63
2.99480	37.63
3.01147	37.63
3.02813	37.63
3.04480	37.63
3.06147	37.62
3.07813	37.62
3.09480	37.63
3.11147	37.62
3.12813	37.62
3.14480	37.62
3.16147	37.62
3.17813	37.62
3.19480	37.62
3.21147	37.62
3.22813	37.62
3.24480	37.62
3.26147	37.62
3.27813	37.62
3.29480	37.62
3.31147	37.62
3.32813	37.62
3.34480	37.62
3.36147	37.63
3.37813	37.63
3.39480	37.63
3.41147	37.63
3.42813	37.63
3.44480	37.63
3.46147	37.63
3.47813	37.63
3.49480	37.63
3.51147	37.63
3.52813	37.63
3.54480	37.63
3.56147	37.63
3.57813	37.62
3.59480	37.63
3.61147	37.62
3.62813	37.62
3.64480	37.62
3.66147	37.62
3.67813	37.62
3.69480	37.62
3.71147	37.62
3.72813	37.62
3.74480	37.62
3.76147	37.62
3.77813	37.62
3.79480	37.62
3.81147	37.62
3.82813	37.62
3.84480	37.62
3.86147	37.62
3.87813	37.62
3.89480	37.62
3.91147	37.62
3.92813	37.62
3.94480	37.62
3.96147	37.62
3.97813	37.62
3.99480	37.62

