[Header]
Application Name	LabSolutions
Version	5.110
Data File Name	C:\Users\User\Desktop\Junior\UIC Prairie Sampling\7.18.23\071823_019.gcd
Output Date	8/29/2023
Output Time	10:40:20 AM

[File Information]
Type	Data File
Generated	8/28/2023 4:18:46 PM
Generated by	System Administrator
Modified	8/28/2023 4:25:25 PM
Modified by	System Administrator

[Sample Information]
Operator Name	System Administrator
Acquired	8/28/2023 4:21:23 PM
Sample Type	0:Unknown
Level	0
Sample Name	019
Sample ID	019
ISTD Amount1	1
ISTD Amount2	1
ISTD Amount3	1
ISTD Amount4	1
ISTD Amount5	1
ISTD Amount6	1
ISTD Amount7	1
ISTD Amount8	1
ISTD Amount9	1
ISTD Amount10	1
ISTD Amount11	1
ISTD Amount12	1
ISTD Amount13	1
ISTD Amount14	1
ISTD Amount15	1
ISTD Amount16	1
ISTD Amount17	1
ISTD Amount18	1
ISTD Amount19	1
ISTD Amount20	1
ISTD Amount21	1
ISTD Amount22	1
ISTD Amount23	1
ISTD Amount24	1
ISTD Amount25	1
ISTD Amount26	1
ISTD Amount27	1
ISTD Amount28	1
ISTD Amount29	1
ISTD Amount30	1
ISTD Amount31	1
ISTD Amount32	1
Sample Amount	1
Dilution Factor	1
Vial#	18
Injection Volume	1
Injection Count	1
Bar Code	

[Original Files]
Data File	C:\Users\User\Desktop\Junior\UIC Prairie Sampling\7.18.23\071823_019.gcd
Method File	C:\LabSolutions\Data\GHG_4min_2022\ghg3_togas_w_acet_4 min_new_int.gcm
Batch File	C:\LabSolutions\Data\BATCH FILES\071823.gcb
Report Format File	c:\LabSolutions\System\DEFAULT.lsr

[File Description]


[Configuration]
Instrument Name	C0B7VH3-Instrument1
Instrument #	1
Line #	1
# of Detectors	3
Detector ID	DET#1	DET#2	DET#3
Detector Name	FID	PTCD	ECD
# of Channels	1	1	1

[Peak Table(Ch1)]
# of Peaks	3
Peak#	R.Time	I.Time	F.Time	Area	Height	A/H	Conc.	Mark	ID#	Name	k'	Plate #	Plate Ht.	Tailing	Resolution	Sep.Factor	Area Ratio	Height Ratio	Conc. %	Norm Conc.
1	1.472	1.435	1.531	10764	5370	2.004	0.000	   	1	CO	0.000	9971	15.044	1.283	0.000	0.000	0	0	0.000	0.000
2	1.564	1.531	1.622	4522	2291	1.974	22.046	 V 	2	CH4	0.062	11451	13.099	1.146	1.561	0.000	0	0	10.427	10.427
3	1.993	1.945	2.473	982688	471199	2.086	189.382	   	3	CO2	0.354	17845	8.406	1.174	7.264	5.680	0	0	89.573	89.573

[Peak Table(Ch2)]
# of Peaks	0

[Peak Table(Ch3)]
# of Peaks	5
Peak#	R.Time	I.Time	F.Time	Area	Height	A/H	Conc.	Mark	ID#	Name	k'	Plate #	Plate Ht.	Tailing	Resolution	Sep.Factor	Area Ratio	Height Ratio	Conc. %	Norm Conc.
1	2.458	2.323	2.499	880	251	3.510	0.000	   			0.000	11104	13.509	0.000	0.000	0.000	0	0	0.000	0.000
2	2.513	2.499	2.554	351	137	2.568	0.000	 V 			0.022	5325	28.168	0.000	0.476	0.000	0	0	0.000	0.000
3	2.609	2.554	2.678	754	146	5.162	0.000	 V 			0.061	4979	30.128	0.000	0.667	2.733	0	0	0.000	0.000
4	2.891	2.678	3.027	16993	3857	4.406	0.251	 V 	1	N2O	0.176	12536	11.966	1.450	2.248	2.878	0	0	100.000	100.000
5	3.100	3.027	3.786	23347	1086	21.492	0.000	   	2	SF6	0.261	339	442.466	5.061	0.538	1.483	0	0	0.000	0.000

[Compound Results(Ch1)]
# of IDs	6
ID#	Name	R.Time	Area	Height	Conc.	Curve	3rd	2nd	1st	Constant	Area Ratio	Height Ratio	Conc. %	Norm Conc.
1	CO	1.472	10764	5370	0.000	Linear	0.000000e+00	0.000000e+00	0.000000e+00	0.000000e+00	0	0	0.000	0.000
2	CH4	1.564	4522	2291	22.046	Linear	0.000000e+00	0.000000e+00	2.051179e+002	0.000000e+00	0	0	10.427	10.427
3	CO2	1.993	982688	471199	189.382	Linear	0.000000e+00	0.000000e+00	5.188919e+003	0.000000e+00	0	0	89.573	89.573
4	Ethylene	0.000	0	0	0.000	Linear	0.000000e+00	0.000000e+00	0.000000e+00	0.000000e+00	0	0	0.000	0.000
5	Acetylene	0.000	0	0	0.000	Linear	0.000000e+00	0.000000e+00	0.000000e+00	0.000000e+00	0	0	0.000	0.000
6	Ethane	0.000	0	0	0.000	Linear	0.000000e+00	0.000000e+00	0.000000e+00	0.000000e+00	0	0	0.000	0.000

[Compound Results(Ch2)]
# of IDs	5
ID#	Name	R.Time	Area	Height	Conc.	Curve	3rd	2nd	1st	Constant	Area Ratio	Height Ratio	Conc. %	Norm Conc.
1	Hydrogen	0.000	0	0	0.000	Linear	0.000000e+00	0.000000e+00	0.000000e+00	0.000000e+00	0	0	0.000	0.000
2	Oxygen	0.000	0	0	0.000	Linear	0.000000e+00	0.000000e+00	0.000000e+00	0.000000e+00	0	0	0.000	0.000
3	Nitrogen	0.000	0	0	0.000	Linear	0.000000e+00	0.000000e+00	0.000000e+00	0.000000e+00	0	0	0.000	0.000
4	Methane	0.000	0	0	0.000	Linear	0.000000e+00	0.000000e+00	0.000000e+00	0.000000e+00	0	0	0.000	0.000
5	Carbon Monoxide	0.000	0	0	0.000	Linear	0.000000e+00	0.000000e+00	0.000000e+00	0.000000e+00	0	0	0.000	0.000

[Compound Results(Ch3)]
# of IDs	2
ID#	Name	R.Time	Area	Height	Conc.	Curve	3rd	2nd	1st	Constant	Area Ratio	Height Ratio	Conc. %	Norm Conc.
1	N2O	2.891	16993	3857	0.251	Linear	0.000000e+00	0.000000e+00	6.759880e+004	0.000000e+00	0	0	100.000	100.000
2	SF6	3.100	23347	1086	0.000	Linear	0.000000e+00	0.000000e+00	0.000000e+00	0.000000e+00	0	0	0.000	0.000

[Group Results(Ch1)]
# of Groups	0

[Group Results(Ch2)]
# of Groups	0

[Group Results(Ch3)]
# of Groups	0

[Chromatogram (Ch1)]
Interval(msec)	220
# of Points	1091
Start Time(min)	0.002
End Time(min)	3.998
R.Time (min)	Intensity
0.00167	-36
0.00533	-34
0.00900	-31
0.01267	-31
0.01633	-28
0.02000	-20
0.02367	-12
0.02733	-5
0.03100	-2
0.03467	-1
0.03833	-2
0.04200	-4
0.04567	-6
0.04933	-7
0.05300	-8
0.05667	-10
0.06033	-11
0.06400	-13
0.06767	-15
0.07133	-16
0.07500	-14
0.07867	-12
0.08233	-12
0.08600	-13
0.08967	-15
0.09333	-15
0.09700	-18
0.10067	-27
0.10433	-36
0.10800	-39
0.11167	-35
0.11533	-28
0.11900	-21
0.12267	-17
0.12633	-12
0.13000	-11
0.13367	-13
0.13733	-19
0.14100	-25
0.14467	-28
0.14833	-28
0.15200	-25
0.15567	-19
0.15933	-10
0.16300	-4
0.16667	-3
0.17033	-6
0.17400	-8
0.17767	-11
0.18133	-14
0.18500	-14
0.18867	-13
0.19233	-10
0.19600	-10
0.19967	-14
0.20333	-17
0.20700	-19
0.21067	-20
0.21433	-20
0.21800	-18
0.22167	-19
0.22533	-21
0.22900	-20
0.23267	-16
0.23633	-9
0.24000	-2
0.24367	2
0.24733	5
0.25100	8
0.25467	14
0.25833	19
0.26200	26
0.26567	31
0.26933	33
0.27300	32
0.27667	30
0.28033	27
0.28400	26
0.28767	27
0.29133	26
0.29500	23
0.29867	21
0.30233	20
0.30600	22
0.30967	24
0.31333	26
0.31700	28
0.32067	25
0.32433	22
0.32800	20
0.33167	21
0.33533	24
0.33900	25
0.34267	23
0.34633	21
0.35000	19
0.35367	17
0.35733	15
0.36100	9
0.36467	4
0.36833	-1
0.37200	-5
0.37567	-5
0.37933	-5
0.38300	-5
0.38667	-5
0.39033	-5
0.39400	-8
0.39767	-10
0.40133	-13
0.40500	-16
0.40867	-19
0.41233	-18
0.41600	-11
0.41967	-1
0.42333	7
0.42700	12
0.43067	15
0.43433	15
0.43800	9
0.44167	-2
0.44533	-10
0.44900	-13
0.45267	-14
0.45633	-14
0.46000	-13
0.46367	-10
0.46733	-6
0.47100	-3
0.47467	-1
0.47833	-2
0.48200	-4
0.48567	-7
0.48933	-9
0.49300	-9
0.49667	-7
0.50033	-8
0.50400	-11
0.50767	-16
0.51133	-22
0.51500	-26
0.51867	-26
0.52233	-24
0.52600	-22
0.52967	-21
0.53333	-21
0.53700	-19
0.54067	-15
0.54433	-10
0.54800	-3
0.55167	2
0.55533	0
0.55900	-6
0.56267	-14
0.56633	-22
0.57000	-28
0.57367	-31
0.57733	-33
0.58100	-35
0.58467	-34
0.58833	-31
0.59200	-27
0.59567	-24
0.59933	-22
0.60300	-21
0.60667	-20
0.61033	-18
0.61400	-18
0.61767	-19
0.62133	-21
0.62500	-21
0.62867	-20
0.63233	-21
0.63600	-24
0.63967	-26
0.64333	-29
0.64700	-27
0.65067	-22
0.65433	-17
0.65800	-10
0.66167	-7
0.66533	-7
0.66900	-8
0.67267	-10
0.67633	-14
0.68000	-18
0.68367	-22
0.68733	-26
0.69100	-27
0.69467	-24
0.69833	-22
0.70200	-22
0.70567	-25
0.70933	-28
0.71300	-29
0.71667	-30
0.72033	-32
0.72400	-34
0.72767	-37
0.73133	-42
0.73500	-46
0.73867	-47
0.74233	-40
0.74600	-27
0.74967	-14
0.75333	-8
0.75700	-6
0.76067	-9
0.76433	-13
0.76800	-18
0.77167	-22
0.77533	-25
0.77900	-31
0.78267	-35
0.78633	-33
0.79000	-31
0.79367	-28
0.79733	-25
0.80100	-21
0.80467	-21
0.80833	-26
0.81200	-30
0.81567	-31
0.81933	-31
0.82300	-30
0.82667	-28
0.83033	-27
0.83400	-28
0.83767	-32
0.84133	-39
0.84500	-49
0.84867	-53
0.85233	-52
0.85600	-51
0.85967	-48
0.86333	-41
0.86700	-35
0.87067	-32
0.87433	-30
0.87800	-28
0.88167	-27
0.88533	-26
0.88900	-27
0.89267	-25
0.89633	-19
0.90000	-12
0.90367	-9
0.90733	-9
0.91100	-12
0.91467	-17
0.91833	-20
0.92200	-21
0.92567	-23
0.92933	-24
0.93300	-26
0.93667	-28
0.94033	-29
0.94400	-30
0.94767	-32
0.95133	-34
0.95500	-39
0.95867	-44
0.96233	-45
0.96600	-43
0.96967	-40
0.97333	-39
0.97700	-38
0.98067	-37
0.98433	-38
0.98800	-39
0.99167	-41
0.99533	-40
0.99900	-38
1.00267	-37
1.00633	-37
1.01000	-35
1.01367	-35
1.01733	-36
1.02100	-40
1.02467	-44
1.02833	-47
1.03200	-47
1.03567	-44
1.03933	-37
1.04300	-29
1.04667	-26
1.05033	-28
1.05400	-34
1.05767	-42
1.06133	-50
1.06500	-58
1.06867	-65
1.07233	-68
1.07600	-67
1.07967	-63
1.08333	-58
1.08700	-54
1.09067	-51
1.09433	-47
1.09800	-44
1.10167	-45
1.10533	-48
1.10900	-50
1.11267	-52
1.11633	-53
1.12000	-51
1.12367	-47
1.12733	-43
1.13100	-39
1.13467	-37
1.13833	-37
1.14200	-40
1.14567	-43
1.14933	-42
1.15300	-42
1.15667	-46
1.16033	-48
1.16400	-49
1.16767	-51
1.17133	-57
1.17500	-62
1.17867	-63
1.18233	-61
1.18600	-57
1.18967	-51
1.19333	-46
1.19700	-42
1.20067	-39
1.20433	-36
1.20800	-34
1.21167	-35
1.21533	-40
1.21900	-46
1.22267	-49
1.22633	-48
1.23000	-47
1.23367	-47
1.23733	-49
1.24100	-54
1.24467	-57
1.24833	-59
1.25200	-60
1.25567	-62
1.25933	-67
1.26300	-73
1.26667	-73
1.27033	-71
1.27400	-67
1.27767	-62
1.28133	-58
1.28500	-56
1.28867	-56
1.29233	-56
1.29600	-58
1.29967	-62
1.30333	-65
1.30700	-70
1.31067	-71
1.31433	-69
1.31800	-64
1.32167	-59
1.32533	-56
1.32900	-52
1.33267	-51
1.33633	-51
1.34000	-55
1.34367	-63
1.34733	-74
1.35100	-82
1.35467	-85
1.35833	-82
1.36200	-73
1.36567	-63
1.36933	-55
1.37300	-49
1.37667	-46
1.38033	-45
1.38400	-45
1.38767	-47
1.39133	-48
1.39500	-49
1.39867	-50
1.40233	-53
1.40600	-53
1.40967	-52
1.41333	-52
1.41700	-52
1.42067	-56
1.42433	-61
1.42800	-65
1.43167	-64
1.43533	-51
1.43900	-24
1.44267	25
1.44633	223
1.45000	788
1.45367	1735
1.45733	2832
1.46100	3840
1.46467	4634
1.46833	5148
1.47200	5314
1.47567	5090
1.47933	4515
1.48300	3722
1.48667	2881
1.49033	2125
1.49400	1513
1.49767	1050
1.50133	716
1.50500	480
1.50867	318
1.51233	209
1.51600	136
1.51967	90
1.52333	58
1.52700	34
1.53067	21
1.53433	40
1.53800	142
1.54167	386
1.54533	772
1.54900	1220
1.55267	1635
1.55633	1960
1.56000	2166
1.56367	2223
1.56733	2107
1.57100	1833
1.57467	1469
1.57833	1097
1.58200	772
1.58567	515
1.58933	328
1.59300	195
1.59667	107
1.60033	49
1.60400	11
1.60767	-18
1.61133	-41
1.61500	-57
1.61867	-68
1.62233	-75
1.62600	-77
1.62967	-77
1.63333	-77
1.63700	-77
1.64067	-77
1.64433	-74
1.64800	-71
1.65167	-68
1.65533	-67
1.65900	-69
1.66267	-71
1.66633	-74
1.67000	-77
1.67367	-77
1.67733	-78
1.68100	-81
1.68467	-85
1.68833	-89
1.69200	-91
1.69567	-94
1.69933	-94
1.70300	-93
1.70667	-93
1.71033	-95
1.71400	-97
1.71767	-94
1.72133	-89
1.72500	-84
1.72867	-81
1.73233	-79
1.73600	-77
1.73967	-76
1.74333	-75
1.74700	-73
1.75067	-72
1.75433	-73
1.75800	-74
1.76167	-74
1.76533	-73
1.76900	-74
1.77267	-76
1.77633	-80
1.78000	-85
1.78367	-87
1.78733	-87
1.79100	-86
1.79467	-81
1.79833	-77
1.80200	-77
1.80567	-78
1.80933	-79
1.81300	-80
1.81667	-80
1.82033	-82
1.82400	-85
1.82767	-87
1.83133	-89
1.83500	-94
1.83867	-99
1.84233	-100
1.84600	-96
1.84967	-91
1.85333	-87
1.85700	-83
1.86067	-78
1.86433	-75
1.86800	-75
1.87167	-78
1.87533	-83
1.87900	-88
1.88267	-91
1.88633	-93
1.89000	-92
1.89367	-85
1.89733	-76
1.90100	-71
1.90467	-69
1.90833	-67
1.91200	-66
1.91567	-68
1.91933	-70
1.92300	-72
1.92667	-75
1.93033	-76
1.93400	-76
1.93767	-75
1.94133	-73
1.94500	-63
1.94867	-14
1.95233	278
1.95600	1724
1.95967	7154
1.96333	22554
1.96700	56286
1.97067	114344
1.97433	194361
1.97800	284811
1.98167	370118
1.98533	435662
1.98900	471006
1.99267	471154
1.99633	437701
2.00000	379143
2.00367	308219
2.00733	237356
2.01100	175132
2.01467	125290
2.01833	87906
2.02200	61128
2.02567	42530
2.02933	29863
2.03300	21327
2.03667	15593
2.04033	11725
2.04400	9091
2.04767	7272
2.05133	5986
2.05500	5056
2.05867	4366
2.06233	3837
2.06600	3422
2.06967	3088
2.07333	2811
2.07700	2579
2.08067	2381
2.08433	2212
2.08800	2067
2.09167	1943
2.09533	1837
2.09900	1743
2.10267	1659
2.10633	1581
2.11000	1510
2.11367	1443
2.11733	1377
2.12100	1314
2.12467	1255
2.12833	1200
2.13200	1149
2.13567	1102
2.13933	1056
2.14300	1012
2.14667	972
2.15033	934
2.15400	900
2.15767	869
2.16133	839
2.16500	811
2.16867	789
2.17233	771
2.17600	751
2.17967	732
2.18333	713
2.18700	691
2.19067	666
2.19433	643
2.19800	625
2.20167	607
2.20533	587
2.20900	568
2.21267	554
2.21633	546
2.22000	540
2.22367	533
2.22733	524
2.23100	513
2.23467	501
2.23833	489
2.24200	478
2.24567	468
2.24933	455
2.25300	440
2.25667	423
2.26033	408
2.26400	395
2.26767	385
2.27133	379
2.27500	373
2.27867	364
2.28233	353
2.28600	340
2.28967	330
2.29333	325
2.29700	321
2.30067	314
2.30433	302
2.30800	289
2.31167	279
2.31533	277
2.31900	281
2.32267	285
2.32633	284
2.33000	281
2.33367	278
2.33733	272
2.34100	267
2.34467	263
2.34833	260
2.35200	256
2.35567	250
2.35933	241
2.36300	231
2.36667	221
2.37033	213
2.37400	209
2.37767	206
2.38133	203
2.38500	199
2.38867	193
2.39233	189
2.39600	188
2.39967	188
2.40333	190
2.40700	190
2.41067	189
2.41433	187
2.41800	184
2.42167	181
2.42533	177
2.42900	171
2.43267	166
2.43633	163
2.44000	159
2.44367	155
2.44733	150
2.45100	143
2.45467	137
2.45833	134
2.46200	135
2.46567	136
2.46933	135
2.47300	131
2.47667	124
2.48033	117
2.48400	112
2.48767	109
2.49133	110
2.49500	113
2.49867	117
2.50233	123
2.50600	128
2.50967	134
2.51333	139
2.51700	141
2.52067	138
2.52433	134
2.52800	132
2.53167	131
2.53533	128
2.53900	121
2.54267	113
2.54633	106
2.55000	103
2.55367	101
2.55733	102
2.56100	102
2.56467	102
2.56833	102
2.57200	97
2.57567	92
2.57933	88
2.58300	84
2.58667	78
2.59033	71
2.59400	65
2.59767	57
2.60133	47
2.60500	40
2.60867	38
2.61233	40
2.61600	47
2.61967	58
2.62333	67
2.62700	72
2.63067	73
2.63433	71
2.63800	67
2.64167	61
2.64533	55
2.64900	51
2.65267	47
2.65633	43
2.66000	41
2.66367	43
2.66733	47
2.67100	51
2.67467	54
2.67833	56
2.68200	54
2.68567	47
2.68933	37
2.69300	28
2.69667	19
2.70033	12
2.70400	10
2.70767	14
2.71133	19
2.71500	23
2.71867	24
2.72233	27
2.72600	32
2.72967	35
2.73333	34
2.73700	30
2.74067	24
2.74433	17
2.74800	9
2.75167	2
2.75533	-2
2.75900	-5
2.76267	-7
2.76633	-7
2.77000	-4
2.77367	2
2.77733	8
2.78100	11
2.78467	11
2.78833	10
2.79200	9
2.79567	7
2.79933	3
2.80300	1
2.80667	-2
2.81033	-6
2.81400	-12
2.81767	-17
2.82133	-17
2.82500	-13
2.82867	-6
2.83233	-3
2.83600	-2
2.83967	-2
2.84333	-5
2.84700	-11
2.85067	-19
2.85433	-26
2.85800	-28
2.86167	-26
2.86533	-26
2.86900	-30
2.87267	-35
2.87633	-39
2.88000	-40
2.88367	-40
2.88733	-34
2.89100	-26
2.89467	-22
2.89833	-22
2.90200	-25
2.90567	-29
2.90933	-34
2.91300	-37
2.91667	-34
2.92033	-27
2.92400	-22
2.92767	-22
2.93133	-27
2.93500	-34
2.93867	-39
2.94233	-44
2.94600	-44
2.94967	-41
2.95333	-38
2.95700	-34
2.96067	-31
2.96433	-29
2.96800	-29
2.97167	-28
2.97533	-26
2.97900	-24
2.98267	-22
2.98633	-22
2.99000	-24
2.99367	-25
2.99733	-21
3.00100	-14
3.00467	-12
3.00833	-14
3.01200	-21
3.01567	-28
3.01933	-34
3.02300	-39
3.02667	-45
3.03033	-49
3.03400	-52
3.03767	-53
3.04133	-50
3.04500	-46
3.04867	-42
3.05233	-40
3.05600	-40
3.05967	-43
3.06333	-47
3.06700	-50
3.07067	-51
3.07433	-50
3.07800	-51
3.08167	-54
3.08533	-59
3.08900	-66
3.09267	-73
3.09633	-79
3.10000	-80
3.10367	-77
3.10733	-69
3.11100	-61
3.11467	-57
3.11833	-57
3.12200	-59
3.12567	-62
3.12933	-64
3.13300	-68
3.13667	-70
3.14033	-69
3.14400	-69
3.14767	-71
3.15133	-72
3.15500	-70
3.15867	-66
3.16233	-63
3.16600	-63
3.16967	-66
3.17333	-68
3.17700	-67
3.18067	-62
3.18433	-61
3.18800	-62
3.19167	-64
3.19533	-68
3.19900	-74
3.20267	-78
3.20633	-79
3.21000	-78
3.21367	-73
3.21733	-68
3.22100	-65
3.22467	-66
3.22833	-66
3.23200	-65
3.23567	-67
3.23933	-69
3.24300	-71
3.24667	-75
3.25033	-78
3.25400	-80
3.25767	-80
3.26133	-81
3.26500	-82
3.26867	-83
3.27233	-86
3.27600	-89
3.27967	-90
3.28333	-88
3.28700	-84
3.29067	-80
3.29433	-77
3.29800	-76
3.30167	-74
3.30533	-71
3.30900	-67
3.31267	-64
3.31633	-64
3.32000	-67
3.32367	-70
3.32733	-74
3.33100	-78
3.33467	-80
3.33833	-79
3.34200	-77
3.34567	-76
3.34933	-77
3.35300	-78
3.35667	-77
3.36033	-72
3.36400	-68
3.36767	-67
3.37133	-67
3.37500	-69
3.37867	-69
3.38233	-69
3.38600	-69
3.38967	-68
3.39333	-70
3.39700	-73
3.40067	-76
3.40433	-77
3.40800	-75
3.41167	-71
3.41533	-70
3.41900	-73
3.42267	-76
3.42633	-79
3.43000	-81
3.43367	-82
3.43733	-85
3.44100	-86
3.44467	-87
3.44833	-88
3.45200	-89
3.45567	-90
3.45933	-88
3.46300	-87
3.46667	-88
3.47033	-92
3.47400	-98
3.47767	-102
3.48133	-104
3.48500	-103
3.48867	-100
3.49233	-96
3.49600	-96
3.49967	-94
3.50333	-88
3.50700	-81
3.51067	-77
3.51433	-73
3.51800	-72
3.52167	-74
3.52533	-79
3.52900	-85
3.53267	-89
3.53633	-94
3.54000	-96
3.54367	-95
3.54733	-95
3.55100	-95
3.55467	-94
3.55833	-93
3.56200	-93
3.56567	-95
3.56933	-98
3.57300	-101
3.57667	-102
3.58033	-104
3.58400	-104
3.58767	-101
3.59133	-97
3.59500	-95
3.59867	-94
3.60233	-95
3.60600	-97
3.60967	-100
3.61333	-104
3.61700	-107
3.62067	-107
3.62433	-105
3.62800	-103
3.63167	-102
3.63533	-102
3.63900	-103
3.64267	-106
3.64633	-112
3.65000	-116
3.65367	-120
3.65733	-123
3.66100	-122
3.66467	-120
3.66833	-118
3.67200	-113
3.67567	-107
3.67933	-102
3.68300	-101
3.68667	-101
3.69033	-98
3.69400	-96
3.69767	-99
3.70133	-103
3.70500	-105
3.70867	-106
3.71233	-107
3.71600	-107
3.71967	-108
3.72333	-109
3.72700	-112
3.73067	-113
3.73433	-115
3.73800	-117
3.74167	-118
3.74533	-117
3.74900	-115
3.75267	-113
3.75633	-110
3.76000	-111
3.76367	-116
3.76733	-124
3.77100	-131
3.77467	-135
3.77833	-136
3.78200	-135
3.78567	-131
3.78933	-127
3.79300	-122
3.79667	-116
3.80033	-111
3.80400	-109
3.80767	-115
3.81133	-119
3.81500	-122
3.81867	-127
3.82233	-132
3.82600	-132
3.82967	-126
3.83333	-118
3.83700	-115
3.84067	-118
3.84433	-124
3.84800	-127
3.85167	-128
3.85533	-127
3.85900	-126
3.86267	-128
3.86633	-132
3.87000	-134
3.87367	-135
3.87733	-138
3.88100	-141
3.88467	-141
3.88833	-137
3.89200	-133
3.89567	-130
3.89933	-129
3.90300	-127
3.90667	-129
3.91033	-132
3.91400	-134
3.91767	-134
3.92133	-135
3.92500	-135
3.92867	-136
3.93233	-137
3.93600	-138
3.93967	-138
3.94333	-135
3.94700	-129
3.95067	-125
3.95433	-124
3.95800	-129
3.96167	-138
3.96533	-147
3.96900	-154
3.97267	-159
3.97633	-163
3.98000	-168
3.98367	-169
3.98733	-167
3.99100	-163
3.99467	-159
3.99833	-155

[Chromatogram (Ch2)]
Interval(msec)	220
# of Points	1091
Start Time(min)	0.002
End Time(min)	3.998
R.Time (min)	Intensity
0.00167	0
0.00533	1
0.00900	1
0.01267	1
0.01633	2
0.02000	2
0.02367	2
0.02733	2
0.03100	2
0.03467	2
0.03833	2
0.04200	1
0.04567	1
0.04933	1
0.05300	0
0.05667	-0
0.06033	-0
0.06400	-1
0.06767	-1
0.07133	-1
0.07500	-1
0.07867	-1
0.08233	-1
0.08600	-1
0.08967	-0
0.09333	-0
0.09700	-0
0.10067	0
0.10433	0
0.10800	0
0.11167	0
0.11533	0
0.11900	0
0.12267	1
0.12633	1
0.13000	1
0.13367	1
0.13733	1
0.14100	1
0.14467	1
0.14833	0
0.15200	0
0.15567	0
0.15933	0
0.16300	0
0.16667	0
0.17033	1
0.17400	1
0.17767	1
0.18133	0
0.18500	0
0.18867	0
0.19233	0
0.19600	0
0.19967	0
0.20333	1
0.20700	1
0.21067	1
0.21433	1
0.21800	1
0.22167	0
0.22533	0
0.22900	0
0.23267	1
0.23633	1
0.24000	1
0.24367	1
0.24733	1
0.25100	1
0.25467	1
0.25833	1
0.26200	1
0.26567	1
0.26933	1
0.27300	1
0.27667	1
0.28033	1
0.28400	1
0.28767	1
0.29133	1
0.29500	1
0.29867	1
0.30233	1
0.30600	1
0.30967	1
0.31333	1
0.31700	1
0.32067	1
0.32433	1
0.32800	0
0.33167	0
0.33533	0
0.33900	0
0.34267	0
0.34633	0
0.35000	0
0.35367	0
0.35733	0
0.36100	0
0.36467	1
0.36833	0
0.37200	0
0.37567	1
0.37933	1
0.38300	1
0.38667	1
0.39033	1
0.39400	1
0.39767	1
0.40133	1
0.40500	1
0.40867	1
0.41233	1
0.41600	1
0.41967	1
0.42333	1
0.42700	1
0.43067	0
0.43433	0
0.43800	0
0.44167	0
0.44533	0
0.44900	0
0.45267	0
0.45633	1
0.46000	0
0.46367	0
0.46733	0
0.47100	0
0.47467	0
0.47833	0
0.48200	0
0.48567	0
0.48933	0
0.49300	1
0.49667	1
0.50033	1
0.50400	0
0.50767	0
0.51133	0
0.51500	0
0.51867	0
0.52233	0
0.52600	-0
0.52967	-0
0.53333	-0
0.53700	-0
0.54067	-0
0.54433	-0
0.54800	-0
0.55167	0
0.55533	0
0.55900	0
0.56267	0
0.56633	0
0.57000	0
0.57367	0
0.57733	0
0.58100	0
0.58467	0
0.58833	0
0.59200	0
0.59567	0
0.59933	0
0.60300	0
0.60667	0
0.61033	-0
0.61400	-0
0.61767	-0
0.62133	-0
0.62500	-1
0.62867	-1
0.63233	-1
0.63600	-1
0.63967	-1
0.64333	-1
0.64700	-0
0.65067	-0
0.65433	-0
0.65800	-0
0.66167	-0
0.66533	-0
0.66900	-0
0.67267	-0
0.67633	-0
0.68000	-1
0.68367	-1
0.68733	-1
0.69100	-1
0.69467	-1
0.69833	-1
0.70200	-1
0.70567	-1
0.70933	-1
0.71300	-1
0.71667	-1
0.72033	-1
0.72400	-1
0.72767	-1
0.73133	-1
0.73500	-1
0.73867	-0
0.74233	-0
0.74600	-0
0.74967	-0
0.75333	-0
0.75700	0
0.76067	0
0.76433	0
0.76800	-0
0.77167	-0
0.77533	-1
0.77900	-1
0.78267	-1
0.78633	-1
0.79000	-1
0.79367	-1
0.79733	-1
0.80100	-0
0.80467	-0
0.80833	-0
0.81200	-0
0.81567	-0
0.81933	-0
0.82300	0
0.82667	0
0.83033	0
0.83400	-0
0.83767	-0
0.84133	-0
0.84500	-0
0.84867	-0
0.85233	0
0.85600	0
0.85967	0
0.86333	0
0.86700	0
0.87067	0
0.87433	-0
0.87800	0
0.88167	0
0.88533	0
0.88900	0
0.89267	0
0.89633	0
0.90000	0
0.90367	0
0.90733	0
0.91100	1
0.91467	1
0.91833	1
0.92200	1
0.92567	1
0.92933	1
0.93300	1
0.93667	1
0.94033	1
0.94400	1
0.94767	1
0.95133	1
0.95500	1
0.95867	1
0.96233	1
0.96600	1
0.96967	1
0.97333	1
0.97700	1
0.98067	1
0.98433	1
0.98800	1
0.99167	1
0.99533	1
0.99900	1
1.00267	1
1.00633	1
1.01000	1
1.01367	1
1.01733	1
1.02100	1
1.02467	1
1.02833	0
1.03200	0
1.03567	0
1.03933	0
1.04300	0
1.04667	0
1.05033	1
1.05400	1
1.05767	1
1.06133	1
1.06500	1
1.06867	1
1.07233	1
1.07600	1
1.07967	1
1.08333	1
1.08700	1
1.09067	0
1.09433	0
1.09800	0
1.10167	0
1.10533	0
1.10900	0
1.11267	1
1.11633	1
1.12000	1
1.12367	1
1.12733	1
1.13100	1
1.13467	1
1.13833	0
1.14200	0
1.14567	0
1.14933	0
1.15300	0
1.15667	0
1.16033	0
1.16400	0
1.16767	0
1.17133	0
1.17500	0
1.17867	0
1.18233	0
1.18600	1
1.18967	1
1.19333	1
1.19700	0
1.20067	0
1.20433	0
1.20800	0
1.21167	-0
1.21533	-0
1.21900	-1
1.22267	-1
1.22633	-1
1.23000	-0
1.23367	-0
1.23733	-0
1.24100	-0
1.24467	-0
1.24833	-0
1.25200	-0
1.25567	-0
1.25933	-0
1.26300	-0
1.26667	-0
1.27033	-0
1.27400	-1
1.27767	-1
1.28133	-0
1.28500	-0
1.28867	0
1.29233	0
1.29600	1
1.29967	1
1.30333	1
1.30700	1
1.31067	1
1.31433	1
1.31800	1
1.32167	1
1.32533	1
1.32900	1
1.33267	1
1.33633	1
1.34000	1
1.34367	1
1.34733	0
1.35100	0
1.35467	0
1.35833	0
1.36200	0
1.36567	0
1.36933	0
1.37300	0
1.37667	0
1.38033	0
1.38400	0
1.38767	0
1.39133	0
1.39500	0
1.39867	1
1.40233	1
1.40600	1
1.40967	1
1.41333	1
1.41700	1
1.42067	0
1.42433	0
1.42800	0
1.43167	0
1.43533	1
1.43900	1
1.44267	1
1.44633	1
1.45000	1
1.45367	1
1.45733	1
1.46100	1
1.46467	1
1.46833	1
1.47200	1
1.47567	1
1.47933	1
1.48300	1
1.48667	1
1.49033	1
1.49400	1
1.49767	1
1.50133	1
1.50500	1
1.50867	1
1.51233	1
1.51600	1
1.51967	1
1.52333	1
1.52700	1
1.53067	1
1.53433	1
1.53800	1
1.54167	1
1.54533	1
1.54900	0
1.55267	0
1.55633	-0
1.56000	-0
1.56367	-0
1.56733	-0
1.57100	-1
1.57467	-1
1.57833	-1
1.58200	-1
1.58567	-1
1.58933	-1
1.59300	-2
1.59667	-2
1.60033	-3
1.60400	-4
1.60767	-5
1.61133	-7
1.61500	-9
1.61867	-11
1.62233	-13
1.62600	-16
1.62967	-19
1.63333	-21
1.63700	-24
1.64067	-27
1.64433	-31
1.64800	-34
1.65167	-37
1.65533	-41
1.65900	-44
1.66267	-48
1.66633	-52
1.67000	-56
1.67367	-61
1.67733	-66
1.68100	-71
1.68467	-75
1.68833	-79
1.69200	-82
1.69567	-85
1.69933	-87
1.70300	-88
1.70667	-90
1.71033	-90
1.71400	-91
1.71767	-91
1.72133	-91
1.72500	-92
1.72867	-92
1.73233	-93
1.73600	-93
1.73967	-94
1.74333	-95
1.74700	-95
1.75067	-96
1.75433	-96
1.75800	-96
1.76167	-97
1.76533	-97
1.76900	-97
1.77267	-97
1.77633	-97
1.78000	-97
1.78367	-97
1.78733	-97
1.79100	-97
1.79467	-97
1.79833	-97
1.80200	-96
1.80567	-97
1.80933	-97
1.81300	-97
1.81667	-97
1.82033	-97
1.82400	-97
1.82767	-97
1.83133	-97
1.83500	-97
1.83867	-97
1.84233	-97
1.84600	-97
1.84967	-98
1.85333	-98
1.85700	-98
1.86067	-98
1.86433	-97
1.86800	-97
1.87167	-96
1.87533	-96
1.87900	-96
1.88267	-97
1.88633	-97
1.89000	-97
1.89367	-96
1.89733	-96
1.90100	-96
1.90467	-95
1.90833	-95
1.91200	-95
1.91567	-95
1.91933	-94
1.92300	-94
1.92667	-93
1.93033	-93
1.93400	-93
1.93767	-93
1.94133	-94
1.94500	-94
1.94867	-94
1.95233	-94
1.95600	-94
1.95967	-94
1.96333	-94
1.96700	-93
1.97067	-93
1.97433	-93
1.97800	-93
1.98167	-93
1.98533	-93
1.98900	-93
1.99267	-93
1.99633	-92
2.00000	-92
2.00367	-91
2.00733	-91
2.01100	-90
2.01467	-90
2.01833	-90
2.02200	-89
2.02567	-89
2.02933	-89
2.03300	-89
2.03667	-88
2.04033	-88
2.04400	-87
2.04767	-87
2.05133	-87
2.05500	-87
2.05867	-87
2.06233	-87
2.06600	-86
2.06967	-86
2.07333	-85
2.07700	-85
2.08067	-84
2.08433	-84
2.08800	-84
2.09167	-84
2.09533	-84
2.09900	-84
2.10267	-83
2.10633	-82
2.11000	-81
2.11367	-81
2.11733	-80
2.12100	-80
2.12467	-79
2.12833	-79
2.13200	-79
2.13567	-79
2.13933	-79
2.14300	-79
2.14667	-80
2.15033	-80
2.15400	-80
2.15767	-79
2.16133	-79
2.16500	-78
2.16867	-77
2.17233	-77
2.17600	-76
2.17967	-76
2.18333	-76
2.18700	-76
2.19067	-76
2.19433	-75
2.19800	-75
2.20167	-74
2.20533	-74
2.20900	-73
2.21267	-72
2.21633	-72
2.22000	-72
2.22367	-72
2.22733	-72
2.23100	-72
2.23467	-72
2.23833	-71
2.24200	-71
2.24567	-71
2.24933	-70
2.25300	-70
2.25667	-69
2.26033	-69
2.26400	-68
2.26767	-68
2.27133	-67
2.27500	-67
2.27867	-67
2.28233	-67
2.28600	-68
2.28967	-69
2.29333	-69
2.29700	-70
2.30067	-69
2.30433	-69
2.30800	-68
2.31167	-68
2.31533	-67
2.31900	-66
2.32267	-66
2.32633	-65
2.33000	-65
2.33367	-65
2.33733	-65
2.34100	-65
2.34467	-64
2.34833	-63
2.35200	-61
2.35567	-60
2.35933	-59
2.36300	-57
2.36667	-55
2.37033	-53
2.37400	-51
2.37767	-48
2.38133	-45
2.38500	-41
2.38867	-37
2.39233	-33
2.39600	-29
2.39967	-25
2.40333	-21
2.40700	-17
2.41067	-14
2.41433	-10
2.41800	-8
2.42167	-5
2.42533	-3
2.42900	-1
2.43267	1
2.43633	3
2.44000	5
2.44367	7
2.44733	8
2.45100	9
2.45467	10
2.45833	11
2.46200	11
2.46567	12
2.46933	13
2.47300	13
2.47667	14
2.48033	15
2.48400	16
2.48767	16
2.49133	17
2.49500	17
2.49867	18
2.50233	18
2.50600	19
2.50967	20
2.51333	20
2.51700	20
2.52067	21
2.52433	21
2.52800	21
2.53167	21
2.53533	20
2.53900	20
2.54267	19
2.54633	19
2.55000	18
2.55367	18
2.55733	17
2.56100	16
2.56467	15
2.56833	14
2.57200	14
2.57567	14
2.57933	14
2.58300	15
2.58667	15
2.59033	16
2.59400	16
2.59767	16
2.60133	16
2.60500	17
2.60867	17
2.61233	17
2.61600	17
2.61967	17
2.62333	17
2.62700	17
2.63067	18
2.63433	19
2.63800	19
2.64167	20
2.64533	21
2.64900	21
2.65267	21
2.65633	22
2.66000	22
2.66367	22
2.66733	22
2.67100	23
2.67467	24
2.67833	24
2.68200	25
2.68567	25
2.68933	26
2.69300	26
2.69667	26
2.70033	27
2.70400	28
2.70767	28
2.71133	28
2.71500	29
2.71867	28
2.72233	28
2.72600	27
2.72967	27
2.73333	27
2.73700	26
2.74067	26
2.74433	26
2.74800	26
2.75167	26
2.75533	26
2.75900	26
2.76267	27
2.76633	27
2.77000	28
2.77367	28
2.77733	29
2.78100	29
2.78467	30
2.78833	30
2.79200	30
2.79567	30
2.79933	30
2.80300	30
2.80667	30
2.81033	30
2.81400	30
2.81767	30
2.82133	30
2.82500	30
2.82867	30
2.83233	30
2.83600	30
2.83967	30
2.84333	30
2.84700	30
2.85067	30
2.85433	30
2.85800	28
2.86167	26
2.86533	22
2.86900	15
2.87267	4
2.87633	-10
2.88000	-29
2.88367	-54
2.88733	-83
2.89100	-119
2.89467	-159
2.89833	-205
2.90200	-256
2.90567	-310
2.90933	-368
2.91300	-429
2.91667	-492
2.92033	-557
2.92400	-622
2.92767	-687
2.93133	-750
2.93500	-811
2.93867	-868
2.94233	-923
2.94600	-978
2.94967	-1033
2.95333	-1082
2.95700	-1115
2.96067	-1125
2.96433	-1109
2.96800	-1070
2.97167	-1012
2.97533	-941
2.97900	-862
2.98267	-780
2.98633	-699
2.99000	-620
2.99367	-545
2.99733	-477
3.00100	-414
3.00467	-358
3.00833	-308
3.01200	-263
3.01567	-224
3.01933	-190
3.02300	-161
3.02667	-135
3.03033	-113
3.03400	-94
3.03767	-78
3.04133	-64
3.04500	-52
3.04867	-42
3.05233	-34
3.05600	-26
3.05967	-20
3.06333	-14
3.06700	-9
3.07067	-5
3.07433	-2
3.07800	1
3.08167	4
3.08533	6
3.08900	8
3.09267	10
3.09633	11
3.10000	12
3.10367	14
3.10733	15
3.11100	16
3.11467	17
3.11833	18
3.12200	18
3.12567	19
3.12933	19
3.13300	20
3.13667	20
3.14033	20
3.14400	21
3.14767	21
3.15133	21
3.15500	21
3.15867	21
3.16233	22
3.16600	22
3.16967	22
3.17333	23
3.17700	23
3.18067	23
3.18433	24
3.18800	24
3.19167	24
3.19533	24
3.19900	24
3.20267	25
3.20633	25
3.21000	25
3.21367	25
3.21733	25
3.22100	25
3.22467	26
3.22833	26
3.23200	26
3.23567	26
3.23933	26
3.24300	27
3.24667	27
3.25033	27
3.25400	27
3.25767	27
3.26133	27
3.26500	27
3.26867	27
3.27233	27
3.27600	28
3.27967	28
3.28333	29
3.28700	29
3.29067	29
3.29433	30
3.29800	30
3.30167	30
3.30533	30
3.30900	30
3.31267	30
3.31633	30
3.32000	30
3.32367	30
3.32733	31
3.33100	31
3.33467	31
3.33833	32
3.34200	32
3.34567	32
3.34933	32
3.35300	32
3.35667	32
3.36033	32
3.36400	31
3.36767	31
3.37133	31
3.37500	31
3.37867	31
3.38233	31
3.38600	31
3.38967	31
3.39333	31
3.39700	31
3.40067	32
3.40433	32
3.40800	32
3.41167	32
3.41533	32
3.41900	32
3.42267	32
3.42633	32
3.43000	32
3.43367	32
3.43733	32
3.44100	32
3.44467	32
3.44833	32
3.45200	32
3.45567	32
3.45933	32
3.46300	32
3.46667	32
3.47033	32
3.47400	32
3.47767	32
3.48133	32
3.48500	32
3.48867	32
3.49233	32
3.49600	32
3.49967	32
3.50333	32
3.50700	32
3.51067	32
3.51433	32
3.51800	32
3.52167	32
3.52533	32
3.52900	32
3.53267	32
3.53633	32
3.54000	31
3.54367	31
3.54733	31
3.55100	31
3.55467	31
3.55833	31
3.56200	31
3.56567	31
3.56933	31
3.57300	31
3.57667	31
3.58033	31
3.58400	31
3.58767	31
3.59133	31
3.59500	31
3.59867	31
3.60233	30
3.60600	30
3.60967	30
3.61333	31
3.61700	31
3.62067	31
3.62433	31
3.62800	32
3.63167	32
3.63533	32
3.63900	32
3.64267	33
3.64633	32
3.65000	32
3.65367	32
3.65733	32
3.66100	32
3.66467	32
3.66833	32
3.67200	32
3.67567	32
3.67933	33
3.68300	33
3.68667	33
3.69033	33
3.69400	33
3.69767	33
3.70133	33
3.70500	32
3.70867	32
3.71233	32
3.71600	32
3.71967	32
3.72333	32
3.72700	32
3.73067	32
3.73433	32
3.73800	32
3.74167	32
3.74533	32
3.74900	32
3.75267	32
3.75633	32
3.76000	32
3.76367	32
3.76733	33
3.77100	33
3.77467	33
3.77833	32
3.78200	32
3.78567	32
3.78933	32
3.79300	32
3.79667	32
3.80033	32
3.80400	32
3.80767	32
3.81133	32
3.81500	32
3.81867	32
3.82233	32
3.82600	32
3.82967	32
3.83333	32
3.83700	32
3.84067	32
3.84433	32
3.84800	32
3.85167	32
3.85533	32
3.85900	32
3.86267	32
3.86633	32
3.87000	32
3.87367	32
3.87733	32
3.88100	32
3.88467	32
3.88833	32
3.89200	32
3.89567	32
3.89933	32
3.90300	32
3.90667	32
3.91033	32
3.91400	33
3.91767	32
3.92133	32
3.92500	32
3.92867	32
3.93233	32
3.93600	32
3.93967	32
3.94333	32
3.94700	32
3.95067	32
3.95433	32
3.95800	31
3.96167	31
3.96533	31
3.96900	31
3.97267	31
3.97633	31
3.98000	31
3.98367	32
3.98733	32
3.99100	32
3.99467	32
3.99833	32

[Chromatogram (Ch3)]
Interval(msec)	220
# of Points	1091
Start Time(min)	0.002
End Time(min)	3.998
R.Time (min)	Intensity
0.00167	-0
0.00533	-0
0.00900	2
0.01267	5
0.01633	7
0.02000	10
0.02367	10
0.02733	8
0.03100	6
0.03467	7
0.03833	8
0.04200	9
0.04567	9
0.04933	8
0.05300	7
0.05667	7
0.06033	6
0.06400	6
0.06767	5
0.07133	6
0.07500	9
0.07867	11
0.08233	11
0.08600	10
0.08967	8
0.09333	8
0.09700	9
0.10067	8
0.10433	6
0.10800	5
0.11167	6
0.11533	5
0.11900	3
0.12267	4
0.12633	4
0.13000	6
0.13367	8
0.13733	7
0.14100	5
0.14467	2
0.14833	2
0.15200	2
0.15567	5
0.15933	7
0.16300	6
0.16667	8
0.17033	8
0.17400	6
0.17767	3
0.18133	1
0.18500	2
0.18867	0
0.19233	-2
0.19600	-4
0.19967	-4
0.20333	-3
0.20700	-1
0.21067	0
0.21433	0
0.21800	2
0.22167	4
0.22533	6
0.22900	5
0.23267	6
0.23633	7
0.24000	8
0.24367	8
0.24733	9
0.25100	9
0.25467	7
0.25833	8
0.26200	8
0.26567	8
0.26933	8
0.27300	7
0.27667	3
0.28033	2
0.28400	1
0.28767	4
0.29133	7
0.29500	9
0.29867	9
0.30233	10
0.30600	9
0.30967	9
0.31333	8
0.31700	6
0.32067	5
0.32433	4
0.32800	3
0.33167	1
0.33533	2
0.33900	6
0.34267	8
0.34633	9
0.35000	9
0.35367	8
0.35733	7
0.36100	6
0.36467	4
0.36833	4
0.37200	6
0.37567	7
0.37933	7
0.38300	9
0.38667	11
0.39033	11
0.39400	9
0.39767	10
0.40133	10
0.40500	7
0.40867	5
0.41233	7
0.41600	8
0.41967	10
0.42333	12
0.42700	10
0.43067	10
0.43433	8
0.43800	6
0.44167	5
0.44533	3
0.44900	3
0.45267	3
0.45633	3
0.46000	4
0.46367	5
0.46733	3
0.47100	2
0.47467	4
0.47833	5
0.48200	4
0.48567	4
0.48933	4
0.49300	8
0.49667	9
0.50033	7
0.50400	6
0.50767	5
0.51133	3
0.51500	2
0.51867	2
0.52233	3
0.52600	2
0.52967	4
0.53333	7
0.53700	7
0.54067	8
0.54433	9
0.54800	11
0.55167	12
0.55533	11
0.55900	9
0.56267	9
0.56633	9
0.57000	5
0.57367	4
0.57733	7
0.58100	9
0.58467	9
0.58833	9
0.59200	10
0.59567	12
0.59933	14
0.60300	13
0.60667	13
0.61033	16
0.61400	17
0.61767	17
0.62133	16
0.62500	16
0.62867	16
0.63233	14
0.63600	14
0.63967	15
0.64333	16
0.64700	17
0.65067	18
0.65433	17
0.65800	14
0.66167	11
0.66533	12
0.66900	14
0.67267	16
0.67633	17
0.68000	16
0.68367	15
0.68733	13
0.69100	10
0.69467	11
0.69833	13
0.70200	14
0.70567	15
0.70933	14
0.71300	12
0.71667	9
0.72033	7
0.72400	10
0.72767	13
0.73133	13
0.73500	12
0.73867	10
0.74233	10
0.74600	11
0.74967	11
0.75333	12
0.75700	13
0.76067	12
0.76433	9
0.76800	5
0.77167	3
0.77533	2
0.77900	5
0.78267	8
0.78633	12
0.79000	15
0.79367	15
0.79733	12
0.80100	12
0.80467	14
0.80833	15
0.81200	14
0.81567	14
0.81933	13
0.82300	13
0.82667	10
0.83033	10
0.83400	14
0.83767	19
0.84133	21
0.84500	19
0.84867	17
0.85233	15
0.85600	15
0.85967	14
0.86333	12
0.86700	11
0.87067	13
0.87433	13
0.87800	14
0.88167	15
0.88533	19
0.88900	22
0.89267	21
0.89633	18
0.90000	18
0.90367	16
0.90733	14
0.91100	14
0.91467	12
0.91833	14
0.92200	17
0.92567	14
0.92933	11
0.93300	12
0.93667	16
0.94033	18
0.94400	18
0.94767	16
0.95133	14
0.95500	13
0.95867	10
0.96233	10
0.96600	10
0.96967	10
0.97333	11
0.97700	11
0.98067	11
0.98433	14
0.98800	16
0.99167	15
0.99533	15
0.99900	15
1.00267	13
1.00633	12
1.01000	11
1.01367	11
1.01733	11
1.02100	13
1.02467	15
1.02833	16
1.03200	17
1.03567	16
1.03933	13
1.04300	13
1.04667	13
1.05033	13
1.05400	15
1.05767	17
1.06133	19
1.06500	20
1.06867	18
1.07233	17
1.07600	17
1.07967	17
1.08333	16
1.08700	15
1.09067	15
1.09433	14
1.09800	16
1.10167	15
1.10533	14
1.10900	14
1.11267	15
1.11633	18
1.12000	22
1.12367	23
1.12733	22
1.13100	21
1.13467	20
1.13833	19
1.14200	17
1.14567	16
1.14933	17
1.15300	18
1.15667	17
1.16033	17
1.16400	16
1.16767	14
1.17133	14
1.17500	15
1.17867	12
1.18233	11
1.18600	12
1.18967	12
1.19333	10
1.19700	12
1.20067	14
1.20433	18
1.20800	17
1.21167	14
1.21533	13
1.21900	16
1.22267	19
1.22633	20
1.23000	23
1.23367	21
1.23733	18
1.24100	20
1.24467	23
1.24833	23
1.25200	22
1.25567	21
1.25933	19
1.26300	18
1.26667	19
1.27033	18
1.27400	16
1.27767	14
1.28133	14
1.28500	16
1.28867	16
1.29233	18
1.29600	20
1.29967	23
1.30333	21
1.30700	20
1.31067	19
1.31433	19
1.31800	17
1.32167	17
1.32533	16
1.32900	15
1.33267	13
1.33633	12
1.34000	12
1.34367	15
1.34733	18
1.35100	21
1.35467	21
1.35833	23
1.36200	23
1.36567	23
1.36933	23
1.37300	23
1.37667	22
1.38033	20
1.38400	20
1.38767	20
1.39133	18
1.39500	18
1.39867	19
1.40233	18
1.40600	15
1.40967	13
1.41333	13
1.41700	10
1.42067	8
1.42433	7
1.42800	10
1.43167	11
1.43533	14
1.43900	18
1.44267	21
1.44633	21
1.45000	19
1.45367	18
1.45733	15
1.46100	14
1.46467	14
1.46833	15
1.47200	16
1.47567	17
1.47933	19
1.48300	21
1.48667	20
1.49033	18
1.49400	15
1.49767	11
1.50133	6
1.50500	3
1.50867	7
1.51233	11
1.51600	11
1.51967	11
1.52333	10
1.52700	10
1.53067	13
1.53433	16
1.53800	14
1.54167	12
1.54533	11
1.54900	10
1.55267	10
1.55633	11
1.56000	11
1.56367	11
1.56733	13
1.57100	13
1.57467	13
1.57833	13
1.58200	12
1.58567	11
1.58933	9
1.59300	6
1.59667	7
1.60033	8
1.60400	9
1.60767	15
1.61133	18
1.61500	17
1.61867	17
1.62233	18
1.62600	19
1.62967	21
1.63333	23
1.63700	23
1.64067	21
1.64433	20
1.64800	19
1.65167	19
1.65533	21
1.65900	21
1.66267	21
1.66633	21
1.67000	19
1.67367	19
1.67733	20
1.68100	19
1.68467	20
1.68833	20
1.69200	20
1.69567	20
1.69933	20
1.70300	18
1.70667	18
1.71033	20
1.71400	21
1.71767	20
1.72133	20
1.72500	21
1.72867	22
1.73233	22
1.73600	23
1.73967	24
1.74333	23
1.74700	21
1.75067	21
1.75433	21
1.75800	21
1.76167	21
1.76533	24
1.76900	28
1.77267	29
1.77633	30
1.78000	33
1.78367	35
1.78733	36
1.79100	31
1.79467	30
1.79833	27
1.80200	26
1.80567	27
1.80933	26
1.81300	28
1.81667	26
1.82033	26
1.82400	26
1.82767	27
1.83133	28
1.83500	26
1.83867	25
1.84233	26
1.84600	27
1.84967	27
1.85333	27
1.85700	29
1.86067	30
1.86433	31
1.86800	33
1.87167	32
1.87533	30
1.87900	31
1.88267	33
1.88633	35
1.89000	36
1.89367	37
1.89733	34
1.90100	33
1.90467	37
1.90833	38
1.91200	38
1.91567	36
1.91933	37
1.92300	38
1.92667	39
1.93033	38
1.93400	40
1.93767	41
1.94133	43
1.94500	43
1.94867	41
1.95233	40
1.95600	38
1.95967	38
1.96333	39
1.96700	39
1.97067	42
1.97433	42
1.97800	40
1.98167	39
1.98533	40
1.98900	41
1.99267	40
1.99633	40
2.00000	41
2.00367	42
2.00733	42
2.01100	41
2.01467	40
2.01833	40
2.02200	43
2.02567	47
2.02933	49
2.03300	48
2.03667	47
2.04033	46
2.04400	46
2.04767	48
2.05133	52
2.05500	56
2.05867	60
2.06233	60
2.06600	60
2.06967	61
2.07333	61
2.07700	60
2.08067	58
2.08433	56
2.08800	57
2.09167	57
2.09533	56
2.09900	53
2.10267	53
2.10633	56
2.11000	57
2.11367	58
2.11733	56
2.12100	55
2.12467	57
2.12833	57
2.13200	56
2.13567	56
2.13933	59
2.14300	57
2.14667	57
2.15033	57
2.15400	57
2.15767	58
2.16133	59
2.16500	62
2.16867	66
2.17233	69
2.17600	71
2.17967	74
2.18333	73
2.18700	70
2.19067	71
2.19433	75
2.19800	77
2.20167	75
2.20533	74
2.20900	74
2.21267	72
2.21633	72
2.22000	73
2.22367	75
2.22733	77
2.23100	77
2.23467	78
2.23833	80
2.24200	80
2.24567	78
2.24933	80
2.25300	81
2.25667	81
2.26033	81
2.26400	83
2.26767	86
2.27133	86
2.27500	88
2.27867	90
2.28233	89
2.28600	90
2.28967	89
2.29333	88
2.29700	88
2.30067	91
2.30433	91
2.30800	89
2.31167	87
2.31533	86
2.31900	86
2.32267	90
2.32633	93
2.33000	95
2.33367	96
2.33733	97
2.34100	98
2.34467	99
2.34833	98
2.35200	94
2.35567	92
2.35933	94
2.36300	96
2.36667	99
2.37033	100
2.37400	98
2.37767	94
2.38133	94
2.38500	92
2.38867	85
2.39233	84
2.39600	89
2.39967	99
2.40333	107
2.40700	113
2.41067	120
2.41433	126
2.41800	127
2.42167	127
2.42533	130
2.42900	129
2.43267	129
2.43633	128
2.44000	132
2.44367	163
2.44733	216
2.45100	261
2.45467	288
2.45833	293
2.46200	282
2.46567	270
2.46933	260
2.47300	248
2.47667	232
2.48033	212
2.48400	189
2.48767	166
2.49133	150
2.49500	142
2.49867	140
2.50233	144
2.50600	152
2.50967	157
2.51333	160
2.51700	156
2.52067	146
2.52433	138
2.52800	129
2.53167	119
2.53533	110
2.53900	102
2.54267	94
2.54633	87
2.55000	80
2.55367	76
2.55733	75
2.56100	76
2.56467	77
2.56833	78
2.57200	82
2.57567	87
2.57933	91
2.58300	96
2.58667	102
2.59033	109
2.59400	120
2.59767	128
2.60133	132
2.60500	134
2.60867	136
2.61233	135
2.61600	131
2.61967	123
2.62333	114
2.62700	105
2.63067	94
2.63433	85
2.63800	77
2.64167	70
2.64533	65
2.64900	61
2.65267	56
2.65633	53
2.66000	52
2.66367	51
2.66733	52
2.67100	52
2.67467	47
2.67833	41
2.68200	41
2.68567	42
2.68933	41
2.69300	40
2.69667	43
2.70033	45
2.70400	48
2.70767	48
2.71133	49
2.71500	48
2.71867	46
2.72233	46
2.72600	47
2.72967	51
2.73333	53
2.73700	56
2.74067	58
2.74433	63
2.74800	67
2.75167	72
2.75533	75
2.75900	78
2.76267	84
2.76633	89
2.77000	95
2.77367	97
2.77733	94
2.78100	94
2.78467	96
2.78833	99
2.79200	103
2.79567	107
2.79933	108
2.80300	108
2.80667	106
2.81033	104
2.81400	100
2.81767	102
2.82133	105
2.82500	108
2.82867	108
2.83233	109
2.83600	113
2.83967	124
2.84333	155
2.84700	217
2.85067	327
2.85433	502
2.85800	757
2.86167	1092
2.86533	1498
2.86900	1949
2.87267	2411
2.87633	2850
2.88000	3227
2.88367	3513
2.88733	3688
2.89100	3749
2.89467	3706
2.89833	3575
2.90200	3377
2.90567	3138
2.90933	2877
2.91300	2609
2.91667	2345
2.92033	2093
2.92400	1856
2.92767	1639
2.93133	1443
2.93500	1268
2.93867	1114
2.94233	977
2.94600	857
2.94967	753
2.95333	665
2.95700	588
2.96067	521
2.96433	464
2.96800	414
2.97167	369
2.97533	330
2.97900	297
2.98267	269
2.98633	245
2.99000	225
2.99367	208
2.99733	193
3.00100	181
3.00467	168
3.00833	155
3.01200	139
3.01567	78
3.01933	-40
3.02300	-134
3.02667	-155
3.03033	-106
3.03400	-5
3.03767	123
3.04133	258
3.04500	392
3.04867	514
3.05233	615
3.05600	699
3.05967	769
3.06333	825
3.06700	867
3.07067	901
3.07433	925
3.07800	945
3.08167	963
3.08533	976
3.08900	986
3.09267	991
3.09633	997
3.10000	1001
3.10367	1003
3.10733	1006
3.11100	1007
3.11467	1006
3.11833	1005
3.12200	1005
3.12567	1004
3.12933	1002
3.13300	1000
3.13667	997
3.14033	992
3.14400	989
3.14767	990
3.15133	987
3.15500	982
3.15867	977
3.16233	967
3.16600	961
3.16967	958
3.17333	952
3.17700	947
3.18067	942
3.18433	939
3.18800	934
3.19167	928
3.19533	923
3.19900	921
3.20267	919
3.20633	913
3.21000	906
3.21367	898
3.21733	890
3.22100	885
3.22467	881
3.22833	876
3.23200	870
3.23567	865
3.23933	863
3.24300	860
3.24667	853
3.25033	846
3.25400	840
3.25767	832
3.26133	825
3.26500	823
3.26867	821
3.27233	819
3.27600	820
3.27967	815
3.28333	809
3.28700	802
3.29067	797
3.29433	794
3.29800	791
3.30167	788
3.30533	786
3.30900	783
3.31267	782
3.31633	777
3.32000	773
3.32367	773
3.32733	773
3.33100	770
3.33467	768
3.33833	767
3.34200	767
3.34567	762
3.34933	757
3.35300	755
3.35667	756
3.36033	755
3.36400	754
3.36767	756
3.37133	758
3.37500	759
3.37867	758
3.38233	756
3.38600	755
3.38967	755
3.39333	756
3.39700	755
3.40067	750
3.40433	746
3.40800	745
3.41167	741
3.41533	737
3.41900	736
3.42267	732
3.42633	729
3.43000	725
3.43367	719
3.43733	713
3.44100	710
3.44467	708
3.44833	701
3.45200	697
3.45567	694
3.45933	691
3.46300	687
3.46667	681
3.47033	675
3.47400	671
3.47767	664
3.48133	660
3.48500	658
3.48867	656
3.49233	652
3.49600	650
3.49967	646
3.50333	644
3.50700	639
3.51067	636
3.51433	636
3.51800	633
3.52167	631
3.52533	630
3.52900	628
3.53267	625
3.53633	623
3.54000	620
3.54367	618
3.54733	617
3.55100	615
3.55467	616
3.55833	617
3.56200	616
3.56567	613
3.56933	610
3.57300	611
3.57667	610
3.58033	607
3.58400	605
3.58767	605
3.59133	602
3.59500	597
3.59867	594
3.60233	594
3.60600	594
3.60967	594
3.61333	592
3.61700	591
3.62067	591
3.62433	590
3.62800	585
3.63167	582
3.63533	581
3.63900	578
3.64267	579
3.64633	583
3.65000	584
3.65367	580
3.65733	577
3.66100	576
3.66467	577
3.66833	577
3.67200	577
3.67567	577
3.67933	575
3.68300	572
3.68667	571
3.69033	573
3.69400	575
3.69767	574
3.70133	571
3.70500	569
3.70867	569
3.71233	566
3.71600	564
3.71967	565
3.72333	568
3.72700	569
3.73067	570
3.73433	571
3.73800	572
3.74167	569
3.74533	568
3.74900	568
3.75267	565
3.75633	565
3.76000	566
3.76367	567
3.76733	567
3.77100	564
3.77467	561
3.77833	561
3.78200	564
3.78567	567
3.78933	565
3.79300	564
3.79667	565
3.80033	563
3.80400	559
3.80767	556
3.81133	553
3.81500	553
3.81867	554
3.82233	553
3.82600	552
3.82967	551
3.83333	550
3.83700	549
3.84067	548
3.84433	545
3.84800	542
3.85167	542
3.85533	543
3.85900	545
3.86267	544
3.86633	541
3.87000	541
3.87367	542
3.87733	543
3.88100	544
3.88467	543
3.88833	539
3.89200	536
3.89567	536
3.89933	538
3.90300	537
3.90667	538
3.91033	537
3.91400	533
3.91767	532
3.92133	530
3.92500	528
3.92867	527
3.93233	524
3.93600	524
3.93967	525
3.94333	525
3.94700	523
3.95067	521
3.95433	519
3.95800	518
3.96167	518
3.96533	519
3.96900	518
3.97267	518
3.97633	518
3.98000	516
3.98367	513
3.98733	513
3.99100	515
3.99467	513
3.99833	505

[Status Trace (Column Oven Temperature)]
Interval(msec)	1000
# of Points	240
Start Time(min)	0.008
End Time(min)	3.992
Intensity Units	
Intensity Multiplier	1
R.Time (min)	Intensity
0.00835	35.03
0.02502	35.04
0.04168	35.04
0.05835	35.04
0.07502	35.04
0.09168	35.03
0.10835	35.03
0.12502	35.02
0.14168	35.03
0.15835	35.02
0.17502	35.02
0.19168	35.02
0.20835	35.02
0.22502	35.01
0.24168	35.01
0.25835	35.01
0.27502	35.01
0.29168	35.01
0.30835	35.01
0.32502	35.01
0.34168	35.01
0.35835	35.02
0.37502	35.01
0.39168	35.01
0.40835	35.00
0.42502	34.99
0.44168	35.00
0.45835	35.01
0.47502	35.00
0.49168	35.00
0.50835	35.00
0.52502	35.00
0.54168	34.99
0.55835	34.98
0.57502	34.99
0.59168	34.99
0.60835	35.00
0.62502	35.00
0.64168	35.01
0.65835	35.01
0.67502	35.01
0.69168	35.01
0.70835	35.01
0.72502	35.01
0.74168	35.01
0.75835	35.01
0.77502	35.01
0.79168	35.01
0.80835	35.01
0.82502	35.01
0.84168	35.01
0.85835	35.01
0.87502	35.00
0.89168	35.00
0.90835	34.99
0.92502	35.00
0.94168	35.00
0.95835	34.99
0.97502	34.99
0.99168	34.99
1.00835	34.99
1.02502	35.00
1.04168	34.99
1.05835	34.99
1.07502	34.99
1.09168	34.99
1.10835	34.99
1.12502	34.99
1.14168	34.99
1.15835	34.99
1.17502	34.99
1.19168	34.99
1.20835	35.00
1.22502	35.00
1.24168	35.00
1.25835	35.00
1.27502	35.00
1.29168	35.00
1.30835	35.01
1.32502	35.00
1.34168	35.00
1.35835	35.00
1.37502	34.99
1.39168	35.00
1.40835	35.00
1.42502	34.99
1.44168	34.99
1.45835	34.99
1.47502	35.00
1.49168	34.99
1.50835	35.00
1.52502	34.99
1.54168	34.99
1.55835	34.99
1.57502	34.98
1.59168	35.00
1.60835	35.05
1.62502	35.17
1.64168	35.35
1.65835	35.59
1.67502	35.93
1.69168	36.30
1.70835	36.65
1.72502	36.99
1.74168	37.33
1.75835	37.66
1.77502	38.00
1.79168	38.32
1.80835	38.66
1.82502	38.99
1.84168	39.31
1.85835	39.64
1.87502	39.98
1.89168	40.29
1.90835	40.63
1.92502	40.94
1.94168	41.27
1.95835	41.60
1.97502	41.93
1.99168	42.27
2.00835	42.58
2.02502	42.92
2.04168	43.23
2.05835	43.57
2.07502	43.89
2.09168	44.22
2.10835	44.54
2.12502	44.86
2.14168	45.23
2.15835	45.52
2.17502	45.85
2.19168	46.18
2.20835	46.49
2.22502	46.82
2.24168	47.15
2.25835	47.49
2.27502	47.80
2.29168	48.18
2.30835	48.50
2.32502	48.82
2.34168	49.14
2.35835	49.43
2.37502	49.61
2.39168	49.68
2.40835	49.67
2.42502	49.68
2.44168	49.67
2.45835	49.69
2.47502	49.70
2.49168	49.71
2.50835	49.72
2.52502	49.73
2.54168	49.74
2.55835	49.75
2.57502	49.77
2.59168	49.79
2.60835	49.81
2.62502	49.84
2.64168	49.84
2.65835	49.85
2.67502	49.86
2.69168	49.85
2.70835	49.84
2.72502	49.86
2.74168	49.87
2.75835	49.88
2.77502	49.87
2.79168	49.87
2.80835	49.87
2.82502	49.88
2.84168	49.88
2.85835	49.88
2.87502	49.89
2.89168	49.91
2.90835	49.92
2.92502	49.94
2.94168	49.96
2.95835	49.97
2.97502	49.98
2.99168	49.99
3.00835	49.99
3.02502	50.00
3.04168	50.00
3.05835	50.01
3.07502	50.02
3.09168	50.04
3.10835	50.03
3.12502	50.05
3.14168	50.06
3.15835	50.07
3.17502	50.08
3.19168	50.08
3.20835	50.08
3.22502	50.09
3.24168	50.10
3.25835	50.11
3.27502	50.10
3.29168	50.10
3.30835	50.10
3.32502	50.09
3.34168	50.08
3.35835	50.07
3.37502	50.07
3.39168	50.07
3.40835	50.06
3.42502	50.05
3.44168	50.05
3.45835	50.05
3.47502	50.05
3.49168	50.05
3.50835	50.05
3.52502	50.05
3.54168	50.05
3.55835	50.05
3.57502	50.05
3.59168	50.06
3.60835	50.06
3.62502	50.07
3.64168	50.07
3.65835	50.07
3.67502	50.07
3.69168	50.07
3.70835	50.07
3.72502	50.07
3.74168	50.07
3.75835	50.07
3.77502	50.08
3.79168	50.07
3.80835	50.07
3.82502	50.08
3.84168	50.07
3.85835	50.07
3.87502	50.06
3.89168	50.07
3.90835	50.07
3.92502	50.07
3.94168	50.07
3.95835	50.07
3.97502	50.07
3.99168	50.07

[Status Trace (Injection Unit Temperature)]
Interval(msec)	1000
# of Points	240
Start Time(min)	0.008
End Time(min)	3.992
Intensity Units	
Intensity Multiplier	1
R.Time (min)	Intensity
0.00835	99.98
0.02502	99.98
0.04168	99.98
0.05835	99.98
0.07502	99.98
0.09168	99.98
0.10835	99.98
0.12502	99.98
0.14168	99.98
0.15835	99.98
0.17502	99.98
0.19168	99.98
0.20835	99.98
0.22502	99.98
0.24168	99.98
0.25835	99.98
0.27502	99.98
0.29168	99.98
0.30835	99.98
0.32502	99.98
0.34168	99.98
0.35835	99.98
0.37502	99.98
0.39168	99.98
0.40835	99.98
0.42502	99.98
0.44168	99.98
0.45835	99.98
0.47502	99.98
0.49168	99.98
0.50835	99.98
0.52502	99.98
0.54168	99.98
0.55835	99.98
0.57502	99.98
0.59168	99.98
0.60835	99.98
0.62502	99.98
0.64168	99.98
0.65835	99.98
0.67502	99.98
0.69168	99.98
0.70835	99.98
0.72502	99.98
0.74168	99.98
0.75835	99.98
0.77502	99.98
0.79168	99.98
0.80835	99.98
0.82502	99.98
0.84168	99.98
0.85835	99.98
0.87502	99.98
0.89168	99.98
0.90835	99.98
0.92502	99.98
0.94168	99.98
0.95835	99.98
0.97502	99.98
0.99168	99.98
1.00835	99.98
1.02502	99.98
1.04168	99.98
1.05835	99.98
1.07502	99.98
1.09168	99.98
1.10835	99.98
1.12502	99.98
1.14168	99.98
1.15835	99.98
1.17502	99.98
1.19168	99.98
1.20835	99.98
1.22502	99.98
1.24168	99.98
1.25835	99.98
1.27502	99.98
1.29168	99.98
1.30835	99.98
1.32502	99.98
1.34168	99.98
1.35835	99.98
1.37502	99.98
1.39168	99.98
1.40835	99.98
1.42502	99.98
1.44168	99.98
1.45835	99.98
1.47502	99.98
1.49168	99.98
1.50835	99.98
1.52502	99.98
1.54168	99.98
1.55835	99.98
1.57502	99.98
1.59168	99.98
1.60835	99.98
1.62502	99.98
1.64168	99.98
1.65835	99.98
1.67502	99.98
1.69168	99.98
1.70835	99.98
1.72502	99.98
1.74168	99.98
1.75835	99.98
1.77502	99.98
1.79168	99.98
1.80835	99.98
1.82502	99.98
1.84168	99.98
1.85835	99.98
1.87502	99.97
1.89168	99.98
1.90835	99.97
1.92502	99.98
1.94168	99.97
1.95835	99.97
1.97502	99.97
1.99168	99.97
2.00835	99.97
2.02502	99.97
2.04168	99.97
2.05835	99.97
2.07502	99.97
2.09168	99.97
2.10835	99.97
2.12502	99.97
2.14168	99.97
2.15835	99.97
2.17502	99.96
2.19168	99.97
2.20835	99.96
2.22502	99.96
2.24168	99.96
2.25835	99.96
2.27502	99.96
2.29168	99.96
2.30835	99.96
2.32502	99.96
2.34168	99.96
2.35835	99.96
2.37502	99.96
2.39168	99.96
2.40835	99.96
2.42502	99.96
2.44168	99.96
2.45835	99.96
2.47502	99.96
2.49168	99.96
2.50835	99.96
2.52502	99.96
2.54168	99.96
2.55835	99.97
2.57502	99.97
2.59168	99.96
2.60835	99.97
2.62502	99.97
2.64168	99.97
2.65835	99.97
2.67502	99.98
2.69168	99.98
2.70835	99.98
2.72502	99.97
2.74168	99.98
2.75835	99.99
2.77502	99.99
2.79168	99.99
2.80835	99.99
2.82502	99.99
2.84168	99.99
2.85835	99.99
2.87502	100.00
2.89168	100.00
2.90835	100.00
2.92502	100.00
2.94168	100.00
2.95835	100.01
2.97502	100.00
2.99168	100.01
3.00835	100.01
3.02502	100.01
3.04168	100.01
3.05835	100.01
3.07502	100.02
3.09168	100.02
3.10835	100.02
3.12502	100.02
3.14168	100.02
3.15835	100.02
3.17502	100.02
3.19168	100.03
3.20835	100.02
3.22502	100.03
3.24168	100.03
3.25835	100.02
3.27502	100.03
3.29168	100.03
3.30835	100.03
3.32502	100.03
3.34168	100.03
3.35835	100.03
3.37502	100.03
3.39168	100.03
3.40835	100.03
3.42502	100.03
3.44168	100.04
3.45835	100.04
3.47502	100.04
3.49168	100.04
3.50835	100.04
3.52502	100.04
3.54168	100.04
3.55835	100.04
3.57502	100.04
3.59168	100.04
3.60835	100.04
3.62502	100.04
3.64168	100.04
3.65835	100.04
3.67502	100.04
3.69168	100.04
3.70835	100.04
3.72502	100.04
3.74168	100.05
3.75835	100.04
3.77502	100.04
3.79168	100.04
3.80835	100.04
3.82502	100.05
3.84168	100.05
3.85835	100.05
3.87502	100.04
3.89168	100.04
3.90835	100.05
3.92502	100.05
3.94168	100.05
3.95835	100.05
3.97502	100.04
3.99168	100.05

[Status Trace (Carrier Gas Pressure)]
Interval(msec)	1000
# of Points	240
Start Time(min)	0.008
End Time(min)	3.992
Intensity Units	
Intensity Multiplier	1
R.Time (min)	Intensity
0.00835	58.00
0.02502	55.28
0.04168	57.07
0.05835	59.24
0.07502	59.43
0.09168	58.09
0.10835	57.98
0.12502	58.01
0.14168	58.01
0.15835	58.01
0.17502	58.00
0.19168	58.00
0.20835	58.00
0.22502	58.00
0.24168	58.00
0.25835	58.00
0.27502	58.00
0.29168	58.00
0.30835	58.00
0.32502	58.00
0.34168	58.00
0.35835	58.00
0.37502	58.00
0.39168	58.00
0.40835	58.00
0.42502	58.00
0.44168	58.00
0.45835	58.00
0.47502	58.00
0.49168	58.00
0.50835	58.00
0.52502	58.00
0.54168	58.00
0.55835	58.00
0.57502	58.00
0.59168	58.00
0.60835	58.00
0.62502	58.00
0.64168	58.00
0.65835	58.00
0.67502	58.00
0.69168	58.00
0.70835	58.00
0.72502	58.00
0.74168	58.00
0.75835	58.00
0.77502	58.00
0.79168	58.00
0.80835	58.00
0.82502	58.00
0.84168	58.00
0.85835	58.00
0.87502	58.00
0.89168	58.00
0.90835	58.00
0.92502	58.00
0.94168	58.00
0.95835	58.00
0.97502	58.00
0.99168	58.00
1.00835	58.00
1.02502	58.00
1.04168	58.00
1.05835	58.00
1.07502	58.00
1.09168	58.00
1.10835	58.00
1.12502	58.00
1.14168	58.00
1.15835	58.00
1.17502	58.00
1.19168	58.00
1.20835	58.00
1.22502	58.00
1.24168	58.00
1.25835	58.00
1.27502	58.00
1.29168	58.00
1.30835	58.00
1.32502	58.00
1.34168	58.00
1.35835	58.00
1.37502	58.00
1.39168	58.00
1.40835	58.00
1.42502	58.00
1.44168	58.00
1.45835	58.00
1.47502	58.00
1.49168	58.00
1.50835	58.00
1.52502	58.00
1.54168	58.00
1.55835	58.00
1.57502	58.00
1.59168	58.00
1.60835	58.00
1.62502	58.00
1.64168	58.00
1.65835	58.00
1.67502	58.01
1.69168	58.00
1.70835	58.00
1.72502	58.00
1.74168	58.00
1.75835	58.00
1.77502	58.00
1.79168	58.00
1.80835	58.00
1.82502	58.00
1.84168	58.00
1.85835	58.00
1.87502	58.00
1.89168	58.00
1.90835	58.00
1.92502	58.00
1.94168	58.00
1.95835	58.00
1.97502	58.00
1.99168	58.00
2.00835	58.00
2.02502	58.00
2.04168	58.00
2.05835	58.00
2.07502	58.00
2.09168	58.00
2.10835	58.00
2.12502	58.00
2.14168	58.00
2.15835	58.00
2.17502	58.00
2.19168	58.00
2.20835	58.00
2.22502	58.00
2.24168	58.00
2.25835	58.00
2.27502	58.00
2.29168	58.00
2.30835	58.00
2.32502	58.00
2.34168	58.00
2.35835	58.00
2.37502	58.00
2.39168	57.99
2.40835	58.00
2.42502	58.00
2.44168	58.00
2.45835	58.00
2.47502	58.00
2.49168	58.00
2.50835	57.99
2.52502	57.98
2.54168	58.00
2.55835	58.00
2.57502	58.00
2.59168	58.00
2.60835	58.00
2.62502	58.00
2.64168	58.00
2.65835	58.00
2.67502	58.00
2.69168	58.00
2.70835	58.00
2.72502	58.00
2.74168	58.00
2.75835	58.00
2.77502	58.00
2.79168	58.00
2.80835	58.00
2.82502	58.00
2.84168	58.00
2.85835	58.00
2.87502	58.00
2.89168	58.00
2.90835	58.00
2.92502	58.00
2.94168	58.00
2.95835	58.00
2.97502	58.00
2.99168	58.00
3.00835	58.00
3.02502	58.00
3.04168	58.00
3.05835	58.00
3.07502	58.00
3.09168	58.00
3.10835	58.00
3.12502	58.00
3.14168	58.00
3.15835	58.00
3.17502	58.00
3.19168	58.00
3.20835	58.00
3.22502	58.00
3.24168	58.00
3.25835	58.00
3.27502	58.00
3.29168	58.00
3.30835	58.00
3.32502	58.00
3.34168	58.00
3.35835	58.00
3.37502	58.00
3.39168	58.00
3.40835	58.00
3.42502	58.00
3.44168	58.00
3.45835	58.00
3.47502	58.00
3.49168	58.00
3.50835	58.00
3.52502	58.00
3.54168	58.00
3.55835	58.00
3.57502	58.00
3.59168	58.00
3.60835	58.00
3.62502	58.00
3.64168	58.00
3.65835	58.00
3.67502	58.00
3.69168	58.00
3.70835	58.00
3.72502	58.00
3.74168	58.00
3.75835	58.00
3.77502	58.00
3.79168	58.00
3.80835	58.00
3.82502	58.00
3.84168	58.00
3.85835	58.00
3.87502	58.00
3.89168	58.00
3.90835	58.00
3.92502	58.00
3.94168	58.00
3.95835	58.00
3.97502	58.00
3.99168	58.00

[Status Trace (Carrier Gas Flow)]
Interval(msec)	1000
# of Points	240
Start Time(min)	0.008
End Time(min)	3.992
Intensity Units	
Intensity Multiplier	1
R.Time (min)	Intensity
0.00835	34.52
0.02502	34.53
0.04168	34.55
0.05835	34.55
0.07502	34.50
0.09168	34.51
0.10835	34.52
0.12502	34.52
0.14168	34.51
0.15835	34.52
0.17502	34.52
0.19168	34.52
0.20835	34.51
0.22502	34.52
0.24168	34.52
0.25835	34.52
0.27502	34.52
0.29168	34.52
0.30835	34.52
0.32502	34.52
0.34168	34.52
0.35835	34.52
0.37502	34.52
0.39168	34.52
0.40835	34.52
0.42502	34.52
0.44168	34.52
0.45835	34.52
0.47502	34.52
0.49168	34.51
0.50835	34.52
0.52502	34.52
0.54168	34.52
0.55835	34.52
0.57502	34.52
0.59168	34.52
0.60835	34.51
0.62502	34.52
0.64168	34.52
0.65835	34.52
0.67502	34.51
0.69168	34.52
0.70835	34.52
0.72502	34.52
0.74168	34.52
0.75835	34.51
0.77502	34.53
0.79168	34.52
0.80835	34.52
0.82502	34.52
0.84168	34.52
0.85835	34.52
0.87502	34.52
0.89168	34.52
0.90835	34.52
0.92502	34.52
0.94168	34.52
0.95835	34.52
0.97502	34.52
0.99168	34.52
1.00835	34.52
1.02502	34.52
1.04168	34.52
1.05835	34.52
1.07502	34.52
1.09168	34.51
1.10835	34.52
1.12502	34.52
1.14168	34.52
1.15835	34.51
1.17502	34.52
1.19168	34.53
1.20835	34.52
1.22502	34.51
1.24168	34.52
1.25835	34.52
1.27502	34.52
1.29168	34.52
1.30835	34.52
1.32502	34.51
1.34168	34.52
1.35835	34.52
1.37502	34.52
1.39168	34.52
1.40835	34.52
1.42502	34.51
1.44168	34.52
1.45835	34.52
1.47502	34.52
1.49168	34.52
1.50835	34.52
1.52502	34.52
1.54168	34.52
1.55835	34.52
1.57502	34.51
1.59168	34.52
1.60835	34.52
1.62502	34.51
1.64168	34.52
1.65835	34.52
1.67502	34.52
1.69168	34.52
1.70835	34.52
1.72502	34.52
1.74168	34.52
1.75835	34.52
1.77502	34.52
1.79168	34.52
1.80835	34.52
1.82502	34.52
1.84168	34.52
1.85835	34.52
1.87502	34.52
1.89168	34.52
1.90835	34.51
1.92502	34.52
1.94168	34.52
1.95835	34.52
1.97502	34.52
1.99168	34.52
2.00835	34.52
2.02502	34.52
2.04168	34.52
2.05835	34.52
2.07502	34.52
2.09168	34.51
2.10835	34.52
2.12502	34.52
2.14168	34.52
2.15835	34.52
2.17502	34.52
2.19168	34.51
2.20835	34.52
2.22502	34.52
2.24168	34.52
2.25835	34.52
2.27502	34.52
2.29168	34.52
2.30835	34.52
2.32502	34.52
2.34168	34.52
2.35835	34.52
2.37502	34.52
2.39168	34.52
2.40835	34.52
2.42502	34.52
2.44168	34.51
2.45835	34.52
2.47502	34.52
2.49168	34.52
2.50835	34.42
2.52502	34.53
2.54168	34.52
2.55835	34.51
2.57502	34.52
2.59168	34.52
2.60835	34.52
2.62502	34.52
2.64168	34.52
2.65835	34.52
2.67502	34.52
2.69168	34.52
2.70835	34.52
2.72502	34.51
2.74168	34.51
2.75835	34.52
2.77502	34.52
2.79168	34.52
2.80835	34.52
2.82502	34.53
2.84168	34.52
2.85835	34.52
2.87502	34.52
2.89168	34.52
2.90835	34.51
2.92502	34.52
2.94168	34.52
2.95835	34.51
2.97502	34.52
2.99168	34.52
3.00835	34.52
3.02502	34.52
3.04168	34.52
3.05835	34.52
3.07502	34.52
3.09168	34.52
3.10835	34.52
3.12502	34.52
3.14168	34.52
3.15835	34.52
3.17502	34.52
3.19168	34.52
3.20835	34.52
3.22502	34.52
3.24168	34.52
3.25835	34.52
3.27502	34.52
3.29168	34.51
3.30835	34.52
3.32502	34.53
3.34168	34.52
3.35835	34.51
3.37502	34.51
3.39168	34.52
3.40835	34.52
3.42502	34.52
3.44168	34.52
3.45835	34.52
3.47502	34.52
3.49168	34.52
3.50835	34.52
3.52502	34.52
3.54168	34.52
3.55835	34.52
3.57502	34.51
3.59168	34.52
3.60835	34.52
3.62502	34.52
3.64168	34.51
3.65835	34.52
3.67502	34.52
3.69168	34.52
3.70835	34.52
3.72502	34.51
3.74168	34.51
3.75835	34.52
3.77502	34.51
3.79168	34.52
3.80835	34.52
3.82502	34.52
3.84168	34.52
3.85835	34.52
3.87502	34.51
3.89168	34.51
3.90835	34.52
3.92502	34.52
3.94168	34.52
3.95835	34.52
3.97502	34.52
3.99168	34.52

[Status Trace (Column Flow)]
Interval(msec)	1000
# of Points	240
Start Time(min)	0.008
End Time(min)	3.992
Intensity Units	
Intensity Multiplier	1
R.Time (min)	Intensity
0.00835	5.51
0.02502	5.19
0.04168	5.40
0.05835	5.65
0.07502	5.67
0.09168	5.52
0.10835	5.50
0.12502	5.51
0.14168	5.51
0.15835	5.51
0.17502	5.51
0.19168	5.51
0.20835	5.51
0.22502	5.51
0.24168	5.51
0.25835	5.51
0.27502	5.51
0.29168	5.51
0.30835	5.51
0.32502	5.51
0.34168	5.51
0.35835	5.51
0.37502	5.51
0.39168	5.51
0.40835	5.51
0.42502	5.51
0.44168	5.51
0.45835	5.51
0.47502	5.51
0.49168	5.51
0.50835	5.51
0.52502	5.51
0.54168	5.51
0.55835	5.51
0.57502	5.51
0.59168	5.51
0.60835	5.51
0.62502	5.51
0.64168	5.51
0.65835	5.51
0.67502	5.51
0.69168	5.51
0.70835	5.51
0.72502	5.51
0.74168	5.51
0.75835	5.51
0.77502	5.51
0.79168	5.51
0.80835	5.51
0.82502	5.51
0.84168	5.51
0.85835	5.51
0.87502	5.51
0.89168	5.51
0.90835	5.51
0.92502	5.51
0.94168	5.51
0.95835	5.51
0.97502	5.51
0.99168	5.51
1.00835	5.51
1.02502	5.51
1.04168	5.51
1.05835	5.51
1.07502	5.51
1.09168	5.51
1.10835	5.51
1.12502	5.51
1.14168	5.51
1.15835	5.51
1.17502	5.51
1.19168	5.51
1.20835	5.51
1.22502	5.51
1.24168	5.51
1.25835	5.51
1.27502	5.51
1.29168	5.51
1.30835	5.51
1.32502	5.51
1.34168	5.51
1.35835	5.51
1.37502	5.51
1.39168	5.51
1.40835	5.51
1.42502	5.51
1.44168	5.51
1.45835	5.51
1.47502	5.51
1.49168	5.51
1.50835	5.51
1.52502	5.51
1.54168	5.51
1.55835	5.51
1.57502	5.51
1.59168	5.51
1.60835	5.51
1.62502	5.50
1.64168	5.50
1.65835	5.49
1.67502	5.48
1.69168	5.47
1.70835	5.46
1.72502	5.45
1.74168	5.43
1.75835	5.42
1.77502	5.41
1.79168	5.40
1.80835	5.39
1.82502	5.38
1.84168	5.37
1.85835	5.36
1.87502	5.35
1.89168	5.34
1.90835	5.33
1.92502	5.33
1.94168	5.32
1.95835	5.31
1.97502	5.30
1.99168	5.29
2.00835	5.28
2.02502	5.27
2.04168	5.26
2.05835	5.25
2.07502	5.24
2.09168	5.23
2.10835	5.22
2.12502	5.21
2.14168	5.20
2.15835	5.19
2.17502	5.18
2.19168	5.17
2.20835	5.16
2.22502	5.15
2.24168	5.14
2.25835	5.14
2.27502	5.13
2.29168	5.12
2.30835	5.11
2.32502	5.10
2.34168	5.09
2.35835	5.08
2.37502	5.08
2.39168	5.07
2.40835	5.07
2.42502	5.07
2.44168	5.07
2.45835	5.07
2.47502	5.07
2.49168	5.07
2.50835	5.07
2.52502	5.07
2.54168	5.07
2.55835	5.07
2.57502	5.07
2.59168	5.07
2.60835	5.07
2.62502	5.07
2.64168	5.07
2.65835	5.07
2.67502	5.07
2.69168	5.07
2.70835	5.07
2.72502	5.07
2.74168	5.07
2.75835	5.07
2.77502	5.07
2.79168	5.07
2.80835	5.07
2.82502	5.07
2.84168	5.07
2.85835	5.07
2.87502	5.07
2.89168	5.07
2.90835	5.07
2.92502	5.07
2.94168	5.07
2.95835	5.07
2.97502	5.07
2.99168	5.07
3.00835	5.07
3.02502	5.07
3.04168	5.07
3.05835	5.06
3.07502	5.06
3.09168	5.06
3.10835	5.06
3.12502	5.06
3.14168	5.06
3.15835	5.06
3.17502	5.06
3.19168	5.06
3.20835	5.06
3.22502	5.06
3.24168	5.06
3.25835	5.06
3.27502	5.06
3.29168	5.06
3.30835	5.06
3.32502	5.06
3.34168	5.06
3.35835	5.06
3.37502	5.06
3.39168	5.06
3.40835	5.06
3.42502	5.06
3.44168	5.06
3.45835	5.06
3.47502	5.06
3.49168	5.06
3.50835	5.06
3.52502	5.06
3.54168	5.06
3.55835	5.06
3.57502	5.06
3.59168	5.06
3.60835	5.06
3.62502	5.06
3.64168	5.06
3.65835	5.06
3.67502	5.06
3.69168	5.06
3.70835	5.06
3.72502	5.06
3.74168	5.06
3.75835	5.06
3.77502	5.06
3.79168	5.06
3.80835	5.06
3.82502	5.06
3.84168	5.06
3.85835	5.06
3.87502	5.06
3.89168	5.06
3.90835	5.06
3.92502	5.06
3.94168	5.06
3.95835	5.06
3.97502	5.06
3.99168	5.06

[Status Trace (Linear Velocity)]
Interval(msec)	1000
# of Points	240
Start Time(min)	0.008
End Time(min)	3.992
Intensity Units	
Intensity Multiplier	1
R.Time (min)	Intensity
0.00835	39.01
0.02502	37.22
0.04168	38.40
0.05835	39.82
0.07502	39.94
0.09168	39.07
0.10835	39.00
0.12502	39.02
0.14168	39.02
0.15835	39.01
0.17502	39.01
0.19168	39.01
0.20835	39.01
0.22502	39.01
0.24168	39.01
0.25835	39.01
0.27502	39.01
0.29168	39.01
0.30835	39.01
0.32502	39.01
0.34168	39.01
0.35835	39.01
0.37502	39.01
0.39168	39.01
0.40835	39.01
0.42502	39.01
0.44168	39.01
0.45835	39.01
0.47502	39.01
0.49168	39.01
0.50835	39.01
0.52502	39.01
0.54168	39.01
0.55835	39.01
0.57502	39.01
0.59168	39.01
0.60835	39.01
0.62502	39.01
0.64168	39.01
0.65835	39.01
0.67502	39.01
0.69168	39.01
0.70835	39.01
0.72502	39.01
0.74168	39.01
0.75835	39.01
0.77502	39.01
0.79168	39.01
0.80835	39.01
0.82502	39.01
0.84168	39.01
0.85835	39.01
0.87502	39.01
0.89168	39.01
0.90835	39.01
0.92502	39.01
0.94168	39.01
0.95835	39.01
0.97502	39.01
0.99168	39.01
1.00835	39.01
1.02502	39.01
1.04168	39.01
1.05835	39.01
1.07502	39.01
1.09168	39.01
1.10835	39.01
1.12502	39.01
1.14168	39.01
1.15835	39.01
1.17502	39.01
1.19168	39.01
1.20835	39.01
1.22502	39.01
1.24168	39.01
1.25835	39.01
1.27502	39.01
1.29168	39.01
1.30835	39.01
1.32502	39.01
1.34168	39.01
1.35835	39.01
1.37502	39.01
1.39168	39.01
1.40835	39.01
1.42502	39.01
1.44168	39.01
1.45835	39.01
1.47502	39.01
1.49168	39.01
1.50835	39.01
1.52502	39.01
1.54168	39.01
1.55835	39.01
1.57502	39.01
1.59168	39.01
1.60835	39.01
1.62502	39.00
1.64168	38.98
1.65835	38.96
1.67502	38.93
1.69168	38.89
1.70835	38.86
1.72502	38.82
1.74168	38.79
1.75835	38.76
1.77502	38.73
1.79168	38.70
1.80835	38.66
1.82502	38.63
1.84168	38.60
1.85835	38.57
1.87502	38.54
1.89168	38.51
1.90835	38.48
1.92502	38.45
1.94168	38.42
1.95835	38.39
1.97502	38.36
1.99168	38.33
2.00835	38.30
2.02502	38.27
2.04168	38.24
2.05835	38.21
2.07502	38.18
2.09168	38.15
2.10835	38.12
2.12502	38.09
2.14168	38.06
2.15835	38.03
2.17502	38.00
2.19168	37.97
2.20835	37.94
2.22502	37.91
2.24168	37.88
2.25835	37.85
2.27502	37.83
2.29168	37.79
2.30835	37.76
2.32502	37.73
2.34168	37.71
2.35835	37.68
2.37502	37.66
2.39168	37.65
2.40835	37.66
2.42502	37.66
2.44168	37.66
2.45835	37.66
2.47502	37.65
2.49168	37.65
2.50835	37.65
2.52502	37.64
2.54168	37.65
2.55835	37.65
2.57502	37.65
2.59168	37.65
2.60835	37.65
2.62502	37.64
2.64168	37.64
2.65835	37.64
2.67502	37.64
2.69168	37.64
2.70835	37.64
2.72502	37.64
2.74168	37.64
2.75835	37.64
2.77502	37.64
2.79168	37.64
2.80835	37.64
2.82502	37.64
2.84168	37.64
2.85835	37.64
2.87502	37.64
2.89168	37.64
2.90835	37.64
2.92502	37.63
2.94168	37.63
2.95835	37.63
2.97502	37.63
2.99168	37.63
3.00835	37.63
3.02502	37.63
3.04168	37.63
3.05835	37.63
3.07502	37.63
3.09168	37.63
3.10835	37.63
3.12502	37.62
3.14168	37.62
3.15835	37.62
3.17502	37.62
3.19168	37.62
3.20835	37.62
3.22502	37.62
3.24168	37.62
3.25835	37.62
3.27502	37.62
3.29168	37.62
3.30835	37.62
3.32502	37.62
3.34168	37.62
3.35835	37.62
3.37502	37.62
3.39168	37.62
3.40835	37.62
3.42502	37.62
3.44168	37.62
3.45835	37.62
3.47502	37.63
3.49168	37.62
3.50835	37.62
3.52502	37.62
3.54168	37.62
3.55835	37.63
3.57502	37.62
3.59168	37.62
3.60835	37.62
3.62502	37.62
3.64168	37.62
3.65835	37.62
3.67502	37.62
3.69168	37.62
3.70835	37.62
3.72502	37.62
3.74168	37.62
3.75835	37.62
3.77502	37.62
3.79168	37.62
3.80835	37.62
3.82502	37.62
3.84168	37.62
3.85835	37.62
3.87502	37.62
3.89168	37.62
3.90835	37.62
3.92502	37.62
3.94168	37.62
3.95835	37.62
3.97502	37.62
3.99168	37.62

