[Header]
Application Name	LabSolutions
Version	5.110
Data File Name	C:\Users\User\Desktop\Junior\UIC Prairie Sampling\7.18.23\071823_082.gcd
Output Date	8/29/2023
Output Time	10:40:25 AM

[File Information]
Type	Data File
Generated	8/28/2023 11:20:48 PM
Generated by	System Administrator
Modified	8/28/2023 11:27:23 PM
Modified by	System Administrator

[Sample Information]
Operator Name	System Administrator
Acquired	8/28/2023 11:23:22 PM
Sample Type	0:Unknown
Level	0
Sample Name	082
Sample ID	082
ISTD Amount1	1
ISTD Amount2	1
ISTD Amount3	1
ISTD Amount4	1
ISTD Amount5	1
ISTD Amount6	1
ISTD Amount7	1
ISTD Amount8	1
ISTD Amount9	1
ISTD Amount10	1
ISTD Amount11	1
ISTD Amount12	1
ISTD Amount13	1
ISTD Amount14	1
ISTD Amount15	1
ISTD Amount16	1
ISTD Amount17	1
ISTD Amount18	1
ISTD Amount19	1
ISTD Amount20	1
ISTD Amount21	1
ISTD Amount22	1
ISTD Amount23	1
ISTD Amount24	1
ISTD Amount25	1
ISTD Amount26	1
ISTD Amount27	1
ISTD Amount28	1
ISTD Amount29	1
ISTD Amount30	1
ISTD Amount31	1
ISTD Amount32	1
Sample Amount	1
Dilution Factor	1
Vial#	81
Injection Volume	1
Injection Count	1
Bar Code	

[Original Files]
Data File	C:\Users\User\Desktop\Junior\UIC Prairie Sampling\7.18.23\071823_082.gcd
Method File	C:\LabSolutions\Data\GHG_4min_2022\ghg3_togas_w_acet_4 min_new_int.gcm
Batch File	C:\LabSolutions\Data\BATCH FILES\071823.gcb
Report Format File	c:\LabSolutions\System\DEFAULT.lsr

[File Description]


[Configuration]
Instrument Name	C0B7VH3-Instrument1
Instrument #	1
Line #	1
# of Detectors	3
Detector ID	DET#1	DET#2	DET#3
Detector Name	FID	PTCD	ECD
# of Channels	1	1	1

[Peak Table(Ch1)]
# of Peaks	3
Peak#	R.Time	I.Time	F.Time	Area	Height	A/H	Conc.	Mark	ID#	Name	k'	Plate #	Plate Ht.	Tailing	Resolution	Sep.Factor	Area Ratio	Height Ratio	Conc. %	Norm Conc.
1	1.472	1.435	1.531	11111	5556	2.000	0.000	   	1	CO	0.000	9976	15.036	1.296	0.000	0.000	0	0	0.000	0.000
2	1.564	1.531	1.626	4426	2272	1.949	21.580	 V 	2	CH4	0.062	11616	12.913	1.102	1.567	0.000	0	0	4.140	4.140
3	1.989	1.941	2.700	2592451	1241827	2.088	499.613	   	3	CO2	0.351	17456	8.593	1.307	7.194	5.640	0	0	95.860	95.860

[Peak Table(Ch2)]
# of Peaks	0

[Peak Table(Ch3)]
# of Peaks	5
Peak#	R.Time	I.Time	F.Time	Area	Height	A/H	Conc.	Mark	ID#	Name	k'	Plate #	Plate Ht.	Tailing	Resolution	Sep.Factor	Area Ratio	Height Ratio	Conc. %	Norm Conc.
1	2.455	2.297	2.506	1021	285	3.584	0.000	   			0.000	16473	9.106	0.000	0.000	0.000	0	0	0.000	0.000
2	2.521	2.506	2.557	131	69	1.909	0.000	 V 			0.027	15094	9.937	0.000	0.832	0.000	0	0	0.000	0.000
3	2.623	2.576	2.671	252	81	3.121	0.000	   			0.069	13901	10.791	1.029	1.200	2.556	0	0	0.000	0.000
4	2.891	2.689	3.034	16362	3920	4.174	0.242	   	1	N2O	0.178	12883	11.643	1.887	2.805	2.587	0	0	100.000	100.000
5	3.111	3.038	3.995	26996	1025	26.347	0.000	   	2	SF6	0.267	293	511.472	6.412	0.531	1.504	0	0	0.000	0.000

[Compound Results(Ch1)]
# of IDs	6
ID#	Name	R.Time	Area	Height	Conc.	Curve	3rd	2nd	1st	Constant	Area Ratio	Height Ratio	Conc. %	Norm Conc.
1	CO	1.472	11111	5556	0.000	Linear	0.000000e+00	0.000000e+00	0.000000e+00	0.000000e+00	0	0	0.000	0.000
2	CH4	1.564	4426	2272	21.580	Linear	0.000000e+00	0.000000e+00	2.051179e+002	0.000000e+00	0	0	4.140	4.140
3	CO2	1.989	2592451	1241827	499.613	Linear	0.000000e+00	0.000000e+00	5.188919e+003	0.000000e+00	0	0	95.860	95.860
4	Ethylene	0.000	0	0	0.000	Linear	0.000000e+00	0.000000e+00	0.000000e+00	0.000000e+00	0	0	0.000	0.000
5	Acetylene	0.000	0	0	0.000	Linear	0.000000e+00	0.000000e+00	0.000000e+00	0.000000e+00	0	0	0.000	0.000
6	Ethane	0.000	0	0	0.000	Linear	0.000000e+00	0.000000e+00	0.000000e+00	0.000000e+00	0	0	0.000	0.000

[Compound Results(Ch2)]
# of IDs	5
ID#	Name	R.Time	Area	Height	Conc.	Curve	3rd	2nd	1st	Constant	Area Ratio	Height Ratio	Conc. %	Norm Conc.
1	Hydrogen	0.000	0	0	0.000	Linear	0.000000e+00	0.000000e+00	0.000000e+00	0.000000e+00	0	0	0.000	0.000
2	Oxygen	0.000	0	0	0.000	Linear	0.000000e+00	0.000000e+00	0.000000e+00	0.000000e+00	0	0	0.000	0.000
3	Nitrogen	0.000	0	0	0.000	Linear	0.000000e+00	0.000000e+00	0.000000e+00	0.000000e+00	0	0	0.000	0.000
4	Methane	0.000	0	0	0.000	Linear	0.000000e+00	0.000000e+00	0.000000e+00	0.000000e+00	0	0	0.000	0.000
5	Carbon Monoxide	0.000	0	0	0.000	Linear	0.000000e+00	0.000000e+00	0.000000e+00	0.000000e+00	0	0	0.000	0.000

[Compound Results(Ch3)]
# of IDs	2
ID#	Name	R.Time	Area	Height	Conc.	Curve	3rd	2nd	1st	Constant	Area Ratio	Height Ratio	Conc. %	Norm Conc.
1	N2O	2.891	16362	3920	0.242	Linear	0.000000e+00	0.000000e+00	6.759880e+004	0.000000e+00	0	0	100.000	100.000
2	SF6	3.111	26996	1025	0.000	Linear	0.000000e+00	0.000000e+00	0.000000e+00	0.000000e+00	0	0	0.000	0.000

[Group Results(Ch1)]
# of Groups	0

[Group Results(Ch2)]
# of Groups	0

[Group Results(Ch3)]
# of Groups	0

[Chromatogram (Ch1)]
Interval(msec)	220
# of Points	1091
Start Time(min)	0.002
End Time(min)	3.998
R.Time (min)	Intensity
0.00167	-14
0.00533	-12
0.00900	-9
0.01267	-7
0.01633	-7
0.02000	-5
0.02367	-1
0.02733	4
0.03100	8
0.03467	10
0.03833	10
0.04200	10
0.04567	9
0.04933	9
0.05300	11
0.05667	12
0.06033	12
0.06400	13
0.06767	14
0.07133	12
0.07500	10
0.07867	7
0.08233	6
0.08600	8
0.08967	7
0.09333	6
0.09700	5
0.10067	6
0.10433	8
0.10800	10
0.11167	13
0.11533	17
0.11900	18
0.12267	18
0.12633	15
0.13000	11
0.13367	7
0.13733	6
0.14100	7
0.14467	7
0.14833	6
0.15200	3
0.15567	-1
0.15933	-3
0.16300	-3
0.16667	-2
0.17033	-1
0.17400	1
0.17767	5
0.18133	10
0.18500	11
0.18867	10
0.19233	7
0.19600	5
0.19967	1
0.20333	-4
0.20700	-9
0.21067	-11
0.21433	-8
0.21800	-7
0.22167	-10
0.22533	-13
0.22900	-15
0.23267	-15
0.23633	-10
0.24000	-4
0.24367	0
0.24733	5
0.25100	11
0.25467	17
0.25833	22
0.26200	24
0.26567	22
0.26933	19
0.27300	19
0.27667	20
0.28033	17
0.28400	14
0.28767	15
0.29133	24
0.29500	40
0.29867	55
0.30233	64
0.30600	67
0.30967	64
0.31333	60
0.31700	61
0.32067	66
0.32433	71
0.32800	75
0.33167	75
0.33533	71
0.33900	65
0.34267	62
0.34633	59
0.35000	57
0.35367	55
0.35733	56
0.36100	58
0.36467	62
0.36833	66
0.37200	66
0.37567	63
0.37933	57
0.38300	50
0.38667	44
0.39033	38
0.39400	32
0.39767	31
0.40133	33
0.40500	36
0.40867	37
0.41233	35
0.41600	33
0.41967	32
0.42333	34
0.42700	32
0.43067	25
0.43433	18
0.43800	13
0.44167	11
0.44533	11
0.44900	10
0.45267	13
0.45633	17
0.46000	20
0.46367	22
0.46733	25
0.47100	28
0.47467	33
0.47833	37
0.48200	38
0.48567	37
0.48933	31
0.49300	23
0.49667	16
0.50033	10
0.50400	5
0.50767	3
0.51133	2
0.51500	1
0.51867	1
0.52233	4
0.52600	7
0.52967	9
0.53333	10
0.53700	10
0.54067	10
0.54433	11
0.54800	12
0.55167	15
0.55533	16
0.55900	18
0.56267	21
0.56633	25
0.57000	30
0.57367	34
0.57733	33
0.58100	32
0.58467	31
0.58833	32
0.59200	34
0.59567	35
0.59933	34
0.60300	30
0.60667	24
0.61033	18
0.61400	11
0.61767	6
0.62133	3
0.62500	4
0.62867	7
0.63233	12
0.63600	13
0.63967	15
0.64333	20
0.64700	26
0.65067	31
0.65433	36
0.65800	39
0.66167	39
0.66533	39
0.66900	40
0.67267	38
0.67633	35
0.68000	34
0.68367	31
0.68733	25
0.69100	16
0.69467	8
0.69833	4
0.70200	7
0.70567	15
0.70933	24
0.71300	31
0.71667	36
0.72033	38
0.72400	39
0.72767	41
0.73133	42
0.73500	41
0.73867	37
0.74233	35
0.74600	36
0.74967	36
0.75333	35
0.75700	33
0.76067	31
0.76433	30
0.76800	29
0.77167	31
0.77533	39
0.77900	47
0.78267	52
0.78633	55
0.79000	58
0.79367	59
0.79733	60
0.80100	60
0.80467	54
0.80833	46
0.81200	39
0.81567	35
0.81933	33
0.82300	33
0.82667	36
0.83033	40
0.83400	43
0.83767	44
0.84133	45
0.84500	46
0.84867	47
0.85233	48
0.85600	49
0.85967	47
0.86333	40
0.86700	33
0.87067	31
0.87433	29
0.87800	30
0.88167	34
0.88533	40
0.88900	47
0.89267	50
0.89633	48
0.90000	44
0.90367	41
0.90733	39
0.91100	41
0.91467	45
0.91833	45
0.92200	42
0.92567	40
0.92933	37
0.93300	33
0.93667	33
0.94033	37
0.94400	42
0.94767	48
0.95133	53
0.95500	54
0.95867	53
0.96233	52
0.96600	53
0.96967	51
0.97333	45
0.97700	40
0.98067	39
0.98433	39
0.98800	39
0.99167	41
0.99533	43
0.99900	42
1.00267	39
1.00633	37
1.01000	39
1.01367	45
1.01733	52
1.02100	56
1.02467	55
1.02833	49
1.03200	43
1.03567	37
1.03933	33
1.04300	30
1.04667	29
1.05033	31
1.05400	30
1.05767	29
1.06133	28
1.06500	28
1.06867	27
1.07233	29
1.07600	35
1.07967	41
1.08333	47
1.08700	52
1.09067	53
1.09433	50
1.09800	43
1.10167	38
1.10533	35
1.10900	33
1.11267	29
1.11633	24
1.12000	21
1.12367	22
1.12733	28
1.13100	37
1.13467	45
1.13833	51
1.14200	55
1.14567	58
1.14933	59
1.15300	59
1.15667	56
1.16033	47
1.16400	38
1.16767	30
1.17133	28
1.17500	30
1.17867	35
1.18233	39
1.18600	41
1.18967	40
1.19333	37
1.19700	34
1.20067	32
1.20433	37
1.20800	46
1.21167	52
1.21533	56
1.21900	54
1.22267	48
1.22633	40
1.23000	38
1.23367	37
1.23733	35
1.24100	34
1.24467	32
1.24833	31
1.25200	34
1.25567	40
1.25933	46
1.26300	52
1.26667	55
1.27033	55
1.27400	52
1.27767	48
1.28133	45
1.28500	43
1.28867	42
1.29233	43
1.29600	40
1.29967	36
1.30333	34
1.30700	32
1.31067	31
1.31433	33
1.31800	36
1.32167	38
1.32533	39
1.32900	41
1.33267	43
1.33633	44
1.34000	42
1.34367	40
1.34733	38
1.35100	37
1.35467	37
1.35833	35
1.36200	29
1.36567	24
1.36933	22
1.37300	21
1.37667	16
1.38033	10
1.38400	6
1.38767	8
1.39133	18
1.39500	29
1.39867	37
1.40233	44
1.40600	48
1.40967	48
1.41333	46
1.41700	42
1.42067	36
1.42433	33
1.42800	31
1.43167	30
1.43533	37
1.43900	54
1.44267	94
1.44633	290
1.45000	872
1.45367	1849
1.45733	2985
1.46100	4038
1.46467	4873
1.46833	5415
1.47200	5594
1.47567	5368
1.47933	4778
1.48300	3964
1.48667	3100
1.49033	2321
1.49400	1690
1.49767	1210
1.50133	858
1.50500	610
1.50867	439
1.51233	323
1.51600	243
1.51967	188
1.52333	149
1.52700	122
1.53067	113
1.53433	138
1.53800	246
1.54167	496
1.54533	882
1.54900	1325
1.55267	1733
1.55633	2053
1.56000	2255
1.56367	2312
1.56733	2198
1.57100	1927
1.57467	1562
1.57833	1184
1.58200	851
1.58567	588
1.58933	396
1.59300	265
1.59667	180
1.60033	125
1.60400	92
1.60767	73
1.61133	64
1.61500	59
1.61867	54
1.62233	48
1.62600	42
1.62967	36
1.63333	32
1.63700	31
1.64067	30
1.64433	27
1.64800	26
1.65167	22
1.65533	19
1.65900	17
1.66267	15
1.66633	14
1.67000	13
1.67367	12
1.67733	13
1.68100	14
1.68467	13
1.68833	12
1.69200	10
1.69567	9
1.69933	9
1.70300	10
1.70667	11
1.71033	12
1.71400	13
1.71767	11
1.72133	8
1.72500	5
1.72867	6
1.73233	8
1.73600	7
1.73967	8
1.74333	8
1.74700	11
1.75067	14
1.75433	18
1.75800	19
1.76167	20
1.76533	22
1.76900	26
1.77267	28
1.77633	29
1.78000	29
1.78367	29
1.78733	25
1.79100	20
1.79467	14
1.79833	12
1.80200	11
1.80567	10
1.80933	9
1.81300	9
1.81667	10
1.82033	9
1.82400	9
1.82767	10
1.83133	13
1.83500	16
1.83867	17
1.84233	19
1.84600	19
1.84967	19
1.85333	20
1.85700	25
1.86067	31
1.86433	34
1.86800	33
1.87167	29
1.87533	26
1.87900	28
1.88267	30
1.88633	34
1.89000	39
1.89367	44
1.89733	45
1.90100	41
1.90467	39
1.90833	40
1.91200	40
1.91567	38
1.91933	36
1.92300	34
1.92667	33
1.93033	33
1.93400	31
1.93767	30
1.94133	32
1.94500	49
1.94867	186
1.95233	1076
1.95600	5540
1.95967	22297
1.96333	69976
1.96700	173451
1.97067	346367
1.97433	573949
1.97800	816665
1.98167	1029850
1.98533	1178528
1.98900	1241881
1.99267	1214960
1.99633	1108956
2.00000	948427
2.00367	764539
2.00733	585806
2.01100	431085
2.01467	308092
2.01833	216202
2.02200	150502
2.02567	104911
2.02933	73867
2.03300	52939
2.03667	38867
2.04033	29365
2.04400	22883
2.04767	18388
2.05133	15208
2.05500	12906
2.05867	11193
2.06233	9885
2.06600	8860
2.06967	8039
2.07333	7363
2.07700	6796
2.08067	6314
2.08433	5895
2.08800	5525
2.09167	5196
2.09533	4905
2.09900	4651
2.10267	4425
2.10633	4219
2.11000	4033
2.11367	3860
2.11733	3700
2.12100	3551
2.12467	3410
2.12833	3278
2.13200	3155
2.13567	3041
2.13933	2936
2.14300	2840
2.14667	2750
2.15033	2664
2.15400	2583
2.15767	2506
2.16133	2430
2.16500	2356
2.16867	2285
2.17233	2219
2.17600	2157
2.17967	2100
2.18333	2051
2.18700	2008
2.19067	1963
2.19433	1918
2.19800	1872
2.20167	1826
2.20533	1781
2.20900	1739
2.21267	1697
2.21633	1658
2.22000	1621
2.22367	1586
2.22733	1553
2.23100	1522
2.23467	1496
2.23833	1472
2.24200	1446
2.24567	1417
2.24933	1387
2.25300	1359
2.25667	1333
2.26033	1307
2.26400	1282
2.26767	1257
2.27133	1234
2.27500	1213
2.27867	1192
2.28233	1170
2.28600	1149
2.28967	1128
2.29333	1108
2.29700	1091
2.30067	1077
2.30433	1064
2.30800	1052
2.31167	1037
2.31533	1018
2.31900	1001
2.32267	989
2.32633	978
2.33000	968
2.33367	958
2.33733	949
2.34100	940
2.34467	931
2.34833	921
2.35200	909
2.35567	893
2.35933	874
2.36300	857
2.36667	842
2.37033	831
2.37400	825
2.37767	821
2.38133	816
2.38500	807
2.38867	799
2.39233	791
2.39600	784
2.39967	774
2.40333	762
2.40700	752
2.41067	746
2.41433	743
2.41800	742
2.42167	738
2.42533	730
2.42900	721
2.43267	711
2.43633	699
2.44000	689
2.44367	681
2.44733	675
2.45100	670
2.45467	667
2.45833	665
2.46200	661
2.46567	657
2.46933	652
2.47300	645
2.47667	635
2.48033	626
2.48400	620
2.48767	614
2.49133	607
2.49500	599
2.49867	591
2.50233	586
2.50600	586
2.50967	586
2.51333	585
2.51700	582
2.52067	579
2.52433	573
2.52800	567
2.53167	562
2.53533	556
2.53900	552
2.54267	546
2.54633	541
2.55000	538
2.55367	535
2.55733	532
2.56100	530
2.56467	525
2.56833	519
2.57200	512
2.57567	506
2.57933	503
2.58300	501
2.58667	496
2.59033	488
2.59400	480
2.59767	471
2.60133	462
2.60500	458
2.60867	457
2.61233	457
2.61600	456
2.61967	455
2.62333	454
2.62700	452
2.63067	454
2.63433	456
2.63800	459
2.64167	461
2.64533	458
2.64900	453
2.65267	450
2.65633	446
2.66000	441
2.66367	435
2.66733	429
2.67100	425
2.67467	423
2.67833	421
2.68200	417
2.68567	412
2.68933	406
2.69300	401
2.69667	394
2.70033	386
2.70400	381
2.70767	381
2.71133	383
2.71500	387
2.71867	393
2.72233	395
2.72600	394
2.72967	391
2.73333	388
2.73700	390
2.74067	391
2.74433	389
2.74800	385
2.75167	380
2.75533	379
2.75900	381
2.76267	380
2.76633	372
2.77000	362
2.77367	355
2.77733	351
2.78100	346
2.78467	342
2.78833	341
2.79200	344
2.79567	347
2.79933	347
2.80300	348
2.80667	354
2.81033	358
2.81400	357
2.81767	352
2.82133	346
2.82500	342
2.82867	337
2.83233	333
2.83600	330
2.83967	329
2.84333	327
2.84700	326
2.85067	325
2.85433	324
2.85800	322
2.86167	321
2.86533	320
2.86900	318
2.87267	316
2.87633	313
2.88000	313
2.88367	316
2.88733	318
2.89100	318
2.89467	319
2.89833	319
2.90200	315
2.90567	307
2.90933	302
2.91300	298
2.91667	295
2.92033	291
2.92400	288
2.92767	288
2.93133	291
2.93500	294
2.93867	297
2.94233	302
2.94600	306
2.94967	305
2.95333	301
2.95700	293
2.96067	286
2.96433	283
2.96800	281
2.97167	281
2.97533	285
2.97900	289
2.98267	293
2.98633	295
2.99000	291
2.99367	285
2.99733	278
3.00100	273
3.00467	270
3.00833	269
3.01200	268
3.01567	268
3.01933	267
3.02300	267
3.02667	265
3.03033	263
3.03400	260
3.03767	256
3.04133	253
3.04500	248
3.04867	243
3.05233	241
3.05600	241
3.05967	239
3.06333	240
3.06700	242
3.07067	243
3.07433	242
3.07800	239
3.08167	237
3.08533	233
3.08900	229
3.09267	223
3.09633	217
3.10000	212
3.10367	209
3.10733	210
3.11100	213
3.11467	219
3.11833	227
3.12200	231
3.12567	232
3.12933	232
3.13300	233
3.13667	231
3.14033	228
3.14400	224
3.14767	221
3.15133	221
3.15500	223
3.15867	225
3.16233	228
3.16600	229
3.16967	226
3.17333	220
3.17700	213
3.18067	207
3.18433	199
3.18800	194
3.19167	191
3.19533	189
3.19900	188
3.20267	186
3.20633	181
3.21000	178
3.21367	178
3.21733	179
3.22100	178
3.22467	181
3.22833	187
3.23200	190
3.23567	190
3.23933	190
3.24300	188
3.24667	186
3.25033	183
3.25400	178
3.25767	174
3.26133	173
3.26500	175
3.26867	175
3.27233	175
3.27600	173
3.27967	167
3.28333	161
3.28700	158
3.29067	159
3.29433	161
3.29800	168
3.30167	177
3.30533	188
3.30900	198
3.31267	205
3.31633	208
3.32000	206
3.32367	200
3.32733	195
3.33100	188
3.33467	183
3.33833	180
3.34200	179
3.34567	177
3.34933	174
3.35300	175
3.35667	177
3.36033	179
3.36400	180
3.36767	181
3.37133	180
3.37500	180
3.37867	177
3.38233	175
3.38600	172
3.38967	168
3.39333	164
3.39700	162
3.40067	160
3.40433	158
3.40800	157
3.41167	160
3.41533	163
3.41900	169
3.42267	174
3.42633	174
3.43000	167
3.43367	159
3.43733	154
3.44100	152
3.44467	152
3.44833	150
3.45200	147
3.45567	148
3.45933	152
3.46300	157
3.46667	160
3.47033	158
3.47400	156
3.47767	153
3.48133	151
3.48500	149
3.48867	150
3.49233	150
3.49600	150
3.49967	148
3.50333	143
3.50700	141
3.51067	140
3.51433	140
3.51800	139
3.52167	139
3.52533	141
3.52900	142
3.53267	143
3.53633	141
3.54000	133
3.54367	126
3.54733	126
3.55100	133
3.55467	142
3.55833	150
3.56200	155
3.56567	158
3.56933	159
3.57300	158
3.57667	155
3.58033	150
3.58400	144
3.58767	139
3.59133	136
3.59500	129
3.59867	122
3.60233	120
3.60600	125
3.60967	133
3.61333	140
3.61700	143
3.62067	140
3.62433	134
3.62800	127
3.63167	125
3.63533	125
3.63900	128
3.64267	133
3.64633	139
3.65000	144
3.65367	148
3.65733	150
3.66100	149
3.66467	146
3.66833	144
3.67200	139
3.67567	134
3.67933	132
3.68300	132
3.68667	131
3.69033	128
3.69400	124
3.69767	121
3.70133	122
3.70500	124
3.70867	124
3.71233	124
3.71600	126
3.71967	129
3.72333	131
3.72700	133
3.73067	134
3.73433	135
3.73800	133
3.74167	130
3.74533	127
3.74900	125
3.75267	127
3.75633	131
3.76000	133
3.76367	132
3.76733	131
3.77100	131
3.77467	132
3.77833	131
3.78200	126
3.78567	123
3.78933	125
3.79300	127
3.79667	127
3.80033	124
3.80400	118
3.80767	112
3.81133	110
3.81500	111
3.81867	113
3.82233	117
3.82600	121
3.82967	122
3.83333	119
3.83700	114
3.84067	108
3.84433	103
3.84800	101
3.85167	101
3.85533	102
3.85900	101
3.86267	102
3.86633	102
3.87000	102
3.87367	101
3.87733	99
3.88100	96
3.88467	92
3.88833	92
3.89200	94
3.89567	97
3.89933	101
3.90300	106
3.90667	112
3.91033	116
3.91400	116
3.91767	114
3.92133	114
3.92500	117
3.92867	118
3.93233	113
3.93600	105
3.93967	97
3.94333	93
3.94700	90
3.95067	88
3.95433	86
3.95800	86
3.96167	86
3.96533	87
3.96900	91
3.97267	96
3.97633	98
3.98000	98
3.98367	97
3.98733	96
3.99100	96
3.99467	93
3.99833	89

[Chromatogram (Ch2)]
Interval(msec)	220
# of Points	1091
Start Time(min)	0.002
End Time(min)	3.998
R.Time (min)	Intensity
0.00167	-0
0.00533	-0
0.00900	-0
0.01267	-0
0.01633	-1
0.02000	-1
0.02367	-1
0.02733	-1
0.03100	-1
0.03467	-1
0.03833	-1
0.04200	-1
0.04567	-1
0.04933	-1
0.05300	-1
0.05667	-1
0.06033	-1
0.06400	-1
0.06767	-1
0.07133	-1
0.07500	-1
0.07867	-1
0.08233	-1
0.08600	-1
0.08967	-1
0.09333	-1
0.09700	-1
0.10067	-0
0.10433	0
0.10800	0
0.11167	0
0.11533	1
0.11900	1
0.12267	1
0.12633	1
0.13000	1
0.13367	1
0.13733	1
0.14100	1
0.14467	2
0.14833	2
0.15200	2
0.15567	1
0.15933	1
0.16300	1
0.16667	1
0.17033	1
0.17400	1
0.17767	0
0.18133	0
0.18500	0
0.18867	0
0.19233	0
0.19600	0
0.19967	-0
0.20333	-0
0.20700	-0
0.21067	-0
0.21433	-0
0.21800	-0
0.22167	-0
0.22533	-1
0.22900	-1
0.23267	-1
0.23633	-1
0.24000	-1
0.24367	-1
0.24733	-1
0.25100	-1
0.25467	-1
0.25833	-1
0.26200	-1
0.26567	-2
0.26933	-2
0.27300	-2
0.27667	-2
0.28033	-2
0.28400	-2
0.28767	-2
0.29133	-2
0.29500	-1
0.29867	-1
0.30233	-1
0.30600	-2
0.30967	-2
0.31333	-2
0.31700	-2
0.32067	-2
0.32433	-2
0.32800	-2
0.33167	-2
0.33533	-2
0.33900	-2
0.34267	-2
0.34633	-2
0.35000	-2
0.35367	-2
0.35733	-2
0.36100	-2
0.36467	-2
0.36833	-2
0.37200	-2
0.37567	-1
0.37933	-1
0.38300	-1
0.38667	-1
0.39033	-1
0.39400	-1
0.39767	-1
0.40133	-2
0.40500	-2
0.40867	-2
0.41233	-2
0.41600	-2
0.41967	-2
0.42333	-2
0.42700	-2
0.43067	-2
0.43433	-2
0.43800	-2
0.44167	-2
0.44533	-1
0.44900	-1
0.45267	-1
0.45633	-1
0.46000	-1
0.46367	-1
0.46733	-2
0.47100	-2
0.47467	-2
0.47833	-2
0.48200	-2
0.48567	-2
0.48933	-2
0.49300	-2
0.49667	-2
0.50033	-2
0.50400	-2
0.50767	-2
0.51133	-2
0.51500	-2
0.51867	-2
0.52233	-2
0.52600	-2
0.52967	-2
0.53333	-2
0.53700	-2
0.54067	-2
0.54433	-2
0.54800	-2
0.55167	-2
0.55533	-2
0.55900	-2
0.56267	-2
0.56633	-2
0.57000	-2
0.57367	-2
0.57733	-2
0.58100	-2
0.58467	-2
0.58833	-2
0.59200	-2
0.59567	-2
0.59933	-2
0.60300	-2
0.60667	-2
0.61033	-2
0.61400	-2
0.61767	-2
0.62133	-2
0.62500	-2
0.62867	-2
0.63233	-2
0.63600	-2
0.63967	-3
0.64333	-3
0.64700	-3
0.65067	-3
0.65433	-2
0.65800	-2
0.66167	-2
0.66533	-2
0.66900	-2
0.67267	-2
0.67633	-2
0.68000	-2
0.68367	-2
0.68733	-2
0.69100	-2
0.69467	-2
0.69833	-2
0.70200	-2
0.70567	-1
0.70933	-1
0.71300	-1
0.71667	-2
0.72033	-2
0.72400	-2
0.72767	-2
0.73133	-2
0.73500	-2
0.73867	-2
0.74233	-2
0.74600	-2
0.74967	-2
0.75333	-2
0.75700	-2
0.76067	-2
0.76433	-2
0.76800	-2
0.77167	-2
0.77533	-2
0.77900	-2
0.78267	-2
0.78633	-2
0.79000	-2
0.79367	-2
0.79733	-2
0.80100	-2
0.80467	-2
0.80833	-2
0.81200	-2
0.81567	-2
0.81933	-2
0.82300	-2
0.82667	-2
0.83033	-2
0.83400	-2
0.83767	-2
0.84133	-2
0.84500	-2
0.84867	-2
0.85233	-2
0.85600	-2
0.85967	-2
0.86333	-3
0.86700	-3
0.87067	-3
0.87433	-3
0.87800	-2
0.88167	-2
0.88533	-2
0.88900	-2
0.89267	-2
0.89633	-2
0.90000	-3
0.90367	-3
0.90733	-3
0.91100	-3
0.91467	-3
0.91833	-3
0.92200	-3
0.92567	-3
0.92933	-3
0.93300	-3
0.93667	-3
0.94033	-2
0.94400	-2
0.94767	-2
0.95133	-2
0.95500	-2
0.95867	-2
0.96233	-2
0.96600	-2
0.96967	-2
0.97333	-2
0.97700	-2
0.98067	-2
0.98433	-2
0.98800	-2
0.99167	-2
0.99533	-2
0.99900	-2
1.00267	-2
1.00633	-2
1.01000	-3
1.01367	-3
1.01733	-3
1.02100	-3
1.02467	-3
1.02833	-3
1.03200	-3
1.03567	-3
1.03933	-2
1.04300	-2
1.04667	-2
1.05033	-2
1.05400	-2
1.05767	-3
1.06133	-3
1.06500	-2
1.06867	-2
1.07233	-3
1.07600	-3
1.07967	-3
1.08333	-3
1.08700	-3
1.09067	-3
1.09433	-3
1.09800	-2
1.10167	-2
1.10533	-2
1.10900	-2
1.11267	-2
1.11633	-2
1.12000	-2
1.12367	-2
1.12733	-2
1.13100	-2
1.13467	-2
1.13833	-2
1.14200	-2
1.14567	-2
1.14933	-2
1.15300	-2
1.15667	-3
1.16033	-3
1.16400	-3
1.16767	-3
1.17133	-3
1.17500	-3
1.17867	-2
1.18233	-2
1.18600	-2
1.18967	-2
1.19333	-2
1.19700	-2
1.20067	-2
1.20433	-2
1.20800	-2
1.21167	-2
1.21533	-2
1.21900	-3
1.22267	-3
1.22633	-3
1.23000	-3
1.23367	-3
1.23733	-3
1.24100	-3
1.24467	-3
1.24833	-3
1.25200	-3
1.25567	-3
1.25933	-3
1.26300	-3
1.26667	-3
1.27033	-3
1.27400	-3
1.27767	-3
1.28133	-3
1.28500	-3
1.28867	-3
1.29233	-3
1.29600	-3
1.29967	-3
1.30333	-3
1.30700	-3
1.31067	-3
1.31433	-4
1.31800	-4
1.32167	-4
1.32533	-4
1.32900	-4
1.33267	-4
1.33633	-4
1.34000	-4
1.34367	-4
1.34733	-4
1.35100	-4
1.35467	-4
1.35833	-4
1.36200	-4
1.36567	-3
1.36933	-3
1.37300	-3
1.37667	-4
1.38033	-4
1.38400	-3
1.38767	-3
1.39133	-3
1.39500	-4
1.39867	-4
1.40233	-4
1.40600	-4
1.40967	-4
1.41333	-4
1.41700	-4
1.42067	-4
1.42433	-4
1.42800	-4
1.43167	-4
1.43533	-4
1.43900	-4
1.44267	-4
1.44633	-4
1.45000	-4
1.45367	-4
1.45733	-4
1.46100	-4
1.46467	-4
1.46833	-4
1.47200	-4
1.47567	-4
1.47933	-4
1.48300	-4
1.48667	-4
1.49033	-4
1.49400	-4
1.49767	-3
1.50133	-3
1.50500	-3
1.50867	-3
1.51233	-3
1.51600	-3
1.51967	-3
1.52333	-3
1.52700	-3
1.53067	-3
1.53433	-3
1.53800	-3
1.54167	-3
1.54533	-3
1.54900	-3
1.55267	-3
1.55633	-3
1.56000	-3
1.56367	-3
1.56733	-3
1.57100	-3
1.57467	-4
1.57833	-4
1.58200	-4
1.58567	-4
1.58933	-4
1.59300	-4
1.59667	-4
1.60033	-5
1.60400	-6
1.60767	-7
1.61133	-9
1.61500	-11
1.61867	-13
1.62233	-16
1.62600	-19
1.62967	-22
1.63333	-25
1.63700	-28
1.64067	-31
1.64433	-35
1.64800	-38
1.65167	-41
1.65533	-44
1.65900	-48
1.66267	-51
1.66633	-55
1.67000	-59
1.67367	-63
1.67733	-68
1.68100	-73
1.68467	-77
1.68833	-81
1.69200	-84
1.69567	-87
1.69933	-90
1.70300	-91
1.70667	-93
1.71033	-94
1.71400	-95
1.71767	-95
1.72133	-96
1.72500	-96
1.72867	-97
1.73233	-97
1.73600	-97
1.73967	-98
1.74333	-98
1.74700	-98
1.75067	-98
1.75433	-99
1.75800	-99
1.76167	-98
1.76533	-98
1.76900	-97
1.77267	-97
1.77633	-97
1.78000	-97
1.78367	-97
1.78733	-97
1.79100	-98
1.79467	-99
1.79833	-100
1.80200	-101
1.80567	-101
1.80933	-102
1.81300	-102
1.81667	-102
1.82033	-102
1.82400	-102
1.82767	-102
1.83133	-101
1.83500	-101
1.83867	-100
1.84233	-100
1.84600	-100
1.84967	-101
1.85333	-101
1.85700	-101
1.86067	-101
1.86433	-101
1.86800	-101
1.87167	-101
1.87533	-101
1.87900	-101
1.88267	-101
1.88633	-100
1.89000	-100
1.89367	-99
1.89733	-99
1.90100	-99
1.90467	-98
1.90833	-98
1.91200	-98
1.91567	-98
1.91933	-98
1.92300	-99
1.92667	-99
1.93033	-99
1.93400	-99
1.93767	-99
1.94133	-98
1.94500	-97
1.94867	-97
1.95233	-96
1.95600	-95
1.95967	-95
1.96333	-95
1.96700	-94
1.97067	-94
1.97433	-94
1.97800	-94
1.98167	-94
1.98533	-94
1.98900	-94
1.99267	-94
1.99633	-94
2.00000	-93
2.00367	-93
2.00733	-92
2.01100	-92
2.01467	-91
2.01833	-90
2.02200	-90
2.02567	-90
2.02933	-89
2.03300	-89
2.03667	-89
2.04033	-89
2.04400	-89
2.04767	-89
2.05133	-89
2.05500	-88
2.05867	-88
2.06233	-88
2.06600	-88
2.06967	-88
2.07333	-88
2.07700	-88
2.08067	-88
2.08433	-88
2.08800	-87
2.09167	-86
2.09533	-85
2.09900	-84
2.10267	-84
2.10633	-83
2.11000	-83
2.11367	-82
2.11733	-82
2.12100	-82
2.12467	-82
2.12833	-82
2.13200	-82
2.13567	-82
2.13933	-81
2.14300	-81
2.14667	-80
2.15033	-80
2.15400	-80
2.15767	-80
2.16133	-80
2.16500	-80
2.16867	-80
2.17233	-80
2.17600	-80
2.17967	-80
2.18333	-79
2.18700	-79
2.19067	-79
2.19433	-78
2.19800	-78
2.20167	-77
2.20533	-77
2.20900	-77
2.21267	-76
2.21633	-76
2.22000	-76
2.22367	-77
2.22733	-77
2.23100	-76
2.23467	-76
2.23833	-76
2.24200	-75
2.24567	-75
2.24933	-75
2.25300	-74
2.25667	-74
2.26033	-73
2.26400	-72
2.26767	-71
2.27133	-71
2.27500	-71
2.27867	-70
2.28233	-70
2.28600	-70
2.28967	-70
2.29333	-70
2.29700	-70
2.30067	-70
2.30433	-70
2.30800	-70
2.31167	-70
2.31533	-70
2.31900	-70
2.32267	-70
2.32633	-70
2.33000	-69
2.33367	-69
2.33733	-69
2.34100	-68
2.34467	-68
2.34833	-67
2.35200	-66
2.35567	-64
2.35933	-62
2.36300	-60
2.36667	-58
2.37033	-55
2.37400	-52
2.37767	-49
2.38133	-46
2.38500	-42
2.38867	-38
2.39233	-34
2.39600	-30
2.39967	-26
2.40333	-22
2.40700	-18
2.41067	-15
2.41433	-13
2.41800	-10
2.42167	-8
2.42533	-6
2.42900	-4
2.43267	-2
2.43633	-0
2.44000	1
2.44367	3
2.44733	4
2.45100	6
2.45467	8
2.45833	9
2.46200	10
2.46567	11
2.46933	11
2.47300	11
2.47667	11
2.48033	11
2.48400	12
2.48767	12
2.49133	13
2.49500	13
2.49867	13
2.50233	14
2.50600	14
2.50967	15
2.51333	15
2.51700	16
2.52067	16
2.52433	17
2.52800	17
2.53167	17
2.53533	17
2.53900	16
2.54267	16
2.54633	15
2.55000	14
2.55367	14
2.55733	13
2.56100	12
2.56467	12
2.56833	11
2.57200	11
2.57567	11
2.57933	12
2.58300	12
2.58667	13
2.59033	13
2.59400	13
2.59767	13
2.60133	13
2.60500	14
2.60867	14
2.61233	14
2.61600	14
2.61967	14
2.62333	14
2.62700	15
2.63067	15
2.63433	15
2.63800	15
2.64167	16
2.64533	16
2.64900	17
2.65267	18
2.65633	18
2.66000	19
2.66367	19
2.66733	20
2.67100	20
2.67467	20
2.67833	21
2.68200	21
2.68567	21
2.68933	22
2.69300	22
2.69667	22
2.70033	22
2.70400	21
2.70767	22
2.71133	22
2.71500	22
2.71867	23
2.72233	24
2.72600	24
2.72967	25
2.73333	26
2.73700	26
2.74067	27
2.74433	27
2.74800	27
2.75167	27
2.75533	27
2.75900	26
2.76267	26
2.76633	25
2.77000	25
2.77367	25
2.77733	25
2.78100	25
2.78467	25
2.78833	25
2.79200	26
2.79567	26
2.79933	26
2.80300	26
2.80667	26
2.81033	26
2.81400	27
2.81767	27
2.82133	27
2.82500	28
2.82867	28
2.83233	28
2.83600	28
2.83967	28
2.84333	28
2.84700	28
2.85067	28
2.85433	27
2.85800	26
2.86167	24
2.86533	20
2.86900	13
2.87267	2
2.87633	-12
2.88000	-31
2.88367	-56
2.88733	-86
2.89100	-121
2.89467	-161
2.89833	-207
2.90200	-257
2.90567	-311
2.90933	-369
2.91300	-429
2.91667	-492
2.92033	-557
2.92400	-622
2.92767	-686
2.93133	-750
2.93500	-811
2.93867	-868
2.94233	-923
2.94600	-978
2.94967	-1033
2.95333	-1082
2.95700	-1114
2.96067	-1123
2.96433	-1107
2.96800	-1068
2.97167	-1010
2.97533	-939
2.97900	-860
2.98267	-778
2.98633	-697
2.99000	-619
2.99367	-545
2.99733	-477
3.00100	-415
3.00467	-359
3.00833	-310
3.01200	-266
3.01567	-227
3.01933	-193
3.02300	-163
3.02667	-138
3.03033	-116
3.03400	-97
3.03767	-80
3.04133	-66
3.04500	-54
3.04867	-44
3.05233	-35
3.05600	-28
3.05967	-21
3.06333	-16
3.06700	-11
3.07067	-8
3.07433	-4
3.07800	-1
3.08167	1
3.08533	3
3.08900	5
3.09267	7
3.09633	8
3.10000	10
3.10367	11
3.10733	12
3.11100	12
3.11467	13
3.11833	14
3.12200	14
3.12567	15
3.12933	15
3.13300	15
3.13667	16
3.14033	16
3.14400	17
3.14767	17
3.15133	17
3.15500	18
3.15867	18
3.16233	18
3.16600	19
3.16967	19
3.17333	19
3.17700	20
3.18067	20
3.18433	21
3.18800	21
3.19167	21
3.19533	22
3.19900	22
3.20267	22
3.20633	22
3.21000	22
3.21367	23
3.21733	23
3.22100	23
3.22467	23
3.22833	23
3.23200	24
3.23567	24
3.23933	24
3.24300	24
3.24667	24
3.25033	24
3.25400	25
3.25767	25
3.26133	25
3.26500	25
3.26867	25
3.27233	25
3.27600	26
3.27967	26
3.28333	26
3.28700	26
3.29067	26
3.29433	26
3.29800	26
3.30167	26
3.30533	26
3.30900	26
3.31267	26
3.31633	26
3.32000	26
3.32367	26
3.32733	26
3.33100	27
3.33467	27
3.33833	27
3.34200	27
3.34567	28
3.34933	28
3.35300	28
3.35667	28
3.36033	29
3.36400	29
3.36767	29
3.37133	30
3.37500	30
3.37867	30
3.38233	30
3.38600	30
3.38967	29
3.39333	29
3.39700	29
3.40067	29
3.40433	29
3.40800	30
3.41167	30
3.41533	30
3.41900	30
3.42267	30
3.42633	30
3.43000	30
3.43367	30
3.43733	30
3.44100	30
3.44467	30
3.44833	30
3.45200	30
3.45567	30
3.45933	30
3.46300	30
3.46667	30
3.47033	30
3.47400	30
3.47767	30
3.48133	29
3.48500	29
3.48867	29
3.49233	29
3.49600	29
3.49967	29
3.50333	29
3.50700	29
3.51067	29
3.51433	29
3.51800	29
3.52167	29
3.52533	29
3.52900	29
3.53267	29
3.53633	28
3.54000	28
3.54367	28
3.54733	28
3.55100	28
3.55467	27
3.55833	27
3.56200	27
3.56567	27
3.56933	27
3.57300	27
3.57667	27
3.58033	27
3.58400	27
3.58767	27
3.59133	28
3.59500	28
3.59867	28
3.60233	28
3.60600	28
3.60967	28
3.61333	28
3.61700	28
3.62067	28
3.62433	28
3.62800	28
3.63167	27
3.63533	27
3.63900	28
3.64267	28
3.64633	28
3.65000	28
3.65367	28
3.65733	28
3.66100	28
3.66467	28
3.66833	28
3.67200	28
3.67567	29
3.67933	29
3.68300	29
3.68667	29
3.69033	29
3.69400	28
3.69767	28
3.70133	28
3.70500	28
3.70867	28
3.71233	28
3.71600	29
3.71967	29
3.72333	28
3.72700	28
3.73067	28
3.73433	28
3.73800	28
3.74167	28
3.74533	28
3.74900	29
3.75267	29
3.75633	29
3.76000	29
3.76367	29
3.76733	29
3.77100	29
3.77467	29
3.77833	29
3.78200	29
3.78567	29
3.78933	29
3.79300	29
3.79667	29
3.80033	29
3.80400	29
3.80767	29
3.81133	29
3.81500	29
3.81867	29
3.82233	29
3.82600	29
3.82967	29
3.83333	29
3.83700	29
3.84067	29
3.84433	29
3.84800	29
3.85167	28
3.85533	28
3.85900	28
3.86267	28
3.86633	28
3.87000	28
3.87367	28
3.87733	28
3.88100	28
3.88467	28
3.88833	28
3.89200	29
3.89567	29
3.89933	29
3.90300	29
3.90667	29
3.91033	29
3.91400	29
3.91767	29
3.92133	29
3.92500	29
3.92867	29
3.93233	29
3.93600	29
3.93967	29
3.94333	29
3.94700	29
3.95067	29
3.95433	29
3.95800	29
3.96167	29
3.96533	29
3.96900	28
3.97267	28
3.97633	28
3.98000	29
3.98367	29
3.98733	29
3.99100	29
3.99467	29
3.99833	29

[Chromatogram (Ch3)]
Interval(msec)	220
# of Points	1091
Start Time(min)	0.002
End Time(min)	3.998
R.Time (min)	Intensity
0.00167	1
0.00533	3
0.00900	6
0.01267	8
0.01633	6
0.02000	4
0.02367	4
0.02733	3
0.03100	1
0.03467	1
0.03833	4
0.04200	6
0.04567	6
0.04933	4
0.05300	3
0.05667	5
0.06033	9
0.06400	10
0.06767	10
0.07133	8
0.07500	6
0.07867	5
0.08233	2
0.08600	1
0.08967	1
0.09333	3
0.09700	6
0.10067	8
0.10433	8
0.10800	8
0.11167	9
0.11533	12
0.11900	13
0.12267	12
0.12633	11
0.13000	9
0.13367	7
0.13733	4
0.14100	3
0.14467	-0
0.14833	-2
0.15200	-1
0.15567	1
0.15933	2
0.16300	2
0.16667	3
0.17033	5
0.17400	5
0.17767	7
0.18133	7
0.18500	7
0.18867	6
0.19233	7
0.19600	8
0.19967	5
0.20333	4
0.20700	5
0.21067	6
0.21433	5
0.21800	3
0.22167	4
0.22533	7
0.22900	8
0.23267	8
0.23633	8
0.24000	7
0.24367	7
0.24733	7
0.25100	7
0.25467	9
0.25833	11
0.26200	9
0.26567	5
0.26933	3
0.27300	4
0.27667	6
0.28033	6
0.28400	8
0.28767	9
0.29133	10
0.29500	10
0.29867	10
0.30233	10
0.30600	9
0.30967	8
0.31333	9
0.31700	10
0.32067	9
0.32433	6
0.32800	4
0.33167	5
0.33533	5
0.33900	6
0.34267	9
0.34633	7
0.35000	7
0.35367	5
0.35733	5
0.36100	5
0.36467	4
0.36833	4
0.37200	8
0.37567	10
0.37933	12
0.38300	11
0.38667	9
0.39033	6
0.39400	6
0.39767	9
0.40133	8
0.40500	6
0.40867	5
0.41233	6
0.41600	6
0.41967	6
0.42333	5
0.42700	6
0.43067	8
0.43433	10
0.43800	11
0.44167	10
0.44533	6
0.44900	3
0.45267	2
0.45633	2
0.46000	3
0.46367	4
0.46733	3
0.47100	0
0.47467	-1
0.47833	1
0.48200	4
0.48567	7
0.48933	8
0.49300	8
0.49667	6
0.50033	6
0.50400	8
0.50767	8
0.51133	5
0.51500	6
0.51867	6
0.52233	3
0.52600	2
0.52967	3
0.53333	6
0.53700	9
0.54067	8
0.54433	5
0.54800	1
0.55167	-1
0.55533	0
0.55900	4
0.56267	6
0.56633	8
0.57000	7
0.57367	5
0.57733	2
0.58100	4
0.58467	4
0.58833	4
0.59200	5
0.59567	5
0.59933	3
0.60300	4
0.60667	4
0.61033	7
0.61400	9
0.61767	9
0.62133	10
0.62500	8
0.62867	7
0.63233	8
0.63600	8
0.63967	7
0.64333	7
0.64700	9
0.65067	11
0.65433	11
0.65800	8
0.66167	4
0.66533	3
0.66900	3
0.67267	3
0.67633	4
0.68000	6
0.68367	9
0.68733	12
0.69100	12
0.69467	12
0.69833	10
0.70200	11
0.70567	12
0.70933	10
0.71300	8
0.71667	7
0.72033	10
0.72400	11
0.72767	12
0.73133	14
0.73500	16
0.73867	16
0.74233	13
0.74600	9
0.74967	9
0.75333	10
0.75700	12
0.76067	12
0.76433	12
0.76800	12
0.77167	12
0.77533	10
0.77900	8
0.78267	4
0.78633	6
0.79000	9
0.79367	9
0.79733	8
0.80100	10
0.80467	13
0.80833	15
0.81200	14
0.81567	13
0.81933	10
0.82300	10
0.82667	9
0.83033	9
0.83400	9
0.83767	10
0.84133	10
0.84500	10
0.84867	8
0.85233	8
0.85600	11
0.85967	13
0.86333	13
0.86700	14
0.87067	14
0.87433	15
0.87800	16
0.88167	15
0.88533	14
0.88900	13
0.89267	13
0.89633	14
0.90000	15
0.90367	17
0.90733	17
0.91100	18
0.91467	18
0.91833	19
0.92200	18
0.92567	20
0.92933	21
0.93300	18
0.93667	16
0.94033	13
0.94400	10
0.94767	10
0.95133	8
0.95500	7
0.95867	6
0.96233	8
0.96600	9
0.96967	8
0.97333	8
0.97700	11
0.98067	12
0.98433	15
0.98800	16
0.99167	16
0.99533	16
0.99900	14
1.00267	14
1.00633	15
1.01000	15
1.01367	13
1.01733	11
1.02100	11
1.02467	11
1.02833	12
1.03200	13
1.03567	15
1.03933	14
1.04300	14
1.04667	17
1.05033	19
1.05400	19
1.05767	19
1.06133	19
1.06500	18
1.06867	17
1.07233	17
1.07600	16
1.07967	18
1.08333	18
1.08700	16
1.09067	16
1.09433	16
1.09800	19
1.10167	18
1.10533	17
1.10900	16
1.11267	16
1.11633	15
1.12000	13
1.12367	14
1.12733	16
1.13100	17
1.13467	18
1.13833	19
1.14200	18
1.14567	18
1.14933	18
1.15300	17
1.15667	16
1.16033	18
1.16400	19
1.16767	18
1.17133	16
1.17500	14
1.17867	15
1.18233	14
1.18600	12
1.18967	12
1.19333	10
1.19700	8
1.20067	8
1.20433	12
1.20800	14
1.21167	16
1.21533	18
1.21900	21
1.22267	21
1.22633	22
1.23000	24
1.23367	25
1.23733	23
1.24100	21
1.24467	21
1.24833	21
1.25200	20
1.25567	19
1.25933	22
1.26300	25
1.26667	28
1.27033	25
1.27400	23
1.27767	21
1.28133	18
1.28500	16
1.28867	16
1.29233	14
1.29600	14
1.29967	15
1.30333	17
1.30700	17
1.31067	18
1.31433	19
1.31800	17
1.32167	16
1.32533	15
1.32900	15
1.33267	18
1.33633	19
1.34000	17
1.34367	16
1.34733	14
1.35100	11
1.35467	12
1.35833	12
1.36200	12
1.36567	13
1.36933	14
1.37300	14
1.37667	15
1.38033	16
1.38400	15
1.38767	14
1.39133	14
1.39500	15
1.39867	17
1.40233	19
1.40600	20
1.40967	17
1.41333	13
1.41700	14
1.42067	16
1.42433	18
1.42800	19
1.43167	19
1.43533	19
1.43900	18
1.44267	17
1.44633	15
1.45000	15
1.45367	17
1.45733	17
1.46100	15
1.46467	16
1.46833	18
1.47200	18
1.47567	16
1.47933	16
1.48300	15
1.48667	13
1.49033	11
1.49400	9
1.49767	8
1.50133	9
1.50500	9
1.50867	10
1.51233	11
1.51600	12
1.51967	12
1.52333	13
1.52700	14
1.53067	13
1.53433	13
1.53800	14
1.54167	17
1.54533	16
1.54900	13
1.55267	11
1.55633	12
1.56000	14
1.56367	14
1.56733	15
1.57100	18
1.57467	18
1.57833	16
1.58200	14
1.58567	15
1.58933	17
1.59300	18
1.59667	17
1.60033	18
1.60400	20
1.60767	21
1.61133	21
1.61500	23
1.61867	22
1.62233	20
1.62600	18
1.62967	18
1.63333	20
1.63700	22
1.64067	23
1.64433	21
1.64800	17
1.65167	16
1.65533	15
1.65900	16
1.66267	19
1.66633	21
1.67000	23
1.67367	26
1.67733	28
1.68100	27
1.68467	26
1.68833	26
1.69200	25
1.69567	24
1.69933	24
1.70300	21
1.70667	18
1.71033	20
1.71400	22
1.71767	23
1.72133	23
1.72500	22
1.72867	22
1.73233	23
1.73600	26
1.73967	27
1.74333	27
1.74700	29
1.75067	33
1.75433	35
1.75800	36
1.76167	33
1.76533	29
1.76900	26
1.77267	25
1.77633	24
1.78000	25
1.78367	26
1.78733	26
1.79100	27
1.79467	30
1.79833	31
1.80200	31
1.80567	30
1.80933	29
1.81300	30
1.81667	30
1.82033	29
1.82400	28
1.82767	28
1.83133	28
1.83500	28
1.83867	29
1.84233	32
1.84600	34
1.84967	33
1.85333	33
1.85700	32
1.86067	34
1.86433	36
1.86800	34
1.87167	32
1.87533	32
1.87900	31
1.88267	32
1.88633	34
1.89000	37
1.89367	38
1.89733	36
1.90100	36
1.90467	38
1.90833	42
1.91200	44
1.91567	42
1.91933	39
1.92300	39
1.92667	40
1.93033	40
1.93400	40
1.93767	41
1.94133	40
1.94500	40
1.94867	42
1.95233	43
1.95600	43
1.95967	45
1.96333	45
1.96700	43
1.97067	43
1.97433	43
1.97800	44
1.98167	44
1.98533	44
1.98900	48
1.99267	50
1.99633	51
2.00000	50
2.00367	48
2.00733	47
2.01100	49
2.01467	50
2.01833	49
2.02200	49
2.02567	52
2.02933	53
2.03300	50
2.03667	48
2.04033	49
2.04400	50
2.04767	51
2.05133	52
2.05500	51
2.05867	51
2.06233	51
2.06600	54
2.06967	57
2.07333	58
2.07700	58
2.08067	59
2.08433	59
2.08800	57
2.09167	56
2.09533	57
2.09900	56
2.10267	56
2.10633	56
2.11000	57
2.11367	58
2.11733	58
2.12100	60
2.12467	62
2.12833	63
2.13200	63
2.13567	66
2.13933	66
2.14300	66
2.14667	68
2.15033	69
2.15400	70
2.15767	71
2.16133	70
2.16500	70
2.16867	71
2.17233	73
2.17600	70
2.17967	69
2.18333	68
2.18700	68
2.19067	68
2.19433	68
2.19800	71
2.20167	72
2.20533	73
2.20900	74
2.21267	76
2.21633	79
2.22000	82
2.22367	81
2.22733	82
2.23100	84
2.23467	82
2.23833	81
2.24200	86
2.24567	90
2.24933	92
2.25300	89
2.25667	87
2.26033	85
2.26400	85
2.26767	85
2.27133	86
2.27500	88
2.27867	92
2.28233	97
2.28600	97
2.28967	94
2.29333	91
2.29700	87
2.30067	87
2.30433	90
2.30800	93
2.31167	96
2.31533	98
2.31900	98
2.32267	95
2.32633	95
2.33000	95
2.33367	93
2.33733	92
2.34100	93
2.34467	95
2.34833	97
2.35200	97
2.35567	97
2.35933	97
2.36300	98
2.36667	97
2.37033	95
2.37400	93
2.37767	90
2.38133	88
2.38500	87
2.38867	83
2.39233	84
2.39600	92
2.39967	105
2.40333	115
2.40700	122
2.41067	123
2.41433	123
2.41800	125
2.42167	128
2.42533	131
2.42900	132
2.43267	131
2.43633	128
2.44000	131
2.44367	169
2.44733	235
2.45100	285
2.45467	310
2.45833	307
2.46200	283
2.46567	255
2.46933	232
2.47300	213
2.47667	192
2.48033	166
2.48400	139
2.48767	113
2.49133	90
2.49500	74
2.49867	61
2.50233	55
2.50600	55
2.50967	59
2.51333	62
2.51700	66
2.52067	67
2.52433	64
2.52800	60
2.53167	51
2.53533	41
2.53900	29
2.54267	14
2.54633	2
2.55000	-5
2.55367	-11
2.55733	-16
2.56100	-19
2.56467	-22
2.56833	-23
2.57200	-24
2.57567	-23
2.57933	-22
2.58300	-18
2.58667	-10
2.59033	-4
2.59400	6
2.59767	15
2.60133	22
2.60500	31
2.60867	38
2.61233	41
2.61600	41
2.61967	40
2.62333	39
2.62700	33
2.63067	26
2.63433	20
2.63800	14
2.64167	5
2.64533	-5
2.64900	-14
2.65267	-22
2.65633	-31
2.66000	-37
2.66367	-43
2.66733	-50
2.67100	-59
2.67467	-63
2.67833	-64
2.68200	-65
2.68567	-65
2.68933	-64
2.69300	-63
2.69667	-60
2.70033	-57
2.70400	-57
2.70767	-58
2.71133	-58
2.71500	-57
2.71867	-58
2.72233	-57
2.72600	-57
2.72967	-57
2.73333	-55
2.73700	-53
2.74067	-49
2.74433	-45
2.74800	-42
2.75167	-38
2.75533	-34
2.75900	-29
2.76267	-26
2.76633	-22
2.77000	-19
2.77367	-15
2.77733	-9
2.78100	-5
2.78467	-0
2.78833	3
2.79200	6
2.79567	7
2.79933	9
2.80300	14
2.80667	19
2.81033	23
2.81400	25
2.81767	27
2.82133	29
2.82500	31
2.82867	32
2.83233	34
2.83600	40
2.83967	52
2.84333	83
2.84700	149
2.85067	266
2.85433	450
2.85800	712
2.86167	1057
2.86533	1476
2.86900	1942
2.87267	2419
2.87633	2871
2.88000	3258
2.88367	3549
2.88733	3724
2.89100	3784
2.89467	3741
2.89833	3608
2.90200	3407
2.90567	3160
2.90933	2889
2.91300	2609
2.91667	2333
2.92033	2072
2.92400	1829
2.92767	1607
2.93133	1405
2.93500	1226
2.93867	1068
2.94233	927
2.94600	804
2.94967	697
2.95333	602
2.95700	519
2.96067	450
2.96433	390
2.96800	339
2.97167	296
2.97533	261
2.97900	230
2.98267	201
2.98633	175
2.99000	151
2.99367	131
2.99733	115
3.00100	102
3.00467	92
3.00833	82
3.01200	76
3.01567	72
3.01933	67
3.02300	48
3.02667	-14
3.03033	-111
3.03400	-187
3.03767	-203
3.04133	-159
3.04500	-76
3.04867	32
3.05233	148
3.05600	267
3.05967	377
3.06333	476
3.06700	560
3.07067	630
3.07433	689
3.07800	736
3.08167	774
3.08533	802
3.08900	821
3.09267	834
3.09633	845
3.10000	853
3.10367	859
3.10733	864
3.11100	868
3.11467	869
3.11833	871
3.12200	870
3.12567	870
3.12933	869
3.13300	864
3.13667	861
3.14033	858
3.14400	855
3.14767	854
3.15133	853
3.15500	850
3.15867	845
3.16233	841
3.16600	836
3.16967	833
3.17333	829
3.17700	825
3.18067	821
3.18433	821
3.18800	821
3.19167	820
3.19533	818
3.19900	814
3.20267	810
3.20633	805
3.21000	802
3.21367	798
3.21733	794
3.22100	791
3.22467	787
3.22833	781
3.23200	777
3.23567	774
3.23933	772
3.24300	766
3.24667	764
3.25033	763
3.25400	760
3.25767	754
3.26133	747
3.26500	743
3.26867	740
3.27233	738
3.27600	734
3.27967	728
3.28333	723
3.28700	718
3.29067	713
3.29433	708
3.29800	706
3.30167	703
3.30533	698
3.30900	693
3.31267	691
3.31633	687
3.32000	685
3.32367	684
3.32733	683
3.33100	678
3.33467	676
3.33833	672
3.34200	669
3.34567	665
3.34933	661
3.35300	659
3.35667	659
3.36033	660
3.36400	662
3.36767	662
3.37133	659
3.37500	654
3.37867	651
3.38233	648
3.38600	646
3.38967	646
3.39333	648
3.39700	649
3.40067	651
3.40433	648
3.40800	646
3.41167	642
3.41533	638
3.41900	633
3.42267	628
3.42633	623
3.43000	621
3.43367	619
3.43733	618
3.44100	615
3.44467	614
3.44833	610
3.45200	605
3.45567	601
3.45933	599
3.46300	599
3.46667	598
3.47033	597
3.47400	592
3.47767	586
3.48133	582
3.48500	577
3.48867	575
3.49233	575
3.49600	571
3.49967	566
3.50333	562
3.50700	561
3.51067	558
3.51433	554
3.51800	551
3.52167	547
3.52533	544
3.52900	544
3.53267	543
3.53633	540
3.54000	537
3.54367	533
3.54733	531
3.55100	529
3.55467	527
3.55833	524
3.56200	522
3.56567	520
3.56933	521
3.57300	521
3.57667	521
3.58033	518
3.58400	514
3.58767	512
3.59133	510
3.59500	507
3.59867	505
3.60233	501
3.60600	498
3.60967	497
3.61333	496
3.61700	494
3.62067	493
3.62433	489
3.62800	485
3.63167	484
3.63533	482
3.63900	479
3.64267	475
3.64633	472
3.65000	472
3.65367	471
3.65733	469
3.66100	470
3.66467	472
3.66833	472
3.67200	469
3.67567	467
3.67933	464
3.68300	462
3.68667	459
3.69033	457
3.69400	456
3.69767	456
3.70133	457
3.70500	456
3.70867	455
3.71233	454
3.71600	455
3.71967	457
3.72333	457
3.72700	457
3.73067	457
3.73433	456
3.73800	452
3.74167	449
3.74533	448
3.74900	448
3.75267	447
3.75633	448
3.76000	449
3.76367	450
3.76733	452
3.77100	451
3.77467	448
3.77833	447
3.78200	445
3.78567	444
3.78933	442
3.79300	443
3.79667	444
3.80033	446
3.80400	448
3.80767	447
3.81133	443
3.81500	440
3.81867	438
3.82233	438
3.82600	440
3.82967	440
3.83333	437
3.83700	434
3.84067	433
3.84433	433
3.84800	432
3.85167	427
3.85533	423
3.85900	420
3.86267	418
3.86633	418
3.87000	420
3.87367	423
3.87733	425
3.88100	426
3.88467	426
3.88833	426
3.89200	426
3.89567	425
3.89933	423
3.90300	422
3.90667	420
3.91033	419
3.91400	418
3.91767	414
3.92133	412
3.92500	413
3.92867	413
3.93233	412
3.93600	412
3.93967	410
3.94333	411
3.94700	414
3.95067	415
3.95433	413
3.95800	411
3.96167	409
3.96533	407
3.96900	406
3.97267	404
3.97633	403
3.98000	404
3.98367	406
3.98733	408
3.99100	407
3.99467	403
3.99833	395

[Status Trace (Column Oven Temperature)]
Interval(msec)	1000
# of Points	240
Start Time(min)	0.009
End Time(min)	3.993
Intensity Units	
Intensity Multiplier	1
R.Time (min)	Intensity
0.00930	35.03
0.02597	35.03
0.04263	35.03
0.05930	35.03
0.07597	35.02
0.09263	35.03
0.10930	35.02
0.12597	35.02
0.14263	35.02
0.15930	35.02
0.17597	35.03
0.19263	35.02
0.20930	35.01
0.22597	35.01
0.24263	35.00
0.25930	35.00
0.27597	35.01
0.29263	35.01
0.30930	35.01
0.32597	35.01
0.34263	35.00
0.35930	35.00
0.37597	35.01
0.39263	35.00
0.40930	35.00
0.42597	35.00
0.44263	35.00
0.45930	35.00
0.47597	35.00
0.49263	35.01
0.50930	35.00
0.52597	35.00
0.54263	35.00
0.55930	35.00
0.57597	35.00
0.59263	35.00
0.60930	35.00
0.62597	35.00
0.64263	35.00
0.65930	35.00
0.67597	35.00
0.69263	34.99
0.70930	34.99
0.72597	35.00
0.74263	34.99
0.75930	34.99
0.77597	34.99
0.79263	34.99
0.80930	34.99
0.82597	34.99
0.84263	34.99
0.85930	35.00
0.87597	34.99
0.89263	34.99
0.90930	35.00
0.92597	35.00
0.94263	35.00
0.95930	34.99
0.97597	35.00
0.99263	35.00
1.00930	35.00
1.02597	35.01
1.04263	35.01
1.05930	35.01
1.07597	35.01
1.09263	35.01
1.10930	35.01
1.12597	34.99
1.14263	35.00
1.15930	35.00
1.17597	34.99
1.19263	34.99
1.20930	35.00
1.22597	35.00
1.24263	35.00
1.25930	34.99
1.27597	34.99
1.29263	34.99
1.30930	34.99
1.32597	34.99
1.34263	34.98
1.35930	34.99
1.37597	34.99
1.39263	34.99
1.40930	35.00
1.42597	35.00
1.44263	35.01
1.45930	35.00
1.47597	35.00
1.49263	35.00
1.50930	35.00
1.52597	34.99
1.54263	35.00
1.55930	34.99
1.57597	34.99
1.59263	35.00
1.60930	35.05
1.62597	35.19
1.64263	35.38
1.65930	35.63
1.67597	35.96
1.69263	36.33
1.70930	36.69
1.72597	37.02
1.74263	37.37
1.75930	37.69
1.77597	38.00
1.79263	38.35
1.80930	38.69
1.82597	39.02
1.84263	39.34
1.85930	39.67
1.87597	40.01
1.89263	40.34
1.90930	40.66
1.92597	41.01
1.94263	41.33
1.95930	41.67
1.97597	41.98
1.99263	42.33
2.00930	42.65
2.02597	42.96
2.04263	43.29
2.05930	43.61
2.07597	43.95
2.09263	44.26
2.10930	44.59
2.12597	44.92
2.14263	45.23
2.15930	45.56
2.17597	45.89
2.19263	46.23
2.20930	46.55
2.22597	46.89
2.24263	47.22
2.25930	47.56
2.27597	47.87
2.29263	48.20
2.30930	48.53
2.32597	48.85
2.34263	49.19
2.35930	49.44
2.37597	49.60
2.39263	49.64
2.40930	49.64
2.42597	49.65
2.44263	49.66
2.45930	49.65
2.47597	49.68
2.49263	49.69
2.50930	49.70
2.52597	49.72
2.54263	49.73
2.55930	49.74
2.57597	49.76
2.59263	49.77
2.60930	49.80
2.62597	49.81
2.64263	49.83
2.65930	49.83
2.67597	49.83
2.69263	49.85
2.70930	49.86
2.72597	49.85
2.74263	49.84
2.75930	49.87
2.77597	49.89
2.79263	49.90
2.80930	49.90
2.82597	49.90
2.84263	49.89
2.85930	49.89
2.87597	49.89
2.89263	49.90
2.90930	49.92
2.92597	49.94
2.94263	49.95
2.95930	49.95
2.97597	49.97
2.99263	49.98
3.00930	50.00
3.02597	50.00
3.04263	50.01
3.05930	50.01
3.07597	50.02
3.09263	50.03
3.10930	50.04
3.12597	50.05
3.14263	50.06
3.15930	50.06
3.17597	50.07
3.19263	50.07
3.20930	50.09
3.22597	50.09
3.24263	50.09
3.25930	50.09
3.27597	50.10
3.29263	50.10
3.30930	50.11
3.32597	50.11
3.34263	50.10
3.35930	50.09
3.37597	50.08
3.39263	50.07
3.40930	50.05
3.42597	50.04
3.44263	50.03
3.45930	50.02
3.47597	50.02
3.49263	50.01
3.50930	50.00
3.52597	50.01
3.54263	50.00
3.55930	50.01
3.57597	50.01
3.59263	50.02
3.60930	50.01
3.62597	50.02
3.64263	50.02
3.65930	50.02
3.67597	50.03
3.69263	50.03
3.70930	50.02
3.72597	50.03
3.74263	50.03
3.75930	50.04
3.77597	50.04
3.79263	50.05
3.80930	50.05
3.82597	50.06
3.84263	50.06
3.85930	50.06
3.87597	50.06
3.89263	50.06
3.90930	50.06
3.92597	50.06
3.94263	50.06
3.95930	50.05
3.97597	50.05
3.99263	50.05

[Status Trace (Injection Unit Temperature)]
Interval(msec)	1000
# of Points	240
Start Time(min)	0.009
End Time(min)	3.993
Intensity Units	
Intensity Multiplier	1
R.Time (min)	Intensity
0.00930	99.98
0.02597	99.98
0.04263	99.98
0.05930	99.98
0.07597	99.97
0.09263	99.98
0.10930	99.97
0.12597	99.98
0.14263	99.98
0.15930	99.98
0.17597	99.97
0.19263	99.98
0.20930	99.97
0.22597	99.97
0.24263	99.97
0.25930	99.97
0.27597	99.97
0.29263	99.97
0.30930	99.97
0.32597	99.97
0.34263	99.97
0.35930	99.97
0.37597	99.97
0.39263	99.97
0.40930	99.97
0.42597	99.97
0.44263	99.97
0.45930	99.97
0.47597	99.96
0.49263	99.97
0.50930	99.97
0.52597	99.96
0.54263	99.97
0.55930	99.96
0.57597	99.97
0.59263	99.96
0.60930	99.96
0.62597	99.97
0.64263	99.96
0.65930	99.96
0.67597	99.96
0.69263	99.96
0.70930	99.96
0.72597	99.96
0.74263	99.96
0.75930	99.96
0.77597	99.96
0.79263	99.96
0.80930	99.97
0.82597	99.96
0.84263	99.97
0.85930	99.96
0.87597	99.97
0.89263	99.97
0.90930	99.97
0.92597	99.97
0.94263	99.97
0.95930	99.97
0.97597	99.97
0.99263	99.97
1.00930	99.97
1.02597	99.97
1.04263	99.97
1.05930	99.97
1.07597	99.97
1.09263	99.98
1.10930	99.97
1.12597	99.97
1.14263	99.97
1.15930	99.98
1.17597	99.97
1.19263	99.98
1.20930	99.97
1.22597	99.98
1.24263	99.98
1.25930	99.97
1.27597	99.97
1.29263	99.98
1.30930	99.98
1.32597	99.98
1.34263	99.98
1.35930	99.98
1.37597	99.98
1.39263	99.98
1.40930	99.98
1.42597	99.98
1.44263	99.98
1.45930	99.98
1.47597	99.98
1.49263	99.98
1.50930	99.98
1.52597	99.98
1.54263	99.98
1.55930	99.98
1.57597	99.98
1.59263	99.98
1.60930	99.98
1.62597	99.98
1.64263	99.98
1.65930	99.98
1.67597	99.98
1.69263	99.98
1.70930	99.98
1.72597	99.98
1.74263	99.98
1.75930	99.98
1.77597	99.98
1.79263	99.98
1.80930	99.98
1.82597	99.98
1.84263	99.97
1.85930	99.98
1.87597	99.97
1.89263	99.97
1.90930	99.97
1.92597	99.97
1.94263	99.98
1.95930	99.97
1.97597	99.97
1.99263	99.97
2.00930	99.97
2.02597	99.97
2.04263	99.97
2.05930	99.97
2.07597	99.97
2.09263	99.97
2.10930	99.97
2.12597	99.96
2.14263	99.96
2.15930	99.96
2.17597	99.96
2.19263	99.96
2.20930	99.96
2.22597	99.96
2.24263	99.96
2.25930	99.96
2.27597	99.96
2.29263	99.96
2.30930	99.96
2.32597	99.96
2.34263	99.96
2.35930	99.96
2.37597	99.96
2.39263	99.96
2.40930	99.96
2.42597	99.96
2.44263	99.96
2.45930	99.96
2.47597	99.96
2.49263	99.96
2.50930	99.96
2.52597	99.96
2.54263	99.96
2.55930	99.96
2.57597	99.96
2.59263	99.96
2.60930	99.97
2.62597	99.97
2.64263	99.97
2.65930	99.97
2.67597	99.97
2.69263	99.97
2.70930	99.97
2.72597	99.97
2.74263	99.98
2.75930	99.98
2.77597	99.98
2.79263	99.99
2.80930	99.99
2.82597	99.99
2.84263	99.99
2.85930	99.99
2.87597	99.99
2.89263	99.99
2.90930	100.00
2.92597	100.00
2.94263	100.00
2.95930	100.00
2.97597	100.00
2.99263	100.00
3.00930	100.00
3.02597	100.00
3.04263	100.01
3.05930	100.01
3.07597	100.01
3.09263	100.01
3.10930	100.01
3.12597	100.02
3.14263	100.02
3.15930	100.02
3.17597	100.02
3.19263	100.02
3.20930	100.02
3.22597	100.02
3.24263	100.02
3.25930	100.02
3.27597	100.03
3.29263	100.03
3.30930	100.03
3.32597	100.03
3.34263	100.03
3.35930	100.03
3.37597	100.03
3.39263	100.03
3.40930	100.03
3.42597	100.03
3.44263	100.03
3.45930	100.04
3.47597	100.03
3.49263	100.04
3.50930	100.04
3.52597	100.04
3.54263	100.04
3.55930	100.04
3.57597	100.03
3.59263	100.04
3.60930	100.04
3.62597	100.04
3.64263	100.04
3.65930	100.04
3.67597	100.04
3.69263	100.04
3.70930	100.04
3.72597	100.04
3.74263	100.05
3.75930	100.04
3.77597	100.04
3.79263	100.05
3.80930	100.04
3.82597	100.05
3.84263	100.05
3.85930	100.04
3.87597	100.05
3.89263	100.05
3.90930	100.05
3.92597	100.05
3.94263	100.05
3.95930	100.04
3.97597	100.05
3.99263	100.04

[Status Trace (Carrier Gas Pressure)]
Interval(msec)	1000
# of Points	240
Start Time(min)	0.009
End Time(min)	3.993
Intensity Units	
Intensity Multiplier	1
R.Time (min)	Intensity
0.00930	58.00
0.02597	55.19
0.04263	57.29
0.05930	59.32
0.07597	59.36
0.09263	58.05
0.10930	57.98
0.12597	58.01
0.14263	58.01
0.15930	58.01
0.17597	58.00
0.19263	58.00
0.20930	58.00
0.22597	58.00
0.24263	58.00
0.25930	58.00
0.27597	58.00
0.29263	58.00
0.30930	58.00
0.32597	58.00
0.34263	58.00
0.35930	58.00
0.37597	58.00
0.39263	58.00
0.40930	58.00
0.42597	58.00
0.44263	58.00
0.45930	58.00
0.47597	58.00
0.49263	58.00
0.50930	58.00
0.52597	58.00
0.54263	58.00
0.55930	58.00
0.57597	58.00
0.59263	58.00
0.60930	58.00
0.62597	58.00
0.64263	58.00
0.65930	58.00
0.67597	58.00
0.69263	58.00
0.70930	58.00
0.72597	58.00
0.74263	58.00
0.75930	58.00
0.77597	58.00
0.79263	58.00
0.80930	58.00
0.82597	58.00
0.84263	58.00
0.85930	58.00
0.87597	58.00
0.89263	58.00
0.90930	58.00
0.92597	58.00
0.94263	58.00
0.95930	58.00
0.97597	58.00
0.99263	58.00
1.00930	58.00
1.02597	58.00
1.04263	58.00
1.05930	58.00
1.07597	58.00
1.09263	58.00
1.10930	58.00
1.12597	58.00
1.14263	58.00
1.15930	58.00
1.17597	58.00
1.19263	58.00
1.20930	58.00
1.22597	58.00
1.24263	58.00
1.25930	58.00
1.27597	58.00
1.29263	58.00
1.30930	58.00
1.32597	58.00
1.34263	58.00
1.35930	58.00
1.37597	58.00
1.39263	58.00
1.40930	58.00
1.42597	58.00
1.44263	58.00
1.45930	58.00
1.47597	58.00
1.49263	58.00
1.50930	58.00
1.52597	58.00
1.54263	58.00
1.55930	58.00
1.57597	58.00
1.59263	58.00
1.60930	58.00
1.62597	58.00
1.64263	58.00
1.65930	58.00
1.67597	58.01
1.69263	58.00
1.70930	58.00
1.72597	58.00
1.74263	58.00
1.75930	58.00
1.77597	58.00
1.79263	58.00
1.80930	58.00
1.82597	58.00
1.84263	58.00
1.85930	58.00
1.87597	58.00
1.89263	58.00
1.90930	58.00
1.92597	58.00
1.94263	58.00
1.95930	58.00
1.97597	58.00
1.99263	58.00
2.00930	58.00
2.02597	58.00
2.04263	58.00
2.05930	58.00
2.07597	58.00
2.09263	58.00
2.10930	58.00
2.12597	58.00
2.14263	58.00
2.15930	58.00
2.17597	58.00
2.19263	58.00
2.20930	58.00
2.22597	58.00
2.24263	58.00
2.25930	58.00
2.27597	58.00
2.29263	58.00
2.30930	58.00
2.32597	58.00
2.34263	58.00
2.35930	58.00
2.37597	58.00
2.39263	57.99
2.40930	58.00
2.42597	58.00
2.44263	58.00
2.45930	58.00
2.47597	58.00
2.49263	58.00
2.50930	58.00
2.52597	57.98
2.54263	58.00
2.55930	58.00
2.57597	58.00
2.59263	58.00
2.60930	58.00
2.62597	58.00
2.64263	58.00
2.65930	58.00
2.67597	58.00
2.69263	58.00
2.70930	58.00
2.72597	58.00
2.74263	58.00
2.75930	58.00
2.77597	58.00
2.79263	58.00
2.80930	58.00
2.82597	58.00
2.84263	58.00
2.85930	58.00
2.87597	58.00
2.89263	58.00
2.90930	58.00
2.92597	58.00
2.94263	58.00
2.95930	58.00
2.97597	58.00
2.99263	58.00
3.00930	58.00
3.02597	58.00
3.04263	58.00
3.05930	58.00
3.07597	58.00
3.09263	58.00
3.10930	58.00
3.12597	58.00
3.14263	58.00
3.15930	58.00
3.17597	58.00
3.19263	58.00
3.20930	58.00
3.22597	58.00
3.24263	58.00
3.25930	58.00
3.27597	58.00
3.29263	58.00
3.30930	58.00
3.32597	58.00
3.34263	58.00
3.35930	58.00
3.37597	58.00
3.39263	58.00
3.40930	58.00
3.42597	58.00
3.44263	58.00
3.45930	58.00
3.47597	58.00
3.49263	58.00
3.50930	58.00
3.52597	58.00
3.54263	58.00
3.55930	58.00
3.57597	58.00
3.59263	58.00
3.60930	58.00
3.62597	58.00
3.64263	58.00
3.65930	58.00
3.67597	58.00
3.69263	58.00
3.70930	58.00
3.72597	58.00
3.74263	58.00
3.75930	58.00
3.77597	58.00
3.79263	58.00
3.80930	58.00
3.82597	58.00
3.84263	58.00
3.85930	58.00
3.87597	58.00
3.89263	58.00
3.90930	58.00
3.92597	58.00
3.94263	58.00
3.95930	58.00
3.97597	58.00
3.99263	58.00

[Status Trace (Carrier Gas Flow)]
Interval(msec)	1000
# of Points	240
Start Time(min)	0.009
End Time(min)	3.993
Intensity Units	
Intensity Multiplier	1
R.Time (min)	Intensity
0.00930	34.53
0.02597	34.53
0.04263	34.54
0.05930	34.55
0.07597	34.50
0.09263	34.51
0.10930	34.52
0.12597	34.52
0.14263	34.52
0.15930	34.52
0.17597	34.52
0.19263	34.52
0.20930	34.52
0.22597	34.53
0.24263	34.52
0.25930	34.52
0.27597	34.52
0.29263	34.52
0.30930	34.52
0.32597	34.52
0.34263	34.52
0.35930	34.51
0.37597	34.52
0.39263	34.51
0.40930	34.51
0.42597	34.51
0.44263	34.51
0.45930	34.52
0.47597	34.52
0.49263	34.51
0.50930	34.52
0.52597	34.51
0.54263	34.52
0.55930	34.52
0.57597	34.52
0.59263	34.52
0.60930	34.53
0.62597	34.52
0.64263	34.52
0.65930	34.52
0.67597	34.53
0.69263	34.52
0.70930	34.52
0.72597	34.52
0.74263	34.52
0.75930	34.51
0.77597	34.52
0.79263	34.52
0.80930	34.52
0.82597	34.52
0.84263	34.52
0.85930	34.52
0.87597	34.52
0.89263	34.53
0.90930	34.53
0.92597	34.52
0.94263	34.52
0.95930	34.52
0.97597	34.51
0.99263	34.52
1.00930	34.51
1.02597	34.53
1.04263	34.52
1.05930	34.52
1.07597	34.52
1.09263	34.53
1.10930	34.51
1.12597	34.52
1.14263	34.51
1.15930	34.51
1.17597	34.52
1.19263	34.52
1.20930	34.52
1.22597	34.52
1.24263	34.52
1.25930	34.52
1.27597	34.52
1.29263	34.52
1.30930	34.52
1.32597	34.52
1.34263	34.52
1.35930	34.52
1.37597	34.52
1.39263	34.52
1.40930	34.52
1.42597	34.52
1.44263	34.52
1.45930	34.52
1.47597	34.52
1.49263	34.51
1.50930	34.51
1.52597	34.52
1.54263	34.51
1.55930	34.52
1.57597	34.52
1.59263	34.52
1.60930	34.52
1.62597	34.52
1.64263	34.52
1.65930	34.52
1.67597	34.52
1.69263	34.52
1.70930	34.52
1.72597	34.52
1.74263	34.52
1.75930	34.52
1.77597	34.51
1.79263	34.52
1.80930	34.53
1.82597	34.52
1.84263	34.52
1.85930	34.52
1.87597	34.52
1.89263	34.52
1.90930	34.51
1.92597	34.52
1.94263	34.52
1.95930	34.52
1.97597	34.52
1.99263	34.52
2.00930	34.51
2.02597	34.52
2.04263	34.52
2.05930	34.52
2.07597	34.52
2.09263	34.52
2.10930	34.52
2.12597	34.52
2.14263	34.52
2.15930	34.52
2.17597	34.52
2.19263	34.52
2.20930	34.52
2.22597	34.52
2.24263	34.52
2.25930	34.52
2.27597	34.52
2.29263	34.52
2.30930	34.52
2.32597	34.53
2.34263	34.52
2.35930	34.52
2.37597	34.52
2.39263	34.52
2.40930	34.52
2.42597	34.52
2.44263	34.51
2.45930	34.52
2.47597	34.52
2.49263	34.52
2.50930	34.47
2.52597	34.52
2.54263	34.52
2.55930	34.52
2.57597	34.51
2.59263	34.52
2.60930	34.52
2.62597	34.52
2.64263	34.52
2.65930	34.52
2.67597	34.52
2.69263	34.52
2.70930	34.52
2.72597	34.51
2.74263	34.52
2.75930	34.52
2.77597	34.53
2.79263	34.52
2.80930	34.51
2.82597	34.52
2.84263	34.52
2.85930	34.52
2.87597	34.52
2.89263	34.52
2.90930	34.52
2.92597	34.52
2.94263	34.51
2.95930	34.52
2.97597	34.52
2.99263	34.51
3.00930	34.51
3.02597	34.53
3.04263	34.52
3.05930	34.52
3.07597	34.51
3.09263	34.52
3.10930	34.52
3.12597	34.52
3.14263	34.52
3.15930	34.52
3.17597	34.51
3.19263	34.52
3.20930	34.52
3.22597	34.51
3.24263	34.51
3.25930	34.52
3.27597	34.52
3.29263	34.52
3.30930	34.52
3.32597	34.52
3.34263	34.51
3.35930	34.53
3.37597	34.52
3.39263	34.52
3.40930	34.52
3.42597	34.51
3.44263	34.52
3.45930	34.52
3.47597	34.52
3.49263	34.52
3.50930	34.52
3.52597	34.52
3.54263	34.52
3.55930	34.52
3.57597	34.52
3.59263	34.52
3.60930	34.52
3.62597	34.51
3.64263	34.52
3.65930	34.51
3.67597	34.52
3.69263	34.52
3.70930	34.52
3.72597	34.53
3.74263	34.52
3.75930	34.52
3.77597	34.53
3.79263	34.51
3.80930	34.51
3.82597	34.52
3.84263	34.52
3.85930	34.51
3.87597	34.52
3.89263	34.52
3.90930	34.52
3.92597	34.52
3.94263	34.52
3.95930	34.52
3.97597	34.52
3.99263	34.52

[Status Trace (Column Flow)]
Interval(msec)	1000
# of Points	240
Start Time(min)	0.009
End Time(min)	3.993
Intensity Units	
Intensity Multiplier	1
R.Time (min)	Intensity
0.00930	5.50
0.02597	5.18
0.04263	5.42
0.05930	5.66
0.07597	5.66
0.09263	5.51
0.10930	5.50
0.12597	5.51
0.14263	5.51
0.15930	5.51
0.17597	5.51
0.19263	5.50
0.20930	5.51
0.22597	5.51
0.24263	5.51
0.25930	5.51
0.27597	5.51
0.29263	5.51
0.30930	5.51
0.32597	5.51
0.34263	5.51
0.35930	5.51
0.37597	5.51
0.39263	5.51
0.40930	5.51
0.42597	5.51
0.44263	5.51
0.45930	5.51
0.47597	5.51
0.49263	5.51
0.50930	5.51
0.52597	5.51
0.54263	5.51
0.55930	5.51
0.57597	5.51
0.59263	5.51
0.60930	5.51
0.62597	5.51
0.64263	5.51
0.65930	5.51
0.67597	5.51
0.69263	5.51
0.70930	5.51
0.72597	5.51
0.74263	5.51
0.75930	5.51
0.77597	5.51
0.79263	5.51
0.80930	5.51
0.82597	5.51
0.84263	5.51
0.85930	5.51
0.87597	5.51
0.89263	5.51
0.90930	5.51
0.92597	5.51
0.94263	5.51
0.95930	5.51
0.97597	5.51
0.99263	5.51
1.00930	5.51
1.02597	5.51
1.04263	5.51
1.05930	5.51
1.07597	5.51
1.09263	5.51
1.10930	5.51
1.12597	5.51
1.14263	5.51
1.15930	5.51
1.17597	5.51
1.19263	5.51
1.20930	5.51
1.22597	5.51
1.24263	5.51
1.25930	5.51
1.27597	5.51
1.29263	5.51
1.30930	5.51
1.32597	5.51
1.34263	5.51
1.35930	5.51
1.37597	5.51
1.39263	5.51
1.40930	5.51
1.42597	5.51
1.44263	5.51
1.45930	5.51
1.47597	5.51
1.49263	5.51
1.50930	5.51
1.52597	5.51
1.54263	5.51
1.55930	5.51
1.57597	5.51
1.59263	5.51
1.60930	5.50
1.62597	5.50
1.64263	5.49
1.65930	5.49
1.67597	5.48
1.69263	5.46
1.70930	5.45
1.72597	5.44
1.74263	5.43
1.75930	5.42
1.77597	5.41
1.79263	5.40
1.80930	5.39
1.82597	5.38
1.84263	5.37
1.85930	5.36
1.87597	5.35
1.89263	5.34
1.90930	5.33
1.92597	5.32
1.94263	5.31
1.95930	5.30
1.97597	5.29
1.99263	5.28
2.00930	5.27
2.02597	5.26
2.04263	5.25
2.05930	5.24
2.07597	5.23
2.09263	5.23
2.10930	5.22
2.12597	5.21
2.14263	5.20
2.15930	5.19
2.17597	5.18
2.19263	5.17
2.20930	5.16
2.22597	5.15
2.24263	5.14
2.25930	5.13
2.27597	5.12
2.29263	5.11
2.30930	5.10
2.32597	5.10
2.34263	5.09
2.35930	5.08
2.37597	5.07
2.39263	5.07
2.40930	5.07
2.42597	5.07
2.44263	5.07
2.45930	5.07
2.47597	5.07
2.49263	5.07
2.50930	5.07
2.52597	5.07
2.54263	5.07
2.55930	5.07
2.57597	5.07
2.59263	5.07
2.60930	5.07
2.62597	5.07
2.64263	5.07
2.65930	5.07
2.67597	5.07
2.69263	5.07
2.70930	5.07
2.72597	5.07
2.74263	5.07
2.75930	5.07
2.77597	5.07
2.79263	5.07
2.80930	5.07
2.82597	5.07
2.84263	5.07
2.85930	5.07
2.87597	5.07
2.89263	5.07
2.90930	5.07
2.92597	5.07
2.94263	5.07
2.95930	5.07
2.97597	5.06
2.99263	5.06
3.00930	5.06
3.02597	5.06
3.04263	5.06
3.05930	5.06
3.07597	5.06
3.09263	5.06
3.10930	5.06
3.12597	5.06
3.14263	5.06
3.15930	5.06
3.17597	5.06
3.19263	5.06
3.20930	5.06
3.22597	5.06
3.24263	5.06
3.25930	5.06
3.27597	5.06
3.29263	5.06
3.30930	5.06
3.32597	5.06
3.34263	5.06
3.35930	5.06
3.37597	5.06
3.39263	5.06
3.40930	5.06
3.42597	5.06
3.44263	5.06
3.45930	5.06
3.47597	5.06
3.49263	5.06
3.50930	5.06
3.52597	5.06
3.54263	5.06
3.55930	5.06
3.57597	5.06
3.59263	5.06
3.60930	5.06
3.62597	5.06
3.64263	5.06
3.65930	5.06
3.67597	5.06
3.69263	5.06
3.70930	5.06
3.72597	5.06
3.74263	5.06
3.75930	5.06
3.77597	5.06
3.79263	5.06
3.80930	5.06
3.82597	5.06
3.84263	5.06
3.85930	5.06
3.87597	5.06
3.89263	5.06
3.90930	5.06
3.92597	5.06
3.94263	5.06
3.95930	5.06
3.97597	5.06
3.99263	5.06

[Status Trace (Linear Velocity)]
Interval(msec)	1000
# of Points	240
Start Time(min)	0.009
End Time(min)	3.993
Intensity Units	
Intensity Multiplier	1
R.Time (min)	Intensity
0.00930	39.01
0.02597	37.17
0.04263	38.55
0.05930	39.87
0.07597	39.90
0.09263	39.04
0.10930	39.00
0.12597	39.02
0.14263	39.02
0.15930	39.01
0.17597	39.01
0.19263	39.01
0.20930	39.01
0.22597	39.01
0.24263	39.01
0.25930	39.01
0.27597	39.01
0.29263	39.01
0.30930	39.01
0.32597	39.01
0.34263	39.01
0.35930	39.01
0.37597	39.01
0.39263	39.01
0.40930	39.01
0.42597	39.01
0.44263	39.01
0.45930	39.01
0.47597	39.01
0.49263	39.01
0.50930	39.01
0.52597	39.01
0.54263	39.01
0.55930	39.01
0.57597	39.01
0.59263	39.01
0.60930	39.01
0.62597	39.01
0.64263	39.01
0.65930	39.01
0.67597	39.01
0.69263	39.01
0.70930	39.01
0.72597	39.01
0.74263	39.01
0.75930	39.01
0.77597	39.01
0.79263	39.01
0.80930	39.01
0.82597	39.01
0.84263	39.01
0.85930	39.01
0.87597	39.01
0.89263	39.01
0.90930	39.01
0.92597	39.01
0.94263	39.01
0.95930	39.01
0.97597	39.01
0.99263	39.01
1.00930	39.01
1.02597	39.01
1.04263	39.01
1.05930	39.01
1.07597	39.01
1.09263	39.01
1.10930	39.01
1.12597	39.01
1.14263	39.01
1.15930	39.01
1.17597	39.01
1.19263	39.01
1.20930	39.01
1.22597	39.01
1.24263	39.01
1.25930	39.01
1.27597	39.01
1.29263	39.01
1.30930	39.01
1.32597	39.01
1.34263	39.01
1.35930	39.01
1.37597	39.01
1.39263	39.01
1.40930	39.01
1.42597	39.01
1.44263	39.01
1.45930	39.01
1.47597	39.01
1.49263	39.01
1.50930	39.01
1.52597	39.01
1.54263	39.01
1.55930	39.01
1.57597	39.01
1.59263	39.01
1.60930	39.01
1.62597	39.00
1.64263	38.98
1.65930	38.96
1.67597	38.92
1.69263	38.89
1.70930	38.85
1.72597	38.82
1.74263	38.79
1.75930	38.76
1.77597	38.73
1.79263	38.69
1.80930	38.66
1.82597	38.63
1.84263	38.60
1.85930	38.57
1.87597	38.54
1.89263	38.51
1.90930	38.48
1.92597	38.44
1.94263	38.41
1.95930	38.38
1.97597	38.35
1.99263	38.32
2.00930	38.29
2.02597	38.26
2.04263	38.23
2.05930	38.20
2.07597	38.17
2.09263	38.14
2.10930	38.11
2.12597	38.08
2.14263	38.06
2.15930	38.03
2.17597	38.00
2.19263	37.97
2.20930	37.94
2.22597	37.91
2.24263	37.88
2.25930	37.85
2.27597	37.82
2.29263	37.79
2.30930	37.76
2.32597	37.73
2.34263	37.70
2.35930	37.68
2.37597	37.66
2.39263	37.66
2.40930	37.66
2.42597	37.66
2.44263	37.66
2.45930	37.66
2.47597	37.66
2.49263	37.66
2.50930	37.65
2.52597	37.64
2.54263	37.65
2.55930	37.65
2.57597	37.65
2.59263	37.65
2.60930	37.65
2.62597	37.65
2.64263	37.64
2.65930	37.64
2.67597	37.64
2.69263	37.64
2.70930	37.64
2.72597	37.64
2.74263	37.64
2.75930	37.64
2.77597	37.64
2.79263	37.64
2.80930	37.64
2.82597	37.64
2.84263	37.64
2.85930	37.64
2.87597	37.64
2.89263	37.64
2.90930	37.64
2.92597	37.63
2.94263	37.63
2.95930	37.63
2.97597	37.63
2.99263	37.63
3.00930	37.63
3.02597	37.63
3.04263	37.63
3.05930	37.63
3.07597	37.63
3.09263	37.63
3.10930	37.63
3.12597	37.62
3.14263	37.62
3.15930	37.62
3.17597	37.62
3.19263	37.62
3.20930	37.62
3.22597	37.62
3.24263	37.62
3.25930	37.62
3.27597	37.62
3.29263	37.62
3.30930	37.62
3.32597	37.62
3.34263	37.62
3.35930	37.62
3.37597	37.62
3.39263	37.62
3.40930	37.62
3.42597	37.63
3.44263	37.63
3.45930	37.63
3.47597	37.63
3.49263	37.63
3.50930	37.63
3.52597	37.63
3.54263	37.63
3.55930	37.63
3.57597	37.63
3.59263	37.63
3.60930	37.63
3.62597	37.63
3.64263	37.63
3.65930	37.63
3.67597	37.63
3.69263	37.63
3.70930	37.63
3.72597	37.63
3.74263	37.63
3.75930	37.63
3.77597	37.63
3.79263	37.62
3.80930	37.62
3.82597	37.62
3.84263	37.62
3.85930	37.62
3.87597	37.62
3.89263	37.62
3.90930	37.62
3.92597	37.62
3.94263	37.62
3.95930	37.62
3.97597	37.62
3.99263	37.62

