[Header]
Application Name	LabSolutions
Version	5.110
Data File Name	C:\Users\User\Desktop\Junior\UIC Prairie Sampling\7.18.23\071823_056.gcd
Output Date	8/29/2023
Output Time	10:40:23 AM

[File Information]
Type	Data File
Generated	8/28/2023 8:26:42 PM
Generated by	System Administrator
Modified	8/28/2023 8:33:17 PM
Modified by	System Administrator

[Sample Information]
Operator Name	System Administrator
Acquired	8/28/2023 8:29:17 PM
Sample Type	0:Unknown
Level	0
Sample Name	056
Sample ID	056
ISTD Amount1	1
ISTD Amount2	1
ISTD Amount3	1
ISTD Amount4	1
ISTD Amount5	1
ISTD Amount6	1
ISTD Amount7	1
ISTD Amount8	1
ISTD Amount9	1
ISTD Amount10	1
ISTD Amount11	1
ISTD Amount12	1
ISTD Amount13	1
ISTD Amount14	1
ISTD Amount15	1
ISTD Amount16	1
ISTD Amount17	1
ISTD Amount18	1
ISTD Amount19	1
ISTD Amount20	1
ISTD Amount21	1
ISTD Amount22	1
ISTD Amount23	1
ISTD Amount24	1
ISTD Amount25	1
ISTD Amount26	1
ISTD Amount27	1
ISTD Amount28	1
ISTD Amount29	1
ISTD Amount30	1
ISTD Amount31	1
ISTD Amount32	1
Sample Amount	1
Dilution Factor	1
Vial#	55
Injection Volume	1
Injection Count	1
Bar Code	

[Original Files]
Data File	C:\Users\User\Desktop\Junior\UIC Prairie Sampling\7.18.23\071823_056.gcd
Method File	C:\LabSolutions\Data\GHG_4min_2022\ghg3_togas_w_acet_4 min_new_int.gcm
Batch File	C:\LabSolutions\Data\BATCH FILES\071823.gcb
Report Format File	c:\LabSolutions\System\DEFAULT.lsr

[File Description]


[Configuration]
Instrument Name	C0B7VH3-Instrument1
Instrument #	1
Line #	1
# of Detectors	3
Detector ID	DET#1	DET#2	DET#3
Detector Name	FID	PTCD	ECD
# of Channels	1	1	1

[Peak Table(Ch1)]
# of Peaks	3
Peak#	R.Time	I.Time	F.Time	Area	Height	A/H	Conc.	Mark	ID#	Name	k'	Plate #	Plate Ht.	Tailing	Resolution	Sep.Factor	Area Ratio	Height Ratio	Conc. %	Norm Conc.
1	1.472	1.428	1.531	7890	3917	2.014	0.000	   	1	CO	0.000	9566	15.680	1.339	0.000	0.000	0	0	0.000	0.000
2	1.564	1.531	1.630	4465	2282	1.957	21.768	 V 	2	CH4	0.062	11636	12.891	1.141	1.551	0.000	0	0	4.784	4.784
3	1.989	1.941	2.528	2248146	1080190	2.081	433.259	   	3	CO2	0.351	17593	8.526	1.324	7.211	5.640	0	0	95.216	95.216

[Peak Table(Ch2)]
# of Peaks	0

[Peak Table(Ch3)]
# of Peaks	4
Peak#	R.Time	I.Time	F.Time	Area	Height	A/H	Conc.	Mark	ID#	Name	k'	Plate #	Plate Ht.	Tailing	Resolution	Sep.Factor	Area Ratio	Height Ratio	Conc. %	Norm Conc.
1	2.458	2.396	2.557	877	223	3.927	0.000	   			0.000	12800	11.719	0.000	0.000	0.000	0	0	0.000	0.000
2	2.616	2.557	2.671	319	90	3.530	0.000	 V 			0.064	11386	13.175	0.000	1.705	0.000	0	0	0.000	0.000
3	2.891	2.722	2.979	13948	3784	3.686	0.206	   	1	N2O	0.176	13585	11.042	1.430	2.788	2.744	0	0	100.000	100.000
4	3.049	2.983	3.995	25298	942	26.850	0.000	   	2	SF6	0.240	273	548.873	7.447	0.377	1.364	0	0	0.000	0.000

[Compound Results(Ch1)]
# of IDs	6
ID#	Name	R.Time	Area	Height	Conc.	Curve	3rd	2nd	1st	Constant	Area Ratio	Height Ratio	Conc. %	Norm Conc.
1	CO	1.472	7890	3917	0.000	Linear	0.000000e+00	0.000000e+00	0.000000e+00	0.000000e+00	0	0	0.000	0.000
2	CH4	1.564	4465	2282	21.768	Linear	0.000000e+00	0.000000e+00	2.051179e+002	0.000000e+00	0	0	4.784	4.784
3	CO2	1.989	2248146	1080190	433.259	Linear	0.000000e+00	0.000000e+00	5.188919e+003	0.000000e+00	0	0	95.216	95.216
4	Ethylene	0.000	0	0	0.000	Linear	0.000000e+00	0.000000e+00	0.000000e+00	0.000000e+00	0	0	0.000	0.000
5	Acetylene	0.000	0	0	0.000	Linear	0.000000e+00	0.000000e+00	0.000000e+00	0.000000e+00	0	0	0.000	0.000
6	Ethane	0.000	0	0	0.000	Linear	0.000000e+00	0.000000e+00	0.000000e+00	0.000000e+00	0	0	0.000	0.000

[Compound Results(Ch2)]
# of IDs	5
ID#	Name	R.Time	Area	Height	Conc.	Curve	3rd	2nd	1st	Constant	Area Ratio	Height Ratio	Conc. %	Norm Conc.
1	Hydrogen	0.000	0	0	0.000	Linear	0.000000e+00	0.000000e+00	0.000000e+00	0.000000e+00	0	0	0.000	0.000
2	Oxygen	0.000	0	0	0.000	Linear	0.000000e+00	0.000000e+00	0.000000e+00	0.000000e+00	0	0	0.000	0.000
3	Nitrogen	0.000	0	0	0.000	Linear	0.000000e+00	0.000000e+00	0.000000e+00	0.000000e+00	0	0	0.000	0.000
4	Methane	0.000	0	0	0.000	Linear	0.000000e+00	0.000000e+00	0.000000e+00	0.000000e+00	0	0	0.000	0.000
5	Carbon Monoxide	0.000	0	0	0.000	Linear	0.000000e+00	0.000000e+00	0.000000e+00	0.000000e+00	0	0	0.000	0.000

[Compound Results(Ch3)]
# of IDs	2
ID#	Name	R.Time	Area	Height	Conc.	Curve	3rd	2nd	1st	Constant	Area Ratio	Height Ratio	Conc. %	Norm Conc.
1	N2O	2.891	13948	3784	0.206	Linear	0.000000e+00	0.000000e+00	6.759880e+004	0.000000e+00	0	0	100.000	100.000
2	SF6	3.049	25298	942	0.000	Linear	0.000000e+00	0.000000e+00	0.000000e+00	0.000000e+00	0	0	0.000	0.000

[Group Results(Ch1)]
# of Groups	0

[Group Results(Ch2)]
# of Groups	0

[Group Results(Ch3)]
# of Groups	0

[Chromatogram (Ch1)]
Interval(msec)	220
# of Points	1091
Start Time(min)	0.002
End Time(min)	3.998
R.Time (min)	Intensity
0.00167	17
0.00533	17
0.00900	15
0.01267	10
0.01633	5
0.02000	4
0.02367	6
0.02733	6
0.03100	5
0.03467	3
0.03833	-2
0.04200	-6
0.04567	-8
0.04933	-6
0.05300	-4
0.05667	-5
0.06033	-3
0.06400	2
0.06767	3
0.07133	3
0.07500	4
0.07867	5
0.08233	8
0.08600	8
0.08967	11
0.09333	22
0.09700	38
0.10067	46
0.10433	46
0.10800	42
0.11167	36
0.11533	29
0.11900	22
0.12267	18
0.12633	15
0.13000	14
0.13367	10
0.13733	4
0.14100	1
0.14467	1
0.14833	1
0.15200	1
0.15567	1
0.15933	4
0.16300	8
0.16667	12
0.17033	13
0.17400	11
0.17767	7
0.18133	6
0.18500	6
0.18867	10
0.19233	15
0.19600	19
0.19967	21
0.20333	20
0.20700	16
0.21067	12
0.21433	11
0.21800	11
0.22167	12
0.22533	16
0.22900	22
0.23267	27
0.23633	28
0.24000	28
0.24367	30
0.24733	31
0.25100	29
0.25467	27
0.25833	23
0.26200	21
0.26567	22
0.26933	24
0.27300	26
0.27667	27
0.28033	29
0.28400	31
0.28767	32
0.29133	31
0.29500	30
0.29867	27
0.30233	23
0.30600	22
0.30967	23
0.31333	27
0.31700	33
0.32067	40
0.32433	45
0.32800	49
0.33167	52
0.33533	55
0.33900	60
0.34267	60
0.34633	56
0.35000	54
0.35367	53
0.35733	55
0.36100	55
0.36467	53
0.36833	50
0.37200	48
0.37567	44
0.37933	40
0.38300	39
0.38667	37
0.39033	31
0.39400	25
0.39767	21
0.40133	20
0.40500	21
0.40867	23
0.41233	26
0.41600	27
0.41967	24
0.42333	22
0.42700	21
0.43067	21
0.43433	19
0.43800	15
0.44167	13
0.44533	13
0.44900	15
0.45267	16
0.45633	14
0.46000	8
0.46367	3
0.46733	1
0.47100	2
0.47467	4
0.47833	6
0.48200	9
0.48567	9
0.48933	8
0.49300	8
0.49667	8
0.50033	8
0.50400	8
0.50767	11
0.51133	13
0.51500	14
0.51867	15
0.52233	14
0.52600	13
0.52967	13
0.53333	17
0.53700	21
0.54067	22
0.54433	23
0.54800	22
0.55167	18
0.55533	14
0.55900	11
0.56267	9
0.56633	6
0.57000	5
0.57367	5
0.57733	5
0.58100	6
0.58467	4
0.58833	4
0.59200	6
0.59567	6
0.59933	6
0.60300	8
0.60667	13
0.61033	15
0.61400	15
0.61767	14
0.62133	16
0.62500	17
0.62867	17
0.63233	17
0.63600	19
0.63967	23
0.64333	28
0.64700	29
0.65067	28
0.65433	24
0.65800	23
0.66167	22
0.66533	19
0.66900	17
0.67267	16
0.67633	15
0.68000	16
0.68367	18
0.68733	22
0.69100	29
0.69467	36
0.69833	41
0.70200	38
0.70567	29
0.70933	20
0.71300	15
0.71667	12
0.72033	11
0.72400	13
0.72767	14
0.73133	14
0.73500	13
0.73867	12
0.74233	9
0.74600	6
0.74967	5
0.75333	6
0.75700	8
0.76067	14
0.76433	20
0.76800	23
0.77167	26
0.77533	28
0.77900	28
0.78267	27
0.78633	26
0.79000	26
0.79367	23
0.79733	16
0.80100	12
0.80467	14
0.80833	18
0.81200	24
0.81567	26
0.81933	26
0.82300	26
0.82667	22
0.83033	14
0.83400	5
0.83767	2
0.84133	3
0.84500	8
0.84867	13
0.85233	17
0.85600	17
0.85967	17
0.86333	15
0.86700	14
0.87067	15
0.87433	18
0.87800	23
0.88167	27
0.88533	28
0.88900	28
0.89267	28
0.89633	31
0.90000	37
0.90367	43
0.90733	43
0.91100	39
0.91467	36
0.91833	33
0.92200	30
0.92567	26
0.92933	22
0.93300	19
0.93667	18
0.94033	22
0.94400	26
0.94767	28
0.95133	27
0.95500	27
0.95867	27
0.96233	25
0.96600	22
0.96967	22
0.97333	21
0.97700	20
0.98067	20
0.98433	22
0.98800	24
0.99167	24
0.99533	20
0.99900	19
1.00267	18
1.00633	16
1.01000	14
1.01367	11
1.01733	12
1.02100	15
1.02467	19
1.02833	20
1.03200	21
1.03567	24
1.03933	27
1.04300	29
1.04667	27
1.05033	23
1.05400	20
1.05767	17
1.06133	13
1.06500	7
1.06867	3
1.07233	4
1.07600	10
1.07967	15
1.08333	20
1.08700	26
1.09067	30
1.09433	33
1.09800	35
1.10167	37
1.10533	34
1.10900	27
1.11267	21
1.11633	15
1.12000	9
1.12367	4
1.12733	0
1.13100	-5
1.13467	-7
1.13833	-6
1.14200	-2
1.14567	0
1.14933	2
1.15300	6
1.15667	10
1.16033	15
1.16400	17
1.16767	18
1.17133	16
1.17500	15
1.17867	18
1.18233	21
1.18600	25
1.18967	27
1.19333	27
1.19700	26
1.20067	23
1.20433	19
1.20800	17
1.21167	19
1.21533	24
1.21900	28
1.22267	29
1.22633	27
1.23000	23
1.23367	20
1.23733	16
1.24100	14
1.24467	13
1.24833	11
1.25200	8
1.25567	5
1.25933	3
1.26300	0
1.26667	-1
1.27033	-2
1.27400	-4
1.27767	-7
1.28133	-5
1.28500	0
1.28867	6
1.29233	12
1.29600	15
1.29967	15
1.30333	10
1.30700	7
1.31067	6
1.31433	5
1.31800	3
1.32167	2
1.32533	0
1.32900	0
1.33267	3
1.33633	7
1.34000	10
1.34367	12
1.34733	15
1.35100	16
1.35467	15
1.35833	11
1.36200	5
1.36567	0
1.36933	-0
1.37300	4
1.37667	6
1.38033	6
1.38400	4
1.38767	3
1.39133	5
1.39500	9
1.39867	11
1.40233	10
1.40600	9
1.40967	9
1.41333	7
1.41700	3
1.42067	-2
1.42433	-2
1.42800	3
1.43167	12
1.43533	24
1.43900	37
1.44267	52
1.44633	155
1.45000	520
1.45367	1175
1.45733	1966
1.46100	2719
1.46467	3332
1.46833	3750
1.47200	3919
1.47567	3800
1.47933	3413
1.48300	2853
1.48667	2244
1.49033	1685
1.49400	1227
1.49767	876
1.50133	619
1.50500	436
1.50867	311
1.51233	227
1.51600	173
1.51967	140
1.52333	116
1.52700	100
1.53067	88
1.53433	100
1.53800	192
1.54167	427
1.54533	806
1.54900	1250
1.55267	1668
1.55633	2000
1.56000	2216
1.56367	2283
1.56733	2173
1.57100	1903
1.57467	1537
1.57833	1158
1.58200	829
1.58567	574
1.58933	389
1.59300	262
1.59667	176
1.60033	116
1.60400	75
1.60767	48
1.61133	33
1.61500	25
1.61867	18
1.62233	13
1.62600	7
1.62967	0
1.63333	-5
1.63700	-6
1.64067	-4
1.64433	-1
1.64800	0
1.65167	2
1.65533	2
1.65900	-2
1.66267	-5
1.66633	-6
1.67000	-6
1.67367	-6
1.67733	-3
1.68100	6
1.68467	15
1.68833	18
1.69200	18
1.69567	15
1.69933	8
1.70300	-0
1.70667	-8
1.71033	-13
1.71400	-14
1.71767	-14
1.72133	-17
1.72500	-18
1.72867	-17
1.73233	-15
1.73600	-13
1.73967	-11
1.74333	-8
1.74700	-4
1.75067	-1
1.75433	-1
1.75800	-2
1.76167	-2
1.76533	-1
1.76900	0
1.77267	-0
1.77633	-1
1.78000	-2
1.78367	-0
1.78733	3
1.79100	6
1.79467	6
1.79833	3
1.80200	3
1.80567	5
1.80933	1
1.81300	-6
1.81667	-11
1.82033	-11
1.82400	-10
1.82767	-9
1.83133	-11
1.83500	-11
1.83867	-7
1.84233	1
1.84600	12
1.84967	21
1.85333	26
1.85700	28
1.86067	29
1.86433	24
1.86800	15
1.87167	8
1.87533	5
1.87900	4
1.88267	3
1.88633	2
1.89000	-1
1.89367	-1
1.89733	2
1.90100	5
1.90467	6
1.90833	7
1.91200	9
1.91567	14
1.91933	16
1.92300	14
1.92667	9
1.93033	1
1.93400	-5
1.93767	-7
1.94133	-5
1.94500	15
1.94867	129
1.95233	830
1.95600	4364
1.95967	17723
1.96333	56063
1.96700	140569
1.97067	284588
1.97433	478196
1.97800	689526
1.98167	879577
1.98533	1016482
1.98900	1080223
1.99267	1064464
1.99633	977368
2.00000	839932
2.00367	679622
2.00733	522125
2.01100	384854
2.01467	275241
2.01833	193126
2.02200	134332
2.02567	93509
2.02933	65710
2.03300	46978
2.03667	34393
2.04033	25904
2.04400	20123
2.04767	16120
2.05133	13290
2.05500	11240
2.05867	9721
2.06233	8566
2.06600	7662
2.06967	6935
2.07333	6339
2.07700	5846
2.08067	5433
2.08433	5081
2.08800	4777
2.09167	4507
2.09533	4262
2.09900	4038
2.10267	3830
2.10633	3641
2.11000	3466
2.11367	3304
2.11733	3156
2.12100	3021
2.12467	2898
2.12833	2785
2.13200	2682
2.13567	2584
2.13933	2491
2.14300	2408
2.14667	2331
2.15033	2256
2.15400	2183
2.15767	2116
2.16133	2052
2.16500	1993
2.16867	1936
2.17233	1881
2.17600	1829
2.17967	1778
2.18333	1726
2.18700	1677
2.19067	1634
2.19433	1598
2.19800	1566
2.20167	1533
2.20533	1496
2.20900	1457
2.21267	1418
2.21633	1378
2.22000	1339
2.22367	1302
2.22733	1271
2.23100	1245
2.23467	1220
2.23833	1198
2.24200	1177
2.24567	1158
2.24933	1138
2.25300	1117
2.25667	1095
2.26033	1075
2.26400	1053
2.26767	1028
2.27133	1006
2.27500	988
2.27867	976
2.28233	968
2.28600	957
2.28967	946
2.29333	936
2.29700	925
2.30067	911
2.30433	897
2.30800	883
2.31167	869
2.31533	849
2.31900	829
2.32267	812
2.32633	799
2.33000	787
2.33367	781
2.33733	779
2.34100	775
2.34467	767
2.34833	753
2.35200	738
2.35567	725
2.35933	709
2.36300	690
2.36667	671
2.37033	657
2.37400	651
2.37767	650
2.38133	649
2.38500	645
2.38867	639
2.39233	632
2.39600	628
2.39967	625
2.40333	618
2.40700	609
2.41067	601
2.41433	594
2.41800	587
2.42167	581
2.42533	579
2.42900	578
2.43267	572
2.43633	564
2.44000	554
2.44367	545
2.44733	537
2.45100	531
2.45467	524
2.45833	514
2.46200	503
2.46567	495
2.46933	492
2.47300	490
2.47667	487
2.48033	482
2.48400	473
2.48767	468
2.49133	463
2.49500	459
2.49867	456
2.50233	451
2.50600	446
2.50967	444
2.51333	446
2.51700	447
2.52067	449
2.52433	451
2.52800	451
2.53167	448
2.53533	446
2.53900	442
2.54267	433
2.54633	422
2.55000	411
2.55367	402
2.55733	396
2.56100	391
2.56467	387
2.56833	382
2.57200	376
2.57567	370
2.57933	367
2.58300	365
2.58667	364
2.59033	363
2.59400	360
2.59767	354
2.60133	346
2.60500	339
2.60867	337
2.61233	335
2.61600	331
2.61967	327
2.62333	325
2.62700	326
2.63067	327
2.63433	326
2.63800	326
2.64167	326
2.64533	327
2.64900	328
2.65267	326
2.65633	321
2.66000	316
2.66367	313
2.66733	313
2.67100	311
2.67467	305
2.67833	298
2.68200	294
2.68567	293
2.68933	290
2.69300	286
2.69667	282
2.70033	278
2.70400	276
2.70767	274
2.71133	269
2.71500	265
2.71867	264
2.72233	264
2.72600	264
2.72967	267
2.73333	270
2.73700	273
2.74067	276
2.74433	276
2.74800	274
2.75167	271
2.75533	267
2.75900	265
2.76267	262
2.76633	260
2.77000	260
2.77367	258
2.77733	252
2.78100	244
2.78467	241
2.78833	240
2.79200	238
2.79567	237
2.79933	239
2.80300	242
2.80667	243
2.81033	244
2.81400	242
2.81767	241
2.82133	238
2.82500	235
2.82867	234
2.83233	231
2.83600	223
2.83967	214
2.84333	209
2.84700	207
2.85067	207
2.85433	207
2.85800	203
2.86167	199
2.86533	196
2.86900	193
2.87267	188
2.87633	187
2.88000	189
2.88367	192
2.88733	195
2.89100	197
2.89467	198
2.89833	198
2.90200	195
2.90567	192
2.90933	191
2.91300	194
2.91667	198
2.92033	198
2.92400	196
2.92767	192
2.93133	187
2.93500	185
2.93867	187
2.94233	190
2.94600	192
2.94967	194
2.95333	196
2.95700	196
2.96067	195
2.96433	194
2.96800	191
2.97167	186
2.97533	182
2.97900	178
2.98267	176
2.98633	172
2.99000	167
2.99367	164
2.99733	166
3.00100	170
3.00467	171
3.00833	169
3.01200	166
3.01567	163
3.01933	162
3.02300	164
3.02667	165
3.03033	164
3.03400	162
3.03767	160
3.04133	156
3.04500	152
3.04867	149
3.05233	147
3.05600	148
3.05967	150
3.06333	152
3.06700	155
3.07067	158
3.07433	158
3.07800	155
3.08167	148
3.08533	146
3.08900	148
3.09267	151
3.09633	154
3.10000	156
3.10367	155
3.10733	147
3.11100	138
3.11467	131
3.11833	124
3.12200	120
3.12567	118
3.12933	120
3.13300	123
3.13667	129
3.14033	134
3.14400	139
3.14767	144
3.15133	143
3.15500	138
3.15867	135
3.16233	133
3.16600	132
3.16967	131
3.17333	129
3.17700	127
3.18067	125
3.18433	123
3.18800	118
3.19167	113
3.19533	108
3.19900	104
3.20267	102
3.20633	104
3.21000	108
3.21367	111
3.21733	113
3.22100	116
3.22467	117
3.22833	120
3.23200	124
3.23567	127
3.23933	130
3.24300	130
3.24667	129
3.25033	126
3.25400	119
3.25767	113
3.26133	108
3.26500	105
3.26867	105
3.27233	104
3.27600	103
3.27967	100
3.28333	96
3.28700	92
3.29067	93
3.29433	98
3.29800	101
3.30167	102
3.30533	102
3.30900	104
3.31267	105
3.31633	104
3.32000	100
3.32367	95
3.32733	92
3.33100	92
3.33467	95
3.33833	97
3.34200	100
3.34567	102
3.34933	103
3.35300	106
3.35667	107
3.36033	106
3.36400	103
3.36767	103
3.37133	104
3.37500	105
3.37867	106
3.38233	107
3.38600	106
3.38967	105
3.39333	103
3.39700	102
3.40067	104
3.40433	105
3.40800	103
3.41167	102
3.41533	104
3.41900	105
3.42267	102
3.42633	95
3.43000	89
3.43367	85
3.43733	85
3.44100	90
3.44467	93
3.44833	94
3.45200	94
3.45567	94
3.45933	91
3.46300	84
3.46667	79
3.47033	79
3.47400	85
3.47767	92
3.48133	96
3.48500	96
3.48867	94
3.49233	93
3.49600	93
3.49967	96
3.50333	97
3.50700	97
3.51067	95
3.51433	92
3.51800	90
3.52167	88
3.52533	88
3.52900	89
3.53267	90
3.53633	92
3.54000	91
3.54367	89
3.54733	86
3.55100	83
3.55467	83
3.55833	87
3.56200	93
3.56567	97
3.56933	97
3.57300	95
3.57667	90
3.58033	82
3.58400	75
3.58767	71
3.59133	70
3.59500	70
3.59867	71
3.60233	73
3.60600	74
3.60967	75
3.61333	75
3.61700	75
3.62067	74
3.62433	74
3.62800	74
3.63167	75
3.63533	75
3.63900	72
3.64267	70
3.64633	72
3.65000	74
3.65367	73
3.65733	67
3.66100	60
3.66467	57
3.66833	60
3.67200	62
3.67567	61
3.67933	60
3.68300	59
3.68667	59
3.69033	59
3.69400	58
3.69767	55
3.70133	51
3.70500	45
3.70867	40
3.71233	40
3.71600	44
3.71967	53
3.72333	60
3.72700	65
3.73067	69
3.73433	72
3.73800	73
3.74167	74
3.74533	74
3.74900	73
3.75267	72
3.75633	70
3.76000	68
3.76367	69
3.76733	70
3.77100	72
3.77467	72
3.77833	69
3.78200	62
3.78567	56
3.78933	50
3.79300	46
3.79667	44
3.80033	44
3.80400	44
3.80767	42
3.81133	41
3.81500	40
3.81867	39
3.82233	42
3.82600	47
3.82967	49
3.83333	50
3.83700	48
3.84067	45
3.84433	42
3.84800	41
3.85167	42
3.85533	44
3.85900	42
3.86267	41
3.86633	42
3.87000	44
3.87367	47
3.87733	48
3.88100	47
3.88467	45
3.88833	43
3.89200	44
3.89567	45
3.89933	46
3.90300	45
3.90667	41
3.91033	36
3.91400	32
3.91767	28
3.92133	27
3.92500	27
3.92867	28
3.93233	31
3.93600	32
3.93967	33
3.94333	32
3.94700	32
3.95067	32
3.95433	31
3.95800	29
3.96167	27
3.96533	26
3.96900	28
3.97267	30
3.97633	31
3.98000	34
3.98367	34
3.98733	33
3.99100	33
3.99467	34
3.99833	36

[Chromatogram (Ch2)]
Interval(msec)	220
# of Points	1091
Start Time(min)	0.002
End Time(min)	3.998
R.Time (min)	Intensity
0.00167	1
0.00533	1
0.00900	1
0.01267	1
0.01633	1
0.02000	1
0.02367	0
0.02733	0
0.03100	0
0.03467	0
0.03833	0
0.04200	1
0.04567	1
0.04933	0
0.05300	0
0.05667	0
0.06033	0
0.06400	0
0.06767	0
0.07133	0
0.07500	0
0.07867	0
0.08233	0
0.08600	0
0.08967	0
0.09333	1
0.09700	1
0.10067	1
0.10433	1
0.10800	1
0.11167	1
0.11533	1
0.11900	1
0.12267	1
0.12633	1
0.13000	1
0.13367	0
0.13733	0
0.14100	0
0.14467	0
0.14833	0
0.15200	0
0.15567	0
0.15933	1
0.16300	1
0.16667	1
0.17033	1
0.17400	1
0.17767	1
0.18133	0
0.18500	0
0.18867	-0
0.19233	-0
0.19600	-0
0.19967	-0
0.20333	-1
0.20700	-1
0.21067	-1
0.21433	-1
0.21800	-1
0.22167	-1
0.22533	-1
0.22900	-1
0.23267	-1
0.23633	-1
0.24000	-1
0.24367	-0
0.24733	-0
0.25100	-0
0.25467	-0
0.25833	-0
0.26200	-0
0.26567	-0
0.26933	-0
0.27300	0
0.27667	0
0.28033	0
0.28400	1
0.28767	1
0.29133	0
0.29500	0
0.29867	0
0.30233	0
0.30600	0
0.30967	0
0.31333	0
0.31700	0
0.32067	0
0.32433	0
0.32800	-0
0.33167	-0
0.33533	-0
0.33900	-1
0.34267	-0
0.34633	-0
0.35000	-1
0.35367	-1
0.35733	-1
0.36100	-1
0.36467	-1
0.36833	-1
0.37200	-1
0.37567	-1
0.37933	-1
0.38300	-1
0.38667	-1
0.39033	-1
0.39400	-1
0.39767	-1
0.40133	-1
0.40500	-1
0.40867	-1
0.41233	-1
0.41600	-1
0.41967	-1
0.42333	-1
0.42700	-1
0.43067	-1
0.43433	-1
0.43800	-1
0.44167	-1
0.44533	-1
0.44900	-1
0.45267	-1
0.45633	-1
0.46000	-1
0.46367	-1
0.46733	-1
0.47100	-1
0.47467	-1
0.47833	-1
0.48200	-1
0.48567	-1
0.48933	-1
0.49300	-1
0.49667	-1
0.50033	-1
0.50400	-0
0.50767	-0
0.51133	-0
0.51500	-0
0.51867	-0
0.52233	-1
0.52600	-1
0.52967	-1
0.53333	-1
0.53700	-1
0.54067	-1
0.54433	-1
0.54800	-2
0.55167	-2
0.55533	-2
0.55900	-2
0.56267	-2
0.56633	-2
0.57000	-2
0.57367	-1
0.57733	-1
0.58100	-1
0.58467	-1
0.58833	-1
0.59200	-1
0.59567	-1
0.59933	-1
0.60300	-1
0.60667	-2
0.61033	-2
0.61400	-2
0.61767	-1
0.62133	-1
0.62500	-1
0.62867	-1
0.63233	-1
0.63600	-1
0.63967	-1
0.64333	-1
0.64700	-1
0.65067	-1
0.65433	-1
0.65800	-1
0.66167	-1
0.66533	-1
0.66900	-1
0.67267	-1
0.67633	-1
0.68000	-1
0.68367	-1
0.68733	-1
0.69100	-1
0.69467	-1
0.69833	-1
0.70200	-1
0.70567	-1
0.70933	-1
0.71300	-1
0.71667	-1
0.72033	-1
0.72400	-1
0.72767	-1
0.73133	-1
0.73500	-1
0.73867	-1
0.74233	-1
0.74600	-1
0.74967	-1
0.75333	-1
0.75700	-1
0.76067	-1
0.76433	-2
0.76800	-2
0.77167	-2
0.77533	-2
0.77900	-2
0.78267	-2
0.78633	-2
0.79000	-2
0.79367	-2
0.79733	-3
0.80100	-3
0.80467	-3
0.80833	-3
0.81200	-4
0.81567	-4
0.81933	-4
0.82300	-3
0.82667	-3
0.83033	-3
0.83400	-3
0.83767	-2
0.84133	-2
0.84500	-2
0.84867	-2
0.85233	-2
0.85600	-2
0.85967	-2
0.86333	-2
0.86700	-2
0.87067	-2
0.87433	-2
0.87800	-2
0.88167	-2
0.88533	-2
0.88900	-2
0.89267	-2
0.89633	-2
0.90000	-2
0.90367	-2
0.90733	-1
0.91100	-1
0.91467	-1
0.91833	-2
0.92200	-2
0.92567	-2
0.92933	-2
0.93300	-2
0.93667	-2
0.94033	-2
0.94400	-2
0.94767	-2
0.95133	-2
0.95500	-2
0.95867	-2
0.96233	-1
0.96600	-1
0.96967	-1
0.97333	-1
0.97700	-2
0.98067	-2
0.98433	-2
0.98800	-2
0.99167	-2
0.99533	-2
0.99900	-2
1.00267	-2
1.00633	-2
1.01000	-2
1.01367	-2
1.01733	-2
1.02100	-2
1.02467	-2
1.02833	-2
1.03200	-2
1.03567	-3
1.03933	-3
1.04300	-3
1.04667	-2
1.05033	-2
1.05400	-2
1.05767	-2
1.06133	-2
1.06500	-2
1.06867	-2
1.07233	-1
1.07600	-1
1.07967	-2
1.08333	-2
1.08700	-2
1.09067	-2
1.09433	-2
1.09800	-2
1.10167	-2
1.10533	-2
1.10900	-2
1.11267	-2
1.11633	-2
1.12000	-2
1.12367	-2
1.12733	-2
1.13100	-3
1.13467	-3
1.13833	-3
1.14200	-3
1.14567	-3
1.14933	-3
1.15300	-3
1.15667	-3
1.16033	-3
1.16400	-3
1.16767	-3
1.17133	-3
1.17500	-3
1.17867	-3
1.18233	-3
1.18600	-3
1.18967	-3
1.19333	-3
1.19700	-3
1.20067	-3
1.20433	-3
1.20800	-3
1.21167	-3
1.21533	-3
1.21900	-3
1.22267	-3
1.22633	-3
1.23000	-3
1.23367	-2
1.23733	-2
1.24100	-2
1.24467	-2
1.24833	-2
1.25200	-2
1.25567	-3
1.25933	-3
1.26300	-3
1.26667	-3
1.27033	-3
1.27400	-3
1.27767	-3
1.28133	-3
1.28500	-3
1.28867	-3
1.29233	-3
1.29600	-3
1.29967	-3
1.30333	-3
1.30700	-3
1.31067	-3
1.31433	-3
1.31800	-2
1.32167	-2
1.32533	-2
1.32900	-2
1.33267	-3
1.33633	-3
1.34000	-3
1.34367	-4
1.34733	-4
1.35100	-4
1.35467	-4
1.35833	-3
1.36200	-3
1.36567	-3
1.36933	-2
1.37300	-2
1.37667	-2
1.38033	-2
1.38400	-2
1.38767	-2
1.39133	-3
1.39500	-3
1.39867	-3
1.40233	-3
1.40600	-3
1.40967	-3
1.41333	-3
1.41700	-3
1.42067	-3
1.42433	-3
1.42800	-3
1.43167	-3
1.43533	-3
1.43900	-3
1.44267	-3
1.44633	-3
1.45000	-3
1.45367	-3
1.45733	-3
1.46100	-3
1.46467	-3
1.46833	-2
1.47200	-3
1.47567	-3
1.47933	-3
1.48300	-3
1.48667	-3
1.49033	-3
1.49400	-3
1.49767	-3
1.50133	-3
1.50500	-3
1.50867	-3
1.51233	-3
1.51600	-3
1.51967	-3
1.52333	-3
1.52700	-3
1.53067	-2
1.53433	-2
1.53800	-2
1.54167	-2
1.54533	-2
1.54900	-2
1.55267	-2
1.55633	-2
1.56000	-2
1.56367	-2
1.56733	-3
1.57100	-3
1.57467	-3
1.57833	-3
1.58200	-3
1.58567	-3
1.58933	-4
1.59300	-4
1.59667	-5
1.60033	-5
1.60400	-6
1.60767	-8
1.61133	-9
1.61500	-11
1.61867	-13
1.62233	-15
1.62600	-18
1.62967	-21
1.63333	-24
1.63700	-27
1.64067	-31
1.64433	-34
1.64800	-38
1.65167	-41
1.65533	-44
1.65900	-48
1.66267	-51
1.66633	-55
1.67000	-60
1.67367	-64
1.67733	-68
1.68100	-73
1.68467	-77
1.68833	-81
1.69200	-84
1.69567	-87
1.69933	-89
1.70300	-91
1.70667	-93
1.71033	-94
1.71400	-95
1.71767	-96
1.72133	-97
1.72500	-97
1.72867	-97
1.73233	-96
1.73600	-96
1.73967	-96
1.74333	-95
1.74700	-95
1.75067	-95
1.75433	-95
1.75800	-96
1.76167	-97
1.76533	-97
1.76900	-98
1.77267	-98
1.77633	-99
1.78000	-99
1.78367	-100
1.78733	-100
1.79100	-100
1.79467	-100
1.79833	-100
1.80200	-100
1.80567	-100
1.80933	-101
1.81300	-101
1.81667	-102
1.82033	-102
1.82400	-103
1.82767	-103
1.83133	-103
1.83500	-102
1.83867	-102
1.84233	-101
1.84600	-100
1.84967	-100
1.85333	-100
1.85700	-100
1.86067	-100
1.86433	-100
1.86800	-100
1.87167	-101
1.87533	-101
1.87900	-102
1.88267	-101
1.88633	-101
1.89000	-101
1.89367	-100
1.89733	-99
1.90100	-99
1.90467	-98
1.90833	-98
1.91200	-98
1.91567	-98
1.91933	-97
1.92300	-97
1.92667	-97
1.93033	-97
1.93400	-97
1.93767	-98
1.94133	-98
1.94500	-98
1.94867	-98
1.95233	-98
1.95600	-97
1.95967	-97
1.96333	-96
1.96700	-96
1.97067	-95
1.97433	-95
1.97800	-94
1.98167	-94
1.98533	-94
1.98900	-94
1.99267	-94
1.99633	-94
2.00000	-94
2.00367	-94
2.00733	-94
2.01100	-93
2.01467	-93
2.01833	-93
2.02200	-92
2.02567	-91
2.02933	-90
2.03300	-90
2.03667	-90
2.04033	-89
2.04400	-89
2.04767	-88
2.05133	-88
2.05500	-88
2.05867	-88
2.06233	-88
2.06600	-88
2.06967	-88
2.07333	-88
2.07700	-88
2.08067	-88
2.08433	-87
2.08800	-87
2.09167	-86
2.09533	-86
2.09900	-86
2.10267	-86
2.10633	-86
2.11000	-86
2.11367	-86
2.11733	-86
2.12100	-85
2.12467	-84
2.12833	-84
2.13200	-83
2.13567	-83
2.13933	-82
2.14300	-82
2.14667	-81
2.15033	-80
2.15400	-80
2.15767	-79
2.16133	-79
2.16500	-79
2.16867	-78
2.17233	-78
2.17600	-77
2.17967	-77
2.18333	-76
2.18700	-76
2.19067	-76
2.19433	-76
2.19800	-76
2.20167	-77
2.20533	-77
2.20900	-77
2.21267	-77
2.21633	-77
2.22000	-77
2.22367	-76
2.22733	-76
2.23100	-76
2.23467	-76
2.23833	-76
2.24200	-75
2.24567	-75
2.24933	-75
2.25300	-74
2.25667	-73
2.26033	-73
2.26400	-72
2.26767	-72
2.27133	-71
2.27500	-71
2.27867	-71
2.28233	-71
2.28600	-71
2.28967	-71
2.29333	-71
2.29700	-70
2.30067	-70
2.30433	-69
2.30800	-69
2.31167	-68
2.31533	-67
2.31900	-67
2.32267	-67
2.32633	-67
2.33000	-67
2.33367	-68
2.33733	-68
2.34100	-67
2.34467	-67
2.34833	-66
2.35200	-65
2.35567	-64
2.35933	-62
2.36300	-61
2.36667	-59
2.37033	-57
2.37400	-54
2.37767	-51
2.38133	-48
2.38500	-44
2.38867	-40
2.39233	-36
2.39600	-31
2.39967	-27
2.40333	-23
2.40700	-19
2.41067	-16
2.41433	-12
2.41800	-9
2.42167	-7
2.42533	-5
2.42900	-3
2.43267	-1
2.43633	1
2.44000	2
2.44367	3
2.44733	5
2.45100	6
2.45467	7
2.45833	8
2.46200	10
2.46567	11
2.46933	12
2.47300	13
2.47667	13
2.48033	14
2.48400	14
2.48767	14
2.49133	14
2.49500	14
2.49867	15
2.50233	15
2.50600	16
2.50967	16
2.51333	16
2.51700	16
2.52067	17
2.52433	17
2.52800	17
2.53167	17
2.53533	18
2.53900	18
2.54267	18
2.54633	18
2.55000	17
2.55367	17
2.55733	16
2.56100	15
2.56467	14
2.56833	13
2.57200	12
2.57567	12
2.57933	12
2.58300	12
2.58667	13
2.59033	13
2.59400	13
2.59767	13
2.60133	14
2.60500	14
2.60867	15
2.61233	15
2.61600	16
2.61967	17
2.62333	17
2.62700	18
2.63067	18
2.63433	18
2.63800	18
2.64167	18
2.64533	19
2.64900	19
2.65267	19
2.65633	19
2.66000	19
2.66367	20
2.66733	20
2.67100	21
2.67467	21
2.67833	22
2.68200	22
2.68567	22
2.68933	23
2.69300	23
2.69667	24
2.70033	24
2.70400	25
2.70767	25
2.71133	26
2.71500	26
2.71867	26
2.72233	26
2.72600	26
2.72967	26
2.73333	26
2.73700	25
2.74067	25
2.74433	25
2.74800	25
2.75167	25
2.75533	26
2.75900	26
2.76267	26
2.76633	27
2.77000	27
2.77367	27
2.77733	28
2.78100	28
2.78467	28
2.78833	29
2.79200	29
2.79567	29
2.79933	29
2.80300	29
2.80667	29
2.81033	29
2.81400	29
2.81767	29
2.82133	29
2.82500	29
2.82867	29
2.83233	29
2.83600	29
2.83967	29
2.84333	29
2.84700	28
2.85067	28
2.85433	28
2.85800	26
2.86167	24
2.86533	20
2.86900	13
2.87267	2
2.87633	-12
2.88000	-32
2.88367	-56
2.88733	-86
2.89100	-121
2.89467	-162
2.89833	-207
2.90200	-258
2.90567	-312
2.90933	-370
2.91300	-431
2.91667	-495
2.92033	-559
2.92400	-624
2.92767	-689
2.93133	-752
2.93500	-812
2.93867	-869
2.94233	-923
2.94600	-978
2.94967	-1033
2.95333	-1081
2.95700	-1113
2.96067	-1122
2.96433	-1105
2.96800	-1065
2.97167	-1007
2.97533	-936
2.97900	-857
2.98267	-775
2.98633	-694
2.99000	-616
2.99367	-542
2.99733	-474
3.00100	-412
3.00467	-356
3.00833	-307
3.01200	-263
3.01567	-224
3.01933	-191
3.02300	-161
3.02667	-136
3.03033	-114
3.03400	-95
3.03767	-79
3.04133	-65
3.04500	-53
3.04867	-43
3.05233	-34
3.05600	-27
3.05967	-21
3.06333	-15
3.06700	-11
3.07067	-7
3.07433	-3
3.07800	-0
3.08167	3
3.08533	5
3.08900	7
3.09267	9
3.09633	10
3.10000	11
3.10367	12
3.10733	13
3.11100	14
3.11467	15
3.11833	15
3.12200	16
3.12567	16
3.12933	17
3.13300	17
3.13667	17
3.14033	18
3.14400	18
3.14767	18
3.15133	19
3.15500	19
3.15867	20
3.16233	20
3.16600	20
3.16967	21
3.17333	21
3.17700	22
3.18067	22
3.18433	22
3.18800	23
3.19167	23
3.19533	23
3.19900	23
3.20267	23
3.20633	23
3.21000	23
3.21367	23
3.21733	23
3.22100	23
3.22467	23
3.22833	24
3.23200	24
3.23567	24
3.23933	24
3.24300	24
3.24667	24
3.25033	24
3.25400	24
3.25767	24
3.26133	24
3.26500	25
3.26867	25
3.27233	26
3.27600	26
3.27967	26
3.28333	26
3.28700	27
3.29067	27
3.29433	27
3.29800	27
3.30167	27
3.30533	27
3.30900	27
3.31267	28
3.31633	28
3.32000	27
3.32367	27
3.32733	27
3.33100	27
3.33467	28
3.33833	28
3.34200	28
3.34567	28
3.34933	28
3.35300	28
3.35667	28
3.36033	28
3.36400	28
3.36767	28
3.37133	28
3.37500	28
3.37867	29
3.38233	29
3.38600	29
3.38967	29
3.39333	29
3.39700	29
3.40067	29
3.40433	29
3.40800	29
3.41167	29
3.41533	30
3.41900	30
3.42267	30
3.42633	30
3.43000	30
3.43367	30
3.43733	30
3.44100	30
3.44467	30
3.44833	29
3.45200	29
3.45567	29
3.45933	29
3.46300	29
3.46667	29
3.47033	29
3.47400	29
3.47767	29
3.48133	29
3.48500	29
3.48867	29
3.49233	29
3.49600	29
3.49967	29
3.50333	29
3.50700	29
3.51067	29
3.51433	29
3.51800	29
3.52167	29
3.52533	28
3.52900	28
3.53267	28
3.53633	29
3.54000	29
3.54367	29
3.54733	29
3.55100	29
3.55467	29
3.55833	30
3.56200	30
3.56567	30
3.56933	30
3.57300	30
3.57667	30
3.58033	30
3.58400	29
3.58767	29
3.59133	29
3.59500	29
3.59867	29
3.60233	29
3.60600	29
3.60967	29
3.61333	29
3.61700	29
3.62067	29
3.62433	29
3.62800	29
3.63167	29
3.63533	29
3.63900	29
3.64267	29
3.64633	29
3.65000	29
3.65367	29
3.65733	29
3.66100	29
3.66467	29
3.66833	29
3.67200	29
3.67567	29
3.67933	29
3.68300	29
3.68667	29
3.69033	30
3.69400	30
3.69767	30
3.70133	30
3.70500	30
3.70867	30
3.71233	30
3.71600	30
3.71967	30
3.72333	29
3.72700	29
3.73067	29
3.73433	29
3.73800	29
3.74167	29
3.74533	30
3.74900	30
3.75267	29
3.75633	29
3.76000	29
3.76367	29
3.76733	29
3.77100	30
3.77467	30
3.77833	30
3.78200	30
3.78567	30
3.78933	30
3.79300	30
3.79667	30
3.80033	30
3.80400	30
3.80767	30
3.81133	30
3.81500	29
3.81867	29
3.82233	29
3.82600	28
3.82967	28
3.83333	28
3.83700	28
3.84067	29
3.84433	29
3.84800	29
3.85167	29
3.85533	29
3.85900	29
3.86267	29
3.86633	29
3.87000	29
3.87367	30
3.87733	30
3.88100	30
3.88467	30
3.88833	30
3.89200	30
3.89567	30
3.89933	30
3.90300	30
3.90667	30
3.91033	30
3.91400	30
3.91767	30
3.92133	31
3.92500	31
3.92867	31
3.93233	31
3.93600	31
3.93967	31
3.94333	31
3.94700	31
3.95067	31
3.95433	30
3.95800	30
3.96167	30
3.96533	30
3.96900	30
3.97267	30
3.97633	30
3.98000	30
3.98367	30
3.98733	30
3.99100	30
3.99467	30
3.99833	30

[Chromatogram (Ch3)]
Interval(msec)	220
# of Points	1091
Start Time(min)	0.002
End Time(min)	3.998
R.Time (min)	Intensity
0.00167	-2
0.00533	-4
0.00900	-3
0.01267	-4
0.01633	-5
0.02000	-3
0.02367	-0
0.02733	-1
0.03100	-1
0.03467	-3
0.03833	-6
0.04200	-5
0.04567	-4
0.04933	-5
0.05300	-3
0.05667	-1
0.06033	2
0.06400	4
0.06767	5
0.07133	5
0.07500	2
0.07867	-1
0.08233	-2
0.08600	-2
0.08967	-1
0.09333	0
0.09700	1
0.10067	-1
0.10433	-1
0.10800	-1
0.11167	-2
0.11533	-5
0.11900	-5
0.12267	-3
0.12633	-3
0.13000	-2
0.13367	-2
0.13733	-2
0.14100	-0
0.14467	0
0.14833	-1
0.15200	1
0.15567	4
0.15933	6
0.16300	6
0.16667	7
0.17033	5
0.17400	1
0.17767	-1
0.18133	-1
0.18500	-2
0.18867	-3
0.19233	-2
0.19600	-1
0.19967	-0
0.20333	3
0.20700	4
0.21067	5
0.21433	7
0.21800	8
0.22167	6
0.22533	5
0.22900	2
0.23267	2
0.23633	0
0.24000	3
0.24367	8
0.24733	9
0.25100	7
0.25467	4
0.25833	4
0.26200	2
0.26567	3
0.26933	5
0.27300	5
0.27667	8
0.28033	10
0.28400	9
0.28767	5
0.29133	5
0.29500	5
0.29867	5
0.30233	3
0.30600	3
0.30967	4
0.31333	4
0.31700	4
0.32067	2
0.32433	2
0.32800	4
0.33167	5
0.33533	4
0.33900	3
0.34267	3
0.34633	2
0.35000	1
0.35367	0
0.35733	1
0.36100	2
0.36467	2
0.36833	5
0.37200	7
0.37567	8
0.37933	10
0.38300	8
0.38667	5
0.39033	3
0.39400	2
0.39767	-0
0.40133	0
0.40500	-1
0.40867	-2
0.41233	-3
0.41600	-1
0.41967	4
0.42333	5
0.42700	5
0.43067	6
0.43433	4
0.43800	2
0.44167	1
0.44533	2
0.44900	2
0.45267	3
0.45633	3
0.46000	5
0.46367	8
0.46733	8
0.47100	7
0.47467	6
0.47833	4
0.48200	4
0.48567	5
0.48933	6
0.49300	6
0.49667	4
0.50033	3
0.50400	0
0.50767	-0
0.51133	-1
0.51500	-1
0.51867	-2
0.52233	-2
0.52600	-1
0.52967	1
0.53333	3
0.53700	6
0.54067	9
0.54433	8
0.54800	6
0.55167	5
0.55533	4
0.55900	1
0.56267	-0
0.56633	1
0.57000	3
0.57367	3
0.57733	2
0.58100	-0
0.58467	-2
0.58833	-1
0.59200	0
0.59567	3
0.59933	4
0.60300	5
0.60667	6
0.61033	9
0.61400	12
0.61767	13
0.62133	9
0.62500	8
0.62867	11
0.63233	9
0.63600	7
0.63967	5
0.64333	4
0.64700	5
0.65067	7
0.65433	7
0.65800	5
0.66167	3
0.66533	3
0.66900	9
0.67267	13
0.67633	15
0.68000	13
0.68367	11
0.68733	11
0.69100	13
0.69467	12
0.69833	9
0.70200	5
0.70567	4
0.70933	4
0.71300	3
0.71667	1
0.72033	0
0.72400	-0
0.72767	2
0.73133	5
0.73500	7
0.73867	8
0.74233	9
0.74600	10
0.74967	11
0.75333	11
0.75700	10
0.76067	7
0.76433	6
0.76800	7
0.77167	5
0.77533	4
0.77900	3
0.78267	1
0.78633	1
0.79000	0
0.79367	3
0.79733	6
0.80100	6
0.80467	7
0.80833	6
0.81200	7
0.81567	6
0.81933	4
0.82300	2
0.82667	3
0.83033	5
0.83400	7
0.83767	10
0.84133	11
0.84500	9
0.84867	8
0.85233	6
0.85600	4
0.85967	1
0.86333	0
0.86700	1
0.87067	3
0.87433	2
0.87800	1
0.88167	-1
0.88533	-1
0.88900	2
0.89267	3
0.89633	3
0.90000	3
0.90367	5
0.90733	7
0.91100	7
0.91467	4
0.91833	3
0.92200	2
0.92567	4
0.92933	6
0.93300	6
0.93667	9
0.94033	11
0.94400	10
0.94767	8
0.95133	6
0.95500	7
0.95867	9
0.96233	9
0.96600	10
0.96967	10
0.97333	9
0.97700	8
0.98067	8
0.98433	9
0.98800	12
0.99167	12
0.99533	13
0.99900	14
1.00267	17
1.00633	15
1.01000	11
1.01367	7
1.01733	7
1.02100	7
1.02467	6
1.02833	8
1.03200	10
1.03567	13
1.03933	14
1.04300	13
1.04667	12
1.05033	11
1.05400	12
1.05767	13
1.06133	12
1.06500	12
1.06867	13
1.07233	13
1.07600	14
1.07967	13
1.08333	13
1.08700	13
1.09067	13
1.09433	14
1.09800	14
1.10167	15
1.10533	15
1.10900	14
1.11267	13
1.11633	12
1.12000	13
1.12367	14
1.12733	15
1.13100	15
1.13467	13
1.13833	11
1.14200	12
1.14567	14
1.14933	12
1.15300	13
1.15667	15
1.16033	17
1.16400	16
1.16767	14
1.17133	11
1.17500	8
1.17867	7
1.18233	8
1.18600	9
1.18967	11
1.19333	13
1.19700	15
1.20067	14
1.20433	12
1.20800	13
1.21167	14
1.21533	13
1.21900	11
1.22267	11
1.22633	13
1.23000	13
1.23367	15
1.23733	14
1.24100	12
1.24467	13
1.24833	13
1.25200	16
1.25567	16
1.25933	16
1.26300	15
1.26667	14
1.27033	14
1.27400	16
1.27767	16
1.28133	15
1.28500	14
1.28867	15
1.29233	15
1.29600	15
1.29967	16
1.30333	15
1.30700	14
1.31067	11
1.31433	10
1.31800	12
1.32167	15
1.32533	15
1.32900	12
1.33267	11
1.33633	13
1.34000	14
1.34367	14
1.34733	13
1.35100	14
1.35467	18
1.35833	20
1.36200	19
1.36567	18
1.36933	15
1.37300	14
1.37667	13
1.38033	12
1.38400	10
1.38767	9
1.39133	11
1.39500	12
1.39867	12
1.40233	11
1.40600	10
1.40967	10
1.41333	10
1.41700	12
1.42067	12
1.42433	11
1.42800	10
1.43167	11
1.43533	14
1.43900	13
1.44267	13
1.44633	12
1.45000	10
1.45367	9
1.45733	9
1.46100	10
1.46467	10
1.46833	11
1.47200	13
1.47567	15
1.47933	16
1.48300	16
1.48667	15
1.49033	15
1.49400	15
1.49767	14
1.50133	15
1.50500	17
1.50867	18
1.51233	17
1.51600	12
1.51967	8
1.52333	9
1.52700	10
1.53067	10
1.53433	9
1.53800	10
1.54167	11
1.54533	10
1.54900	12
1.55267	14
1.55633	14
1.56000	16
1.56367	18
1.56733	17
1.57100	17
1.57467	17
1.57833	14
1.58200	12
1.58567	11
1.58933	11
1.59300	12
1.59667	13
1.60033	11
1.60400	8
1.60767	8
1.61133	10
1.61500	12
1.61867	14
1.62233	18
1.62600	24
1.62967	26
1.63333	23
1.63700	22
1.64067	22
1.64433	23
1.64800	23
1.65167	21
1.65533	21
1.65900	21
1.66267	23
1.66633	25
1.67000	25
1.67367	24
1.67733	23
1.68100	21
1.68467	19
1.68833	17
1.69200	16
1.69567	15
1.69933	18
1.70300	18
1.70667	17
1.71033	18
1.71400	20
1.71767	23
1.72133	26
1.72500	27
1.72867	26
1.73233	24
1.73600	21
1.73967	17
1.74333	13
1.74700	16
1.75067	17
1.75433	19
1.75800	24
1.76167	30
1.76533	30
1.76900	29
1.77267	28
1.77633	25
1.78000	24
1.78367	23
1.78733	21
1.79100	22
1.79467	22
1.79833	25
1.80200	27
1.80567	30
1.80933	32
1.81300	31
1.81667	31
1.82033	32
1.82400	30
1.82767	28
1.83133	27
1.83500	28
1.83867	28
1.84233	27
1.84600	24
1.84967	24
1.85333	25
1.85700	27
1.86067	28
1.86433	31
1.86800	33
1.87167	34
1.87533	34
1.87900	33
1.88267	29
1.88633	27
1.89000	26
1.89367	24
1.89733	24
1.90100	28
1.90467	27
1.90833	28
1.91200	32
1.91567	34
1.91933	34
1.92300	34
1.92667	32
1.93033	30
1.93400	27
1.93767	27
1.94133	31
1.94500	34
1.94867	35
1.95233	36
1.95600	38
1.95967	39
1.96333	38
1.96700	39
1.97067	39
1.97433	37
1.97800	36
1.98167	39
1.98533	40
1.98900	40
1.99267	38
1.99633	36
2.00000	37
2.00367	36
2.00733	37
2.01100	40
2.01467	44
2.01833	49
2.02200	52
2.02567	53
2.02933	51
2.03300	51
2.03667	51
2.04033	53
2.04400	51
2.04767	48
2.05133	50
2.05500	52
2.05867	52
2.06233	52
2.06600	50
2.06967	49
2.07333	50
2.07700	51
2.08067	54
2.08433	59
2.08800	59
2.09167	58
2.09533	57
2.09900	58
2.10267	58
2.10633	58
2.11000	61
2.11367	62
2.11733	61
2.12100	60
2.12467	58
2.12833	57
2.13200	58
2.13567	60
2.13933	62
2.14300	63
2.14667	63
2.15033	63
2.15400	65
2.15767	66
2.16133	69
2.16500	71
2.16867	72
2.17233	70
2.17600	70
2.17967	69
2.18333	65
2.18700	65
2.19067	66
2.19433	67
2.19800	67
2.20167	67
2.20533	70
2.20900	74
2.21267	77
2.21633	80
2.22000	83
2.22367	82
2.22733	79
2.23100	78
2.23467	79
2.23833	81
2.24200	81
2.24567	82
2.24933	81
2.25300	78
2.25667	79
2.26033	81
2.26400	80
2.26767	82
2.27133	83
2.27500	85
2.27867	86
2.28233	87
2.28600	88
2.28967	89
2.29333	90
2.29700	90
2.30067	91
2.30433	89
2.30800	88
2.31167	89
2.31533	92
2.31900	93
2.32267	94
2.32633	94
2.33000	95
2.33367	95
2.33733	95
2.34100	96
2.34467	98
2.34833	99
2.35200	100
2.35567	102
2.35933	104
2.36300	103
2.36667	100
2.37033	96
2.37400	96
2.37767	97
2.38133	98
2.38500	95
2.38867	88
2.39233	87
2.39600	94
2.39967	102
2.40333	109
2.40700	114
2.41067	116
2.41433	118
2.41800	120
2.42167	121
2.42533	125
2.42900	126
2.43267	125
2.43633	124
2.44000	131
2.44367	168
2.44733	228
2.45100	279
2.45467	309
2.45833	313
2.46200	301
2.46567	288
2.46933	279
2.47300	273
2.47667	262
2.48033	244
2.48400	225
2.48767	208
2.49133	194
2.49500	184
2.49867	178
2.50233	178
2.50600	178
2.50967	183
2.51333	185
2.51700	185
2.52067	184
2.52433	180
2.52800	175
2.53167	164
2.53533	154
2.53900	145
2.54267	134
2.54633	125
2.55000	119
2.55367	113
2.55733	112
2.56100	113
2.56467	116
2.56833	120
2.57200	118
2.57567	117
2.57933	119
2.58300	122
2.58667	125
2.59033	129
2.59400	136
2.59767	144
2.60133	150
2.60500	156
2.60867	164
2.61233	169
2.61600	169
2.61967	166
2.62333	160
2.62700	150
2.63067	141
2.63433	134
2.63800	124
2.64167	114
2.64533	106
2.64900	99
2.65267	94
2.65633	89
2.66000	83
2.66367	80
2.66733	77
2.67100	74
2.67467	74
2.67833	72
2.68200	72
2.68567	73
2.68933	70
2.69300	71
2.69667	69
2.70033	69
2.70400	69
2.70767	67
2.71133	65
2.71500	66
2.71867	67
2.72233	70
2.72600	72
2.72967	72
2.73333	75
2.73700	80
2.74067	81
2.74433	83
2.74800	84
2.75167	83
2.75533	81
2.75900	82
2.76267	86
2.76633	90
2.77000	95
2.77367	101
2.77733	106
2.78100	110
2.78467	117
2.78833	122
2.79200	124
2.79567	125
2.79933	127
2.80300	128
2.80667	129
2.81033	132
2.81400	136
2.81767	136
2.82133	138
2.82500	139
2.82867	138
2.83233	141
2.83600	145
2.83967	158
2.84333	194
2.84700	262
2.85067	378
2.85433	558
2.85800	815
2.86167	1156
2.86533	1569
2.86900	2028
2.87267	2502
2.87633	2949
2.88000	3337
2.88367	3628
2.88733	3805
2.89100	3862
2.89467	3813
2.89833	3678
2.90200	3479
2.90567	3236
2.90933	2968
2.91300	2691
2.91667	2420
2.92033	2161
2.92400	1919
2.92767	1698
2.93133	1498
2.93500	1322
2.93867	1168
2.94233	1031
2.94600	907
2.94967	799
2.95333	706
2.95700	626
2.96067	557
2.96433	497
2.96800	434
2.97167	310
2.97533	166
2.97900	82
2.98267	78
2.98633	140
2.99000	242
2.99367	363
2.99733	485
3.00100	596
3.00467	691
3.00833	773
3.01200	839
3.01567	893
3.01933	936
3.02300	970
3.02667	996
3.03033	1016
3.03400	1028
3.03767	1036
3.04133	1041
3.04500	1043
3.04867	1047
3.05233	1047
3.05600	1047
3.05967	1045
3.06333	1041
3.06700	1037
3.07067	1037
3.07433	1034
3.07800	1027
3.08167	1018
3.08533	1013
3.08900	1009
3.09267	1005
3.09633	1001
3.10000	998
3.10367	997
3.10733	994
3.11100	993
3.11467	993
3.11833	989
3.12200	984
3.12567	981
3.12933	978
3.13300	972
3.13667	965
3.14033	960
3.14400	955
3.14767	952
3.15133	950
3.15500	947
3.15867	944
3.16233	940
3.16600	935
3.16967	931
3.17333	928
3.17700	927
3.18067	923
3.18433	921
3.18800	917
3.19167	910
3.19533	903
3.19900	896
3.20267	890
3.20633	885
3.21000	879
3.21367	874
3.21733	872
3.22100	869
3.22467	861
3.22833	856
3.23200	853
3.23567	852
3.23933	850
3.24300	847
3.24667	843
3.25033	839
3.25400	833
3.25767	829
3.26133	825
3.26500	822
3.26867	818
3.27233	814
3.27600	814
3.27967	812
3.28333	809
3.28700	806
3.29067	805
3.29433	802
3.29800	800
3.30167	793
3.30533	788
3.30900	783
3.31267	782
3.31633	781
3.32000	781
3.32367	779
3.32733	777
3.33100	774
3.33467	772
3.33833	770
3.34200	767
3.34567	766
3.34933	764
3.35300	761
3.35667	757
3.36033	752
3.36400	748
3.36767	747
3.37133	749
3.37500	749
3.37867	747
3.38233	747
3.38600	746
3.38967	746
3.39333	744
3.39700	739
3.40067	737
3.40433	738
3.40800	737
3.41167	735
3.41533	733
3.41900	731
3.42267	729
3.42633	725
3.43000	722
3.43367	719
3.43733	713
3.44100	712
3.44467	714
3.44833	712
3.45200	709
3.45567	704
3.45933	700
3.46300	697
3.46667	692
3.47033	689
3.47400	686
3.47767	686
3.48133	685
3.48500	680
3.48867	677
3.49233	678
3.49600	676
3.49967	672
3.50333	667
3.50700	660
3.51067	653
3.51433	649
3.51800	648
3.52167	648
3.52533	648
3.52900	646
3.53267	642
3.53633	639
3.54000	635
3.54367	632
3.54733	629
3.55100	626
3.55467	625
3.55833	627
3.56200	627
3.56567	627
3.56933	623
3.57300	617
3.57667	613
3.58033	611
3.58400	610
3.58767	608
3.59133	607
3.59500	605
3.59867	604
3.60233	602
3.60600	599
3.60967	597
3.61333	596
3.61700	594
3.62067	588
3.62433	585
3.62800	587
3.63167	588
3.63533	589
3.63900	588
3.64267	587
3.64633	584
3.65000	581
3.65367	579
3.65733	576
3.66100	571
3.66467	569
3.66833	570
3.67200	571
3.67567	571
3.67933	569
3.68300	568
3.68667	568
3.69033	571
3.69400	570
3.69767	569
3.70133	569
3.70500	567
3.70867	568
3.71233	570
3.71600	571
3.71967	570
3.72333	567
3.72700	566
3.73067	566
3.73433	565
3.73800	564
3.74167	563
3.74533	561
3.74900	560
3.75267	563
3.75633	565
3.76000	564
3.76367	562
3.76733	559
3.77100	555
3.77467	552
3.77833	550
3.78200	548
3.78567	548
3.78933	548
3.79300	547
3.79667	544
3.80033	543
3.80400	542
3.80767	541
3.81133	539
3.81500	538
3.81867	535
3.82233	533
3.82600	533
3.82967	531
3.83333	529
3.83700	526
3.84067	526
3.84433	528
3.84800	529
3.85167	528
3.85533	528
3.85900	526
3.86267	525
3.86633	523
3.87000	518
3.87367	516
3.87733	516
3.88100	518
3.88467	518
3.88833	517
3.89200	517
3.89567	516
3.89933	516
3.90300	516
3.90667	515
3.91033	516
3.91400	513
3.91767	507
3.92133	505
3.92500	504
3.92867	504
3.93233	504
3.93600	502
3.93967	500
3.94333	500
3.94700	502
3.95067	502
3.95433	500
3.95800	500
3.96167	495
3.96533	491
3.96900	491
3.97267	492
3.97633	493
3.98000	491
3.98367	488
3.98733	486
3.99100	486
3.99467	484
3.99833	479

[Status Trace (Column Oven Temperature)]
Interval(msec)	1000
# of Points	240
Start Time(min)	0.009
End Time(min)	3.993
Intensity Units	
Intensity Multiplier	1
R.Time (min)	Intensity
0.00930	35.03
0.02597	35.03
0.04263	35.03
0.05930	35.03
0.07597	35.03
0.09263	35.03
0.10930	35.03
0.12597	35.02
0.14263	35.03
0.15930	35.03
0.17597	35.02
0.19263	35.03
0.20930	35.03
0.22597	35.02
0.24263	35.02
0.25930	35.02
0.27597	35.01
0.29263	35.00
0.30930	35.00
0.32597	35.00
0.34263	35.01
0.35930	35.00
0.37597	35.00
0.39263	35.01
0.40930	35.01
0.42597	35.01
0.44263	35.01
0.45930	35.01
0.47597	35.01
0.49263	35.01
0.50930	35.00
0.52597	35.00
0.54263	35.00
0.55930	35.00
0.57597	35.00
0.59263	35.00
0.60930	35.00
0.62597	35.01
0.64263	35.01
0.65930	35.01
0.67597	35.00
0.69263	35.00
0.70930	35.00
0.72597	34.99
0.74263	34.99
0.75930	34.99
0.77597	35.00
0.79263	35.00
0.80930	35.00
0.82597	35.00
0.84263	35.01
0.85930	35.01
0.87597	35.01
0.89263	35.01
0.90930	35.00
0.92597	35.00
0.94263	35.00
0.95930	34.99
0.97597	35.00
0.99263	35.00
1.00930	35.00
1.02597	34.99
1.04263	35.00
1.05930	34.99
1.07597	34.99
1.09263	34.99
1.10930	34.98
1.12597	34.98
1.14263	34.99
1.15930	34.99
1.17597	34.99
1.19263	34.99
1.20930	35.00
1.22597	35.00
1.24263	35.00
1.25930	35.01
1.27597	35.01
1.29263	35.00
1.30930	35.00
1.32597	35.01
1.34263	35.00
1.35930	35.00
1.37597	34.99
1.39263	34.99
1.40930	34.99
1.42597	34.99
1.44263	35.00
1.45930	35.00
1.47597	35.00
1.49263	34.99
1.50930	34.98
1.52597	34.99
1.54263	34.99
1.55930	34.99
1.57597	34.99
1.59263	35.00
1.60930	35.06
1.62597	35.18
1.64263	35.37
1.65930	35.62
1.67597	35.97
1.69263	36.34
1.70930	36.70
1.72597	37.03
1.74263	37.34
1.75930	37.68
1.77597	38.03
1.79263	38.34
1.80930	38.69
1.82597	39.03
1.84263	39.34
1.85930	39.66
1.87597	40.01
1.89263	40.34
1.90930	40.67
1.92597	40.98
1.94263	41.32
1.95930	41.63
1.97597	41.96
1.99263	42.29
2.00930	42.63
2.02597	42.94
2.04263	43.26
2.05930	43.59
2.07597	43.93
2.09263	44.23
2.10930	44.59
2.12597	44.90
2.14263	45.23
2.15930	45.55
2.17597	45.86
2.19263	46.19
2.20930	46.55
2.22597	46.88
2.24263	47.21
2.25930	47.54
2.27597	47.86
2.29263	48.21
2.30930	48.52
2.32597	48.88
2.34263	49.18
2.35930	49.45
2.37597	49.61
2.39263	49.67
2.40930	49.66
2.42597	49.67
2.44263	49.68
2.45930	49.68
2.47597	49.69
2.49263	49.71
2.50930	49.73
2.52597	49.74
2.54263	49.75
2.55930	49.77
2.57597	49.79
2.59263	49.81
2.60930	49.81
2.62597	49.81
2.64263	49.83
2.65930	49.85
2.67597	49.85
2.69263	49.85
2.70930	49.84
2.72597	49.86
2.74263	49.89
2.75930	49.88
2.77597	49.88
2.79263	49.88
2.80930	49.87
2.82597	49.88
2.84263	49.90
2.85930	49.91
2.87597	49.91
2.89263	49.93
2.90930	49.94
2.92597	49.95
2.94263	49.96
2.95930	49.97
2.97597	49.98
2.99263	49.98
3.00930	50.00
3.02597	50.01
3.04263	50.01
3.05930	50.02
3.07597	50.03
3.09263	50.03
3.10930	50.04
3.12597	50.05
3.14263	50.06
3.15930	50.07
3.17597	50.07
3.19263	50.08
3.20930	50.09
3.22597	50.10
3.24263	50.10
3.25930	50.10
3.27597	50.10
3.29263	50.09
3.30930	50.08
3.32597	50.07
3.34263	50.07
3.35930	50.07
3.37597	50.07
3.39263	50.07
3.40930	50.06
3.42597	50.06
3.44263	50.06
3.45930	50.07
3.47597	50.07
3.49263	50.06
3.50930	50.06
3.52597	50.07
3.54263	50.07
3.55930	50.06
3.57597	50.07
3.59263	50.07
3.60930	50.07
3.62597	50.07
3.64263	50.08
3.65930	50.08
3.67597	50.08
3.69263	50.07
3.70930	50.08
3.72597	50.08
3.74263	50.08
3.75930	50.08
3.77597	50.07
3.79263	50.07
3.80930	50.08
3.82597	50.08
3.84263	50.08
3.85930	50.08
3.87597	50.08
3.89263	50.07
3.90930	50.06
3.92597	50.06
3.94263	50.06
3.95930	50.06
3.97597	50.06
3.99263	50.06

[Status Trace (Injection Unit Temperature)]
Interval(msec)	1000
# of Points	240
Start Time(min)	0.009
End Time(min)	3.993
Intensity Units	
Intensity Multiplier	1
R.Time (min)	Intensity
0.00930	99.97
0.02597	99.97
0.04263	99.98
0.05930	99.97
0.07597	99.98
0.09263	99.98
0.10930	99.98
0.12597	99.98
0.14263	99.98
0.15930	99.98
0.17597	99.98
0.19263	99.98
0.20930	99.98
0.22597	99.98
0.24263	99.98
0.25930	99.98
0.27597	99.98
0.29263	99.98
0.30930	99.98
0.32597	99.98
0.34263	99.98
0.35930	99.98
0.37597	99.98
0.39263	99.99
0.40930	99.98
0.42597	99.98
0.44263	99.98
0.45930	99.98
0.47597	99.98
0.49263	99.98
0.50930	99.98
0.52597	99.98
0.54263	99.98
0.55930	99.98
0.57597	99.98
0.59263	99.98
0.60930	99.98
0.62597	99.98
0.64263	99.98
0.65930	99.98
0.67597	99.98
0.69263	99.98
0.70930	99.98
0.72597	99.98
0.74263	99.98
0.75930	99.98
0.77597	99.98
0.79263	99.98
0.80930	99.98
0.82597	99.98
0.84263	99.98
0.85930	99.98
0.87597	99.98
0.89263	99.98
0.90930	99.98
0.92597	99.98
0.94263	99.98
0.95930	99.98
0.97597	99.98
0.99263	99.98
1.00930	99.98
1.02597	99.98
1.04263	99.98
1.05930	99.98
1.07597	99.98
1.09263	99.98
1.10930	99.98
1.12597	99.98
1.14263	99.98
1.15930	99.98
1.17597	99.98
1.19263	99.98
1.20930	99.98
1.22597	99.98
1.24263	99.98
1.25930	99.98
1.27597	99.98
1.29263	99.98
1.30930	99.98
1.32597	99.98
1.34263	99.98
1.35930	99.98
1.37597	99.98
1.39263	99.98
1.40930	99.98
1.42597	99.98
1.44263	99.97
1.45930	99.98
1.47597	99.98
1.49263	99.98
1.50930	99.98
1.52597	99.98
1.54263	99.98
1.55930	99.98
1.57597	99.98
1.59263	99.98
1.60930	99.98
1.62597	99.98
1.64263	99.98
1.65930	99.98
1.67597	99.98
1.69263	99.98
1.70930	99.98
1.72597	99.98
1.74263	99.98
1.75930	99.98
1.77597	99.98
1.79263	99.98
1.80930	99.98
1.82597	99.98
1.84263	99.98
1.85930	99.98
1.87597	99.98
1.89263	99.98
1.90930	99.98
1.92597	99.98
1.94263	99.98
1.95930	99.97
1.97597	99.98
1.99263	99.98
2.00930	99.97
2.02597	99.97
2.04263	99.97
2.05930	99.97
2.07597	99.97
2.09263	99.97
2.10930	99.97
2.12597	99.97
2.14263	99.97
2.15930	99.97
2.17597	99.97
2.19263	99.97
2.20930	99.97
2.22597	99.97
2.24263	99.96
2.25930	99.96
2.27597	99.96
2.29263	99.96
2.30930	99.97
2.32597	99.96
2.34263	99.96
2.35930	99.96
2.37597	99.96
2.39263	99.96
2.40930	99.96
2.42597	99.96
2.44263	99.96
2.45930	99.96
2.47597	99.96
2.49263	99.96
2.50930	99.96
2.52597	99.96
2.54263	99.96
2.55930	99.96
2.57597	99.96
2.59263	99.97
2.60930	99.97
2.62597	99.97
2.64263	99.97
2.65930	99.97
2.67597	99.97
2.69263	99.98
2.70930	99.98
2.72597	99.98
2.74263	99.98
2.75930	99.98
2.77597	99.98
2.79263	99.99
2.80930	99.99
2.82597	99.99
2.84263	99.99
2.85930	99.99
2.87597	99.99
2.89263	99.99
2.90930	99.99
2.92597	99.99
2.94263	99.99
2.95930	100.00
2.97597	100.00
2.99263	100.00
3.00930	100.00
3.02597	100.00
3.04263	100.00
3.05930	100.01
3.07597	100.01
3.09263	100.00
3.10930	100.01
3.12597	100.02
3.14263	100.02
3.15930	100.02
3.17597	100.02
3.19263	100.02
3.20930	100.02
3.22597	100.02
3.24263	100.02
3.25930	100.02
3.27597	100.02
3.29263	100.02
3.30930	100.02
3.32597	100.03
3.34263	100.02
3.35930	100.03
3.37597	100.02
3.39263	100.03
3.40930	100.03
3.42597	100.03
3.44263	100.03
3.45930	100.03
3.47597	100.03
3.49263	100.03
3.50930	100.03
3.52597	100.03
3.54263	100.03
3.55930	100.03
3.57597	100.03
3.59263	100.03
3.60930	100.03
3.62597	100.04
3.64263	100.03
3.65930	100.04
3.67597	100.04
3.69263	100.04
3.70930	100.04
3.72597	100.04
3.74263	100.04
3.75930	100.04
3.77597	100.04
3.79263	100.04
3.80930	100.04
3.82597	100.04
3.84263	100.04
3.85930	100.04
3.87597	100.05
3.89263	100.04
3.90930	100.05
3.92597	100.04
3.94263	100.05
3.95930	100.05
3.97597	100.05
3.99263	100.05

[Status Trace (Carrier Gas Pressure)]
Interval(msec)	1000
# of Points	240
Start Time(min)	0.009
End Time(min)	3.993
Intensity Units	
Intensity Multiplier	1
R.Time (min)	Intensity
0.00930	58.00
0.02597	55.19
0.04263	57.28
0.05930	59.31
0.07597	59.37
0.09263	58.05
0.10930	57.98
0.12597	58.01
0.14263	58.01
0.15930	58.01
0.17597	58.00
0.19263	58.00
0.20930	58.00
0.22597	58.00
0.24263	58.00
0.25930	58.00
0.27597	58.00
0.29263	58.00
0.30930	58.00
0.32597	58.00
0.34263	58.00
0.35930	58.00
0.37597	58.00
0.39263	58.00
0.40930	58.00
0.42597	58.00
0.44263	58.00
0.45930	58.00
0.47597	58.00
0.49263	58.00
0.50930	58.00
0.52597	58.00
0.54263	58.00
0.55930	58.00
0.57597	58.00
0.59263	58.00
0.60930	58.00
0.62597	58.00
0.64263	58.00
0.65930	58.00
0.67597	58.00
0.69263	58.00
0.70930	58.00
0.72597	58.00
0.74263	58.00
0.75930	58.00
0.77597	58.00
0.79263	58.00
0.80930	58.00
0.82597	58.00
0.84263	58.00
0.85930	58.00
0.87597	58.00
0.89263	58.00
0.90930	58.00
0.92597	58.00
0.94263	58.00
0.95930	58.00
0.97597	58.00
0.99263	58.00
1.00930	58.00
1.02597	58.00
1.04263	58.00
1.05930	58.00
1.07597	58.00
1.09263	58.00
1.10930	58.00
1.12597	58.00
1.14263	58.00
1.15930	58.00
1.17597	58.00
1.19263	58.00
1.20930	58.00
1.22597	58.00
1.24263	58.00
1.25930	58.00
1.27597	58.00
1.29263	58.00
1.30930	58.00
1.32597	58.00
1.34263	58.00
1.35930	58.00
1.37597	58.00
1.39263	58.00
1.40930	58.00
1.42597	58.00
1.44263	58.00
1.45930	58.00
1.47597	58.00
1.49263	58.00
1.50930	58.00
1.52597	58.00
1.54263	58.00
1.55930	58.00
1.57597	58.00
1.59263	58.00
1.60930	58.00
1.62597	58.00
1.64263	58.00
1.65930	58.00
1.67597	58.01
1.69263	58.00
1.70930	58.00
1.72597	58.00
1.74263	58.00
1.75930	58.00
1.77597	58.00
1.79263	58.00
1.80930	58.00
1.82597	58.00
1.84263	58.00
1.85930	58.00
1.87597	58.00
1.89263	58.00
1.90930	58.00
1.92597	58.00
1.94263	58.00
1.95930	58.00
1.97597	58.00
1.99263	58.00
2.00930	58.00
2.02597	58.00
2.04263	58.00
2.05930	58.00
2.07597	58.00
2.09263	58.00
2.10930	58.00
2.12597	58.00
2.14263	58.00
2.15930	58.00
2.17597	58.00
2.19263	58.00
2.20930	58.00
2.22597	58.00
2.24263	58.00
2.25930	58.00
2.27597	58.00
2.29263	58.00
2.30930	58.00
2.32597	58.00
2.34263	58.00
2.35930	58.00
2.37597	58.00
2.39263	57.99
2.40930	58.00
2.42597	58.00
2.44263	58.00
2.45930	58.00
2.47597	58.00
2.49263	58.00
2.50930	57.99
2.52597	57.98
2.54263	58.00
2.55930	58.00
2.57597	58.00
2.59263	58.00
2.60930	58.00
2.62597	58.00
2.64263	58.00
2.65930	58.00
2.67597	58.00
2.69263	58.00
2.70930	58.00
2.72597	58.00
2.74263	58.00
2.75930	58.00
2.77597	58.00
2.79263	58.00
2.80930	58.00
2.82597	58.00
2.84263	58.00
2.85930	58.00
2.87597	58.00
2.89263	58.00
2.90930	58.00
2.92597	58.00
2.94263	58.00
2.95930	58.00
2.97597	58.00
2.99263	58.00
3.00930	58.00
3.02597	58.00
3.04263	58.00
3.05930	58.00
3.07597	58.00
3.09263	58.00
3.10930	58.00
3.12597	58.00
3.14263	58.00
3.15930	58.00
3.17597	58.00
3.19263	58.00
3.20930	58.00
3.22597	58.00
3.24263	58.00
3.25930	58.00
3.27597	58.00
3.29263	58.00
3.30930	58.00
3.32597	58.00
3.34263	58.00
3.35930	58.00
3.37597	58.00
3.39263	58.00
3.40930	58.00
3.42597	58.00
3.44263	58.00
3.45930	58.00
3.47597	58.00
3.49263	58.00
3.50930	58.00
3.52597	58.00
3.54263	58.00
3.55930	58.00
3.57597	58.00
3.59263	58.00
3.60930	58.00
3.62597	58.00
3.64263	58.00
3.65930	58.00
3.67597	58.00
3.69263	58.00
3.70930	58.00
3.72597	58.00
3.74263	58.00
3.75930	58.00
3.77597	58.00
3.79263	58.00
3.80930	58.00
3.82597	58.00
3.84263	58.00
3.85930	58.00
3.87597	58.00
3.89263	58.00
3.90930	58.00
3.92597	58.00
3.94263	58.00
3.95930	58.00
3.97597	58.00
3.99263	58.00

[Status Trace (Carrier Gas Flow)]
Interval(msec)	1000
# of Points	240
Start Time(min)	0.009
End Time(min)	3.993
Intensity Units	
Intensity Multiplier	1
R.Time (min)	Intensity
0.00930	34.52
0.02597	34.54
0.04263	34.54
0.05930	34.55
0.07597	34.50
0.09263	34.52
0.10930	34.52
0.12597	34.52
0.14263	34.52
0.15930	34.52
0.17597	34.52
0.19263	34.51
0.20930	34.51
0.22597	34.52
0.24263	34.52
0.25930	34.52
0.27597	34.52
0.29263	34.52
0.30930	34.52
0.32597	34.52
0.34263	34.52
0.35930	34.52
0.37597	34.52
0.39263	34.52
0.40930	34.52
0.42597	34.52
0.44263	34.52
0.45930	34.52
0.47597	34.52
0.49263	34.52
0.50930	34.52
0.52597	34.52
0.54263	34.52
0.55930	34.52
0.57597	34.52
0.59263	34.52
0.60930	34.52
0.62597	34.52
0.64263	34.52
0.65930	34.51
0.67597	34.52
0.69263	34.52
0.70930	34.52
0.72597	34.52
0.74263	34.52
0.75930	34.52
0.77597	34.51
0.79263	34.52
0.80930	34.52
0.82597	34.51
0.84263	34.51
0.85930	34.52
0.87597	34.52
0.89263	34.52
0.90930	34.52
0.92597	34.52
0.94263	34.51
0.95930	34.52
0.97597	34.52
0.99263	34.51
1.00930	34.52
1.02597	34.52
1.04263	34.52
1.05930	34.52
1.07597	34.52
1.09263	34.53
1.10930	34.52
1.12597	34.52
1.14263	34.52
1.15930	34.52
1.17597	34.52
1.19263	34.52
1.20930	34.52
1.22597	34.52
1.24263	34.52
1.25930	34.52
1.27597	34.51
1.29263	34.51
1.30930	34.52
1.32597	34.52
1.34263	34.51
1.35930	34.52
1.37597	34.51
1.39263	34.52
1.40930	34.52
1.42597	34.52
1.44263	34.52
1.45930	34.52
1.47597	34.53
1.49263	34.51
1.50930	34.52
1.52597	34.53
1.54263	34.52
1.55930	34.51
1.57597	34.52
1.59263	34.52
1.60930	34.52
1.62597	34.52
1.64263	34.52
1.65930	34.52
1.67597	34.52
1.69263	34.52
1.70930	34.52
1.72597	34.52
1.74263	34.52
1.75930	34.52
1.77597	34.51
1.79263	34.52
1.80930	34.52
1.82597	34.51
1.84263	34.52
1.85930	34.52
1.87597	34.52
1.89263	34.51
1.90930	34.51
1.92597	34.52
1.94263	34.52
1.95930	34.52
1.97597	34.52
1.99263	34.52
2.00930	34.51
2.02597	34.52
2.04263	34.52
2.05930	34.52
2.07597	34.52
2.09263	34.52
2.10930	34.51
2.12597	34.52
2.14263	34.52
2.15930	34.52
2.17597	34.52
2.19263	34.52
2.20930	34.52
2.22597	34.51
2.24263	34.51
2.25930	34.52
2.27597	34.51
2.29263	34.52
2.30930	34.52
2.32597	34.52
2.34263	34.51
2.35930	34.52
2.37597	34.51
2.39263	34.52
2.40930	34.52
2.42597	34.52
2.44263	34.52
2.45930	34.52
2.47597	34.53
2.49263	34.52
2.50930	34.47
2.52597	34.52
2.54263	34.52
2.55930	34.52
2.57597	34.52
2.59263	34.52
2.60930	34.51
2.62597	34.52
2.64263	34.52
2.65930	34.51
2.67597	34.51
2.69263	34.52
2.70930	34.52
2.72597	34.52
2.74263	34.52
2.75930	34.52
2.77597	34.52
2.79263	34.51
2.80930	34.52
2.82597	34.52
2.84263	34.52
2.85930	34.52
2.87597	34.52
2.89263	34.52
2.90930	34.52
2.92597	34.52
2.94263	34.52
2.95930	34.51
2.97597	34.53
2.99263	34.52
3.00930	34.52
3.02597	34.52
3.04263	34.52
3.05930	34.51
3.07597	34.52
3.09263	34.52
3.10930	34.51
3.12597	34.52
3.14263	34.52
3.15930	34.52
3.17597	34.51
3.19263	34.51
3.20930	34.52
3.22597	34.52
3.24263	34.51
3.25930	34.52
3.27597	34.52
3.29263	34.52
3.30930	34.52
3.32597	34.52
3.34263	34.51
3.35930	34.52
3.37597	34.52
3.39263	34.52
3.40930	34.52
3.42597	34.52
3.44263	34.52
3.45930	34.52
3.47597	34.52
3.49263	34.52
3.50930	34.51
3.52597	34.51
3.54263	34.52
3.55930	34.51
3.57597	34.52
3.59263	34.52
3.60930	34.52
3.62597	34.52
3.64263	34.52
3.65930	34.52
3.67597	34.51
3.69263	34.52
3.70930	34.52
3.72597	34.51
3.74263	34.52
3.75930	34.52
3.77597	34.52
3.79263	34.52
3.80930	34.52
3.82597	34.52
3.84263	34.52
3.85930	34.52
3.87597	34.52
3.89263	34.51
3.90930	34.52
3.92597	34.52
3.94263	34.52
3.95930	34.52
3.97597	34.52
3.99263	34.52

[Status Trace (Column Flow)]
Interval(msec)	1000
# of Points	240
Start Time(min)	0.009
End Time(min)	3.993
Intensity Units	
Intensity Multiplier	1
R.Time (min)	Intensity
0.00930	5.51
0.02597	5.18
0.04263	5.42
0.05930	5.66
0.07597	5.67
0.09263	5.51
0.10930	5.50
0.12597	5.51
0.14263	5.51
0.15930	5.51
0.17597	5.51
0.19263	5.51
0.20930	5.51
0.22597	5.51
0.24263	5.51
0.25930	5.51
0.27597	5.51
0.29263	5.51
0.30930	5.51
0.32597	5.51
0.34263	5.51
0.35930	5.51
0.37597	5.51
0.39263	5.51
0.40930	5.51
0.42597	5.51
0.44263	5.51
0.45930	5.51
0.47597	5.51
0.49263	5.51
0.50930	5.51
0.52597	5.51
0.54263	5.51
0.55930	5.51
0.57597	5.51
0.59263	5.51
0.60930	5.51
0.62597	5.51
0.64263	5.51
0.65930	5.51
0.67597	5.51
0.69263	5.51
0.70930	5.51
0.72597	5.51
0.74263	5.51
0.75930	5.51
0.77597	5.51
0.79263	5.51
0.80930	5.51
0.82597	5.51
0.84263	5.51
0.85930	5.51
0.87597	5.51
0.89263	5.51
0.90930	5.51
0.92597	5.51
0.94263	5.51
0.95930	5.51
0.97597	5.51
0.99263	5.51
1.00930	5.51
1.02597	5.51
1.04263	5.51
1.05930	5.51
1.07597	5.51
1.09263	5.51
1.10930	5.51
1.12597	5.51
1.14263	5.51
1.15930	5.51
1.17597	5.51
1.19263	5.51
1.20930	5.51
1.22597	5.51
1.24263	5.51
1.25930	5.51
1.27597	5.51
1.29263	5.51
1.30930	5.51
1.32597	5.51
1.34263	5.51
1.35930	5.51
1.37597	5.51
1.39263	5.51
1.40930	5.51
1.42597	5.51
1.44263	5.51
1.45930	5.51
1.47597	5.51
1.49263	5.51
1.50930	5.51
1.52597	5.51
1.54263	5.51
1.55930	5.51
1.57597	5.51
1.59263	5.51
1.60930	5.50
1.62597	5.50
1.64263	5.50
1.65930	5.49
1.67597	5.48
1.69263	5.46
1.70930	5.45
1.72597	5.44
1.74263	5.43
1.75930	5.42
1.77597	5.41
1.79263	5.40
1.80930	5.39
1.82597	5.38
1.84263	5.37
1.85930	5.36
1.87597	5.35
1.89263	5.34
1.90930	5.33
1.92597	5.32
1.94263	5.31
1.95930	5.30
1.97597	5.29
1.99263	5.28
2.00930	5.27
2.02597	5.27
2.04263	5.26
2.05930	5.25
2.07597	5.24
2.09263	5.23
2.10930	5.22
2.12597	5.21
2.14263	5.20
2.15930	5.19
2.17597	5.18
2.19263	5.17
2.20930	5.16
2.22597	5.15
2.24263	5.14
2.25930	5.13
2.27597	5.12
2.29263	5.11
2.30930	5.11
2.32597	5.10
2.34263	5.09
2.35930	5.08
2.37597	5.07
2.39263	5.07
2.40930	5.07
2.42597	5.07
2.44263	5.07
2.45930	5.07
2.47597	5.07
2.49263	5.07
2.50930	5.07
2.52597	5.07
2.54263	5.07
2.55930	5.07
2.57597	5.07
2.59263	5.07
2.60930	5.07
2.62597	5.07
2.64263	5.07
2.65930	5.07
2.67597	5.07
2.69263	5.07
2.70930	5.07
2.72597	5.07
2.74263	5.07
2.75930	5.07
2.77597	5.07
2.79263	5.07
2.80930	5.07
2.82597	5.07
2.84263	5.07
2.85930	5.07
2.87597	5.07
2.89263	5.07
2.90930	5.07
2.92597	5.07
2.94263	5.07
2.95930	5.07
2.97597	5.07
2.99263	5.06
3.00930	5.06
3.02597	5.06
3.04263	5.06
3.05930	5.06
3.07597	5.06
3.09263	5.06
3.10930	5.06
3.12597	5.06
3.14263	5.06
3.15930	5.06
3.17597	5.06
3.19263	5.06
3.20930	5.06
3.22597	5.06
3.24263	5.06
3.25930	5.06
3.27597	5.06
3.29263	5.06
3.30930	5.06
3.32597	5.06
3.34263	5.06
3.35930	5.06
3.37597	5.06
3.39263	5.06
3.40930	5.06
3.42597	5.06
3.44263	5.06
3.45930	5.06
3.47597	5.06
3.49263	5.06
3.50930	5.06
3.52597	5.06
3.54263	5.06
3.55930	5.06
3.57597	5.06
3.59263	5.06
3.60930	5.06
3.62597	5.06
3.64263	5.06
3.65930	5.06
3.67597	5.06
3.69263	5.06
3.70930	5.06
3.72597	5.06
3.74263	5.06
3.75930	5.06
3.77597	5.06
3.79263	5.06
3.80930	5.06
3.82597	5.06
3.84263	5.06
3.85930	5.06
3.87597	5.06
3.89263	5.06
3.90930	5.06
3.92597	5.06
3.94263	5.06
3.95930	5.06
3.97597	5.06
3.99263	5.06

[Status Trace (Linear Velocity)]
Interval(msec)	1000
# of Points	240
Start Time(min)	0.009
End Time(min)	3.993
Intensity Units	
Intensity Multiplier	1
R.Time (min)	Intensity
0.00930	39.01
0.02597	37.17
0.04263	38.54
0.05930	39.87
0.07597	39.91
0.09263	39.04
0.10930	39.00
0.12597	39.02
0.14263	39.02
0.15930	39.01
0.17597	39.01
0.19263	39.01
0.20930	39.01
0.22597	39.01
0.24263	39.01
0.25930	39.01
0.27597	39.01
0.29263	39.01
0.30930	39.01
0.32597	39.01
0.34263	39.01
0.35930	39.01
0.37597	39.01
0.39263	39.01
0.40930	39.01
0.42597	39.01
0.44263	39.01
0.45930	39.01
0.47597	39.01
0.49263	39.01
0.50930	39.01
0.52597	39.01
0.54263	39.01
0.55930	39.01
0.57597	39.01
0.59263	39.01
0.60930	39.01
0.62597	39.01
0.64263	39.01
0.65930	39.01
0.67597	39.01
0.69263	39.01
0.70930	39.01
0.72597	39.01
0.74263	39.01
0.75930	39.01
0.77597	39.01
0.79263	39.01
0.80930	39.01
0.82597	39.01
0.84263	39.01
0.85930	39.01
0.87597	39.01
0.89263	39.01
0.90930	39.01
0.92597	39.01
0.94263	39.01
0.95930	39.01
0.97597	39.01
0.99263	39.01
1.00930	39.01
1.02597	39.01
1.04263	39.01
1.05930	39.01
1.07597	39.01
1.09263	39.01
1.10930	39.02
1.12597	39.01
1.14263	39.01
1.15930	39.01
1.17597	39.01
1.19263	39.01
1.20930	39.01
1.22597	39.01
1.24263	39.01
1.25930	39.01
1.27597	39.01
1.29263	39.01
1.30930	39.01
1.32597	39.01
1.34263	39.01
1.35930	39.01
1.37597	39.01
1.39263	39.01
1.40930	39.01
1.42597	39.01
1.44263	39.01
1.45930	39.01
1.47597	39.01
1.49263	39.01
1.50930	39.02
1.52597	39.01
1.54263	39.01
1.55930	39.01
1.57597	39.01
1.59263	39.01
1.60930	39.01
1.62597	39.00
1.64263	38.98
1.65930	38.96
1.67597	38.92
1.69263	38.89
1.70930	38.85
1.72597	38.82
1.74263	38.79
1.75930	38.76
1.77597	38.72
1.79263	38.69
1.80930	38.66
1.82597	38.63
1.84263	38.60
1.85930	38.57
1.87597	38.54
1.89263	38.51
1.90930	38.48
1.92597	38.45
1.94263	38.42
1.95930	38.39
1.97597	38.36
1.99263	38.33
2.00930	38.29
2.02597	38.26
2.04263	38.24
2.05930	38.21
2.07597	38.18
2.09263	38.15
2.10930	38.12
2.12597	38.08
2.14263	38.06
2.15930	38.03
2.17597	38.00
2.19263	37.97
2.20930	37.94
2.22597	37.91
2.24263	37.88
2.25930	37.85
2.27597	37.82
2.29263	37.79
2.30930	37.76
2.32597	37.73
2.34263	37.70
2.35930	37.68
2.37597	37.66
2.39263	37.65
2.40930	37.66
2.42597	37.66
2.44263	37.66
2.45930	37.66
2.47597	37.66
2.49263	37.65
2.50930	37.65
2.52597	37.64
2.54263	37.65
2.55930	37.65
2.57597	37.65
2.59263	37.65
2.60930	37.65
2.62597	37.65
2.64263	37.64
2.65930	37.64
2.67597	37.64
2.69263	37.64
2.70930	37.64
2.72597	37.64
2.74263	37.64
2.75930	37.64
2.77597	37.64
2.79263	37.64
2.80930	37.64
2.82597	37.64
2.84263	37.64
2.85930	37.64
2.87597	37.64
2.89263	37.64
2.90930	37.63
2.92597	37.63
2.94263	37.63
2.95930	37.63
2.97597	37.63
2.99263	37.63
3.00930	37.63
3.02597	37.63
3.04263	37.63
3.05930	37.63
3.07597	37.63
3.09263	37.63
3.10930	37.63
3.12597	37.62
3.14263	37.62
3.15930	37.62
3.17597	37.62
3.19263	37.62
3.20930	37.62
3.22597	37.62
3.24263	37.62
3.25930	37.62
3.27597	37.62
3.29263	37.62
3.30930	37.62
3.32597	37.62
3.34263	37.62
3.35930	37.62
3.37597	37.62
3.39263	37.62
3.40930	37.62
3.42597	37.62
3.44263	37.62
3.45930	37.62
3.47597	37.62
3.49263	37.62
3.50930	37.62
3.52597	37.62
3.54263	37.62
3.55930	37.62
3.57597	37.62
3.59263	37.62
3.60930	37.62
3.62597	37.62
3.64263	37.62
3.65930	37.62
3.67597	37.62
3.69263	37.62
3.70930	37.62
3.72597	37.62
3.74263	37.62
3.75930	37.62
3.77597	37.62
3.79263	37.62
3.80930	37.62
3.82597	37.62
3.84263	37.62
3.85930	37.62
3.87597	37.62
3.89263	37.62
3.90930	37.62
3.92597	37.62
3.94263	37.62
3.95930	37.62
3.97597	37.62
3.99263	37.62

