[Header]
Application Name	LabSolutions
Version	5.110
Data File Name	C:\Users\User\Desktop\Junior\UIC Prairie Sampling\7.18.23\071823_076.gcd
Output Date	8/29/2023
Output Time	10:40:24 AM

[File Information]
Type	Data File
Generated	8/28/2023 10:40:37 PM
Generated by	System Administrator
Modified	8/28/2023 10:47:13 PM
Modified by	System Administrator

[Sample Information]
Operator Name	System Administrator
Acquired	8/28/2023 10:43:12 PM
Sample Type	0:Unknown
Level	0
Sample Name	076
Sample ID	076
ISTD Amount1	1
ISTD Amount2	1
ISTD Amount3	1
ISTD Amount4	1
ISTD Amount5	1
ISTD Amount6	1
ISTD Amount7	1
ISTD Amount8	1
ISTD Amount9	1
ISTD Amount10	1
ISTD Amount11	1
ISTD Amount12	1
ISTD Amount13	1
ISTD Amount14	1
ISTD Amount15	1
ISTD Amount16	1
ISTD Amount17	1
ISTD Amount18	1
ISTD Amount19	1
ISTD Amount20	1
ISTD Amount21	1
ISTD Amount22	1
ISTD Amount23	1
ISTD Amount24	1
ISTD Amount25	1
ISTD Amount26	1
ISTD Amount27	1
ISTD Amount28	1
ISTD Amount29	1
ISTD Amount30	1
ISTD Amount31	1
ISTD Amount32	1
Sample Amount	1
Dilution Factor	1
Vial#	75
Injection Volume	1
Injection Count	1
Bar Code	

[Original Files]
Data File	C:\Users\User\Desktop\Junior\UIC Prairie Sampling\7.18.23\071823_076.gcd
Method File	C:\LabSolutions\Data\GHG_4min_2022\ghg3_togas_w_acet_4 min_new_int.gcm
Batch File	C:\LabSolutions\Data\BATCH FILES\071823.gcb
Report Format File	c:\LabSolutions\System\DEFAULT.lsr

[File Description]


[Configuration]
Instrument Name	C0B7VH3-Instrument1
Instrument #	1
Line #	1
# of Detectors	3
Detector ID	DET#1	DET#2	DET#3
Detector Name	FID	PTCD	ECD
# of Channels	1	1	1

[Peak Table(Ch1)]
# of Peaks	3
Peak#	R.Time	I.Time	F.Time	Area	Height	A/H	Conc.	Mark	ID#	Name	k'	Plate #	Plate Ht.	Tailing	Resolution	Sep.Factor	Area Ratio	Height Ratio	Conc. %	Norm Conc.
1	1.472	1.435	1.531	12895	6431	2.005	0.000	   	1	CO	0.000	9971	15.044	1.284	0.000	0.000	0	0	0.000	0.000
2	1.564	1.531	1.619	4452	2228	1.998	21.702	 V 	2	CH4	0.062	11238	13.347	1.087	1.554	0.000	0	0	5.033	5.033
3	1.989	1.941	2.499	2124921	1020100	2.083	409.511	   	3	CO2	0.351	17563	8.541	1.320	7.146	5.640	0	0	94.967	94.967

[Peak Table(Ch2)]
# of Peaks	0

[Peak Table(Ch3)]
# of Peaks	4
Peak#	R.Time	I.Time	F.Time	Area	Height	A/H	Conc.	Mark	ID#	Name	k'	Plate #	Plate Ht.	Tailing	Resolution	Sep.Factor	Area Ratio	Height Ratio	Conc. %	Norm Conc.
1	2.458	2.304	2.561	1704	337	5.054	0.000	   			0.000	9810	15.291	0.000	0.000	0.000	0	0	0.000	0.000
2	2.616	2.561	2.686	928	169	5.479	0.000	 V 			0.064	3378	44.410	0.000	1.129	0.000	0	0	0.000	0.000
3	2.891	2.686	3.001	17377	4005	4.338	0.257	 V 	1	N2O	0.176	12451	12.047	1.055	1.939	2.744	0	0	100.000	100.000
4	3.071	3.005	3.995	29821	1093	27.281	0.000	   	2	SF6	0.249	185	808.766	7.339	0.357	1.415	0	0	0.000	0.000

[Compound Results(Ch1)]
# of IDs	6
ID#	Name	R.Time	Area	Height	Conc.	Curve	3rd	2nd	1st	Constant	Area Ratio	Height Ratio	Conc. %	Norm Conc.
1	CO	1.472	12895	6431	0.000	Linear	0.000000e+00	0.000000e+00	0.000000e+00	0.000000e+00	0	0	0.000	0.000
2	CH4	1.564	4452	2228	21.702	Linear	0.000000e+00	0.000000e+00	2.051179e+002	0.000000e+00	0	0	5.033	5.033
3	CO2	1.989	2124921	1020100	409.511	Linear	0.000000e+00	0.000000e+00	5.188919e+003	0.000000e+00	0	0	94.967	94.967
4	Ethylene	0.000	0	0	0.000	Linear	0.000000e+00	0.000000e+00	0.000000e+00	0.000000e+00	0	0	0.000	0.000
5	Acetylene	0.000	0	0	0.000	Linear	0.000000e+00	0.000000e+00	0.000000e+00	0.000000e+00	0	0	0.000	0.000
6	Ethane	0.000	0	0	0.000	Linear	0.000000e+00	0.000000e+00	0.000000e+00	0.000000e+00	0	0	0.000	0.000

[Compound Results(Ch2)]
# of IDs	5
ID#	Name	R.Time	Area	Height	Conc.	Curve	3rd	2nd	1st	Constant	Area Ratio	Height Ratio	Conc. %	Norm Conc.
1	Hydrogen	0.000	0	0	0.000	Linear	0.000000e+00	0.000000e+00	0.000000e+00	0.000000e+00	0	0	0.000	0.000
2	Oxygen	0.000	0	0	0.000	Linear	0.000000e+00	0.000000e+00	0.000000e+00	0.000000e+00	0	0	0.000	0.000
3	Nitrogen	0.000	0	0	0.000	Linear	0.000000e+00	0.000000e+00	0.000000e+00	0.000000e+00	0	0	0.000	0.000
4	Methane	0.000	0	0	0.000	Linear	0.000000e+00	0.000000e+00	0.000000e+00	0.000000e+00	0	0	0.000	0.000
5	Carbon Monoxide	0.000	0	0	0.000	Linear	0.000000e+00	0.000000e+00	0.000000e+00	0.000000e+00	0	0	0.000	0.000

[Compound Results(Ch3)]
# of IDs	2
ID#	Name	R.Time	Area	Height	Conc.	Curve	3rd	2nd	1st	Constant	Area Ratio	Height Ratio	Conc. %	Norm Conc.
1	N2O	2.891	17377	4005	0.257	Linear	0.000000e+00	0.000000e+00	6.759880e+004	0.000000e+00	0	0	100.000	100.000
2	SF6	3.071	29821	1093	0.000	Linear	0.000000e+00	0.000000e+00	0.000000e+00	0.000000e+00	0	0	0.000	0.000

[Group Results(Ch1)]
# of Groups	0

[Group Results(Ch2)]
# of Groups	0

[Group Results(Ch3)]
# of Groups	0

[Chromatogram (Ch1)]
Interval(msec)	220
# of Points	1091
Start Time(min)	0.002
End Time(min)	3.998
R.Time (min)	Intensity
0.00167	20
0.00533	15
0.00900	10
0.01267	4
0.01633	-3
0.02000	-5
0.02367	-4
0.02733	-1
0.03100	2
0.03467	5
0.03833	7
0.04200	8
0.04567	12
0.04933	17
0.05300	22
0.05667	26
0.06033	29
0.06400	34
0.06767	36
0.07133	34
0.07500	30
0.07867	24
0.08233	15
0.08600	8
0.08967	3
0.09333	3
0.09700	7
0.10067	13
0.10433	14
0.10800	12
0.11167	11
0.11533	9
0.11900	9
0.12267	8
0.12633	7
0.13000	3
0.13367	-2
0.13733	-5
0.14100	-5
0.14467	-5
0.14833	-5
0.15200	-3
0.15567	-0
0.15933	4
0.16300	7
0.16667	8
0.17033	9
0.17400	12
0.17767	20
0.18133	25
0.18500	25
0.18867	19
0.19233	13
0.19600	10
0.19967	10
0.20333	14
0.20700	21
0.21067	26
0.21433	27
0.21800	27
0.22167	30
0.22533	32
0.22900	32
0.23267	29
0.23633	24
0.24000	22
0.24367	25
0.24733	33
0.25100	39
0.25467	41
0.25833	43
0.26200	46
0.26567	48
0.26933	48
0.27300	48
0.27667	49
0.28033	49
0.28400	47
0.28767	47
0.29133	49
0.29500	53
0.29867	57
0.30233	60
0.30600	62
0.30967	65
0.31333	66
0.31700	64
0.32067	62
0.32433	63
0.32800	68
0.33167	73
0.33533	76
0.33900	74
0.34267	70
0.34633	67
0.35000	66
0.35367	67
0.35733	69
0.36100	68
0.36467	63
0.36833	57
0.37200	53
0.37567	48
0.37933	43
0.38300	39
0.38667	36
0.39033	32
0.39400	31
0.39767	32
0.40133	35
0.40500	41
0.40867	45
0.41233	47
0.41600	47
0.41967	45
0.42333	43
0.42700	40
0.43067	41
0.43433	43
0.43800	44
0.44167	42
0.44533	39
0.44900	36
0.45267	33
0.45633	30
0.46000	29
0.46367	30
0.46733	30
0.47100	29
0.47467	29
0.47833	31
0.48200	35
0.48567	37
0.48933	40
0.49300	44
0.49667	47
0.50033	48
0.50400	48
0.50767	47
0.51133	46
0.51500	47
0.51867	46
0.52233	44
0.52600	39
0.52967	33
0.53333	27
0.53700	21
0.54067	19
0.54433	20
0.54800	22
0.55167	23
0.55533	24
0.55900	26
0.56267	28
0.56633	29
0.57000	29
0.57367	29
0.57733	30
0.58100	34
0.58467	41
0.58833	48
0.59200	55
0.59567	57
0.59933	55
0.60300	52
0.60667	50
0.61033	48
0.61400	45
0.61767	42
0.62133	38
0.62500	36
0.62867	35
0.63233	34
0.63600	34
0.63967	35
0.64333	36
0.64700	35
0.65067	31
0.65433	25
0.65800	21
0.66167	22
0.66533	27
0.66900	35
0.67267	43
0.67633	47
0.68000	47
0.68367	47
0.68733	50
0.69100	54
0.69467	54
0.69833	51
0.70200	49
0.70567	49
0.70933	48
0.71300	46
0.71667	42
0.72033	38
0.72400	34
0.72767	33
0.73133	32
0.73500	31
0.73867	31
0.74233	31
0.74600	28
0.74967	27
0.75333	28
0.75700	30
0.76067	30
0.76433	32
0.76800	36
0.77167	36
0.77533	34
0.77900	31
0.78267	29
0.78633	30
0.79000	31
0.79367	34
0.79733	35
0.80100	36
0.80467	40
0.80833	44
0.81200	47
0.81567	49
0.81933	51
0.82300	53
0.82667	53
0.83033	49
0.83400	45
0.83767	41
0.84133	38
0.84500	34
0.84867	29
0.85233	24
0.85600	23
0.85967	26
0.86333	30
0.86700	33
0.87067	36
0.87433	37
0.87800	34
0.88167	32
0.88533	34
0.88900	36
0.89267	37
0.89633	39
0.90000	40
0.90367	39
0.90733	40
0.91100	41
0.91467	42
0.91833	42
0.92200	43
0.92567	45
0.92933	49
0.93300	54
0.93667	54
0.94033	52
0.94400	51
0.94767	50
0.95133	47
0.95500	44
0.95867	43
0.96233	41
0.96600	38
0.96967	35
0.97333	34
0.97700	33
0.98067	31
0.98433	27
0.98800	25
0.99167	24
0.99533	23
0.99900	21
1.00267	18
1.00633	18
1.01000	21
1.01367	27
1.01733	33
1.02100	36
1.02467	37
1.02833	36
1.03200	39
1.03567	44
1.03933	49
1.04300	50
1.04667	48
1.05033	49
1.05400	51
1.05767	53
1.06133	53
1.06500	50
1.06867	44
1.07233	37
1.07600	33
1.07967	32
1.08333	33
1.08700	34
1.09067	34
1.09433	34
1.09800	30
1.10167	24
1.10533	21
1.10900	22
1.11267	25
1.11633	28
1.12000	28
1.12367	31
1.12733	35
1.13100	39
1.13467	42
1.13833	45
1.14200	45
1.14567	42
1.14933	38
1.15300	35
1.15667	33
1.16033	32
1.16400	35
1.16767	40
1.17133	42
1.17500	40
1.17867	36
1.18233	31
1.18600	27
1.18967	24
1.19333	25
1.19700	32
1.20067	41
1.20433	48
1.20800	51
1.21167	51
1.21533	46
1.21900	40
1.22267	34
1.22633	25
1.23000	16
1.23367	12
1.23733	15
1.24100	22
1.24467	28
1.24833	30
1.25200	32
1.25567	34
1.25933	35
1.26300	40
1.26667	45
1.27033	48
1.27400	47
1.27767	48
1.28133	50
1.28500	50
1.28867	47
1.29233	44
1.29600	41
1.29967	41
1.30333	41
1.30700	42
1.31067	44
1.31433	44
1.31800	42
1.32167	36
1.32533	30
1.32900	24
1.33267	19
1.33633	14
1.34000	10
1.34367	6
1.34733	3
1.35100	4
1.35467	8
1.35833	14
1.36200	19
1.36567	22
1.36933	21
1.37300	20
1.37667	21
1.38033	23
1.38400	22
1.38767	20
1.39133	23
1.39500	28
1.39867	32
1.40233	36
1.40600	39
1.40967	38
1.41333	34
1.41700	27
1.42067	20
1.42433	15
1.42800	12
1.43167	13
1.43533	21
1.43900	41
1.44267	94
1.44633	345
1.45000	1043
1.45367	2190
1.45733	3506
1.46100	4712
1.46467	5657
1.46833	6262
1.47200	6449
1.47567	6168
1.47933	5473
1.48300	4526
1.48667	3523
1.49033	2621
1.49400	1890
1.49767	1338
1.50133	938
1.50500	657
1.50867	464
1.51233	335
1.51600	252
1.51967	199
1.52333	162
1.52700	137
1.53067	124
1.53433	140
1.53800	239
1.54167	476
1.54533	850
1.54900	1282
1.55267	1681
1.55633	1994
1.56000	2190
1.56367	2238
1.56733	2117
1.57100	1847
1.57467	1494
1.57833	1139
1.58200	831
1.58567	588
1.58933	411
1.59300	289
1.59667	205
1.60033	143
1.60400	97
1.60767	64
1.61133	38
1.61500	18
1.61867	4
1.62233	-3
1.62600	-4
1.62967	-1
1.63333	5
1.63700	14
1.64067	21
1.64433	24
1.64800	20
1.65167	13
1.65533	5
1.65900	-1
1.66267	-4
1.66633	-8
1.67000	-12
1.67367	-14
1.67733	-12
1.68100	-9
1.68467	-5
1.68833	2
1.69200	8
1.69567	11
1.69933	15
1.70300	18
1.70667	19
1.71033	15
1.71400	7
1.71767	1
1.72133	-4
1.72500	-8
1.72867	-11
1.73233	-12
1.73600	-10
1.73967	-6
1.74333	-2
1.74700	2
1.75067	6
1.75433	9
1.75800	11
1.76167	11
1.76533	12
1.76900	11
1.77267	11
1.77633	9
1.78000	4
1.78367	-0
1.78733	-6
1.79100	-10
1.79467	-7
1.79833	-1
1.80200	6
1.80567	11
1.80933	19
1.81300	33
1.81667	43
1.82033	45
1.82400	39
1.82767	32
1.83133	26
1.83500	22
1.83867	19
1.84233	16
1.84600	12
1.84967	9
1.85333	7
1.85700	4
1.86067	3
1.86433	3
1.86800	4
1.87167	9
1.87533	16
1.87900	23
1.88267	30
1.88633	31
1.89000	28
1.89367	22
1.89733	17
1.90100	11
1.90467	7
1.90833	6
1.91200	7
1.91567	10
1.91933	11
1.92300	9
1.92667	7
1.93033	7
1.93400	9
1.93767	11
1.94133	16
1.94500	34
1.94867	146
1.95233	845
1.95600	4336
1.95967	17394
1.96333	54453
1.96700	135253
1.97067	271862
1.97433	454797
1.97800	653753
1.98167	832345
1.98533	960555
1.98900	1020154
1.99267	1004896
1.99633	922168
2.00000	791760
2.00367	639915
2.00733	491139
2.01100	361794
2.01467	258713
2.01833	181594
2.02200	126423
2.02567	88127
2.02933	62046
2.03300	44463
2.03667	32639
2.04033	24652
2.04400	19199
2.04767	15417
2.05133	12738
2.05500	10795
2.05867	9355
2.06233	8260
2.06600	7406
2.06967	6720
2.07333	6157
2.07700	5691
2.08067	5296
2.08433	4952
2.08800	4647
2.09167	4374
2.09533	4131
2.09900	3913
2.10267	3716
2.10633	3539
2.11000	3380
2.11367	3235
2.11733	3100
2.12100	2971
2.12467	2849
2.12833	2737
2.13200	2635
2.13567	2544
2.13933	2459
2.14300	2379
2.14667	2301
2.15033	2227
2.15400	2157
2.15767	2091
2.16133	2030
2.16500	1972
2.16867	1917
2.17233	1864
2.17600	1811
2.17967	1756
2.18333	1700
2.18700	1649
2.19067	1604
2.19433	1564
2.19800	1532
2.20167	1502
2.20533	1474
2.20900	1446
2.21267	1414
2.21633	1379
2.22000	1342
2.22367	1310
2.22733	1284
2.23100	1261
2.23467	1240
2.23833	1220
2.24200	1199
2.24567	1177
2.24933	1152
2.25300	1126
2.25667	1099
2.26033	1074
2.26400	1051
2.26767	1028
2.27133	1010
2.27500	993
2.27867	977
2.28233	961
2.28600	945
2.28967	929
2.29333	914
2.29700	900
2.30067	884
2.30433	869
2.30800	855
2.31167	842
2.31533	830
2.31900	817
2.32267	801
2.32633	783
2.33000	768
2.33367	757
2.33733	750
2.34100	745
2.34467	737
2.34833	729
2.35200	721
2.35567	714
2.35933	707
2.36300	699
2.36667	694
2.37033	693
2.37400	689
2.37767	679
2.38133	666
2.38500	651
2.38867	637
2.39233	625
2.39600	615
2.39967	607
2.40333	604
2.40700	604
2.41067	602
2.41433	595
2.41800	586
2.42167	576
2.42533	570
2.42900	567
2.43267	562
2.43633	553
2.44000	546
2.44367	538
2.44733	531
2.45100	527
2.45467	525
2.45833	521
2.46200	516
2.46567	509
2.46933	501
2.47300	493
2.47667	486
2.48033	480
2.48400	477
2.48767	472
2.49133	465
2.49500	462
2.49867	462
2.50233	466
2.50600	472
2.50967	476
2.51333	476
2.51700	476
2.52067	477
2.52433	478
2.52800	474
2.53167	464
2.53533	455
2.53900	451
2.54267	446
2.54633	440
2.55000	432
2.55367	420
2.55733	409
2.56100	402
2.56467	399
2.56833	398
2.57200	395
2.57567	392
2.57933	387
2.58300	381
2.58667	378
2.59033	376
2.59400	376
2.59767	375
2.60133	373
2.60500	369
2.60867	366
2.61233	362
2.61600	357
2.61967	352
2.62333	347
2.62700	342
2.63067	338
2.63433	338
2.63800	338
2.64167	335
2.64533	332
2.64900	332
2.65267	334
2.65633	334
2.66000	331
2.66367	326
2.66733	319
2.67100	310
2.67467	301
2.67833	294
2.68200	292
2.68567	291
2.68933	292
2.69300	291
2.69667	292
2.70033	292
2.70400	291
2.70767	289
2.71133	285
2.71500	282
2.71867	282
2.72233	283
2.72600	287
2.72967	293
2.73333	295
2.73700	292
2.74067	282
2.74433	277
2.74800	278
2.75167	279
2.75533	279
2.75900	280
2.76267	283
2.76633	288
2.77000	293
2.77367	290
2.77733	280
2.78100	267
2.78467	257
2.78833	249
2.79200	243
2.79567	238
2.79933	236
2.80300	237
2.80667	239
2.81033	242
2.81400	246
2.81767	247
2.82133	247
2.82500	245
2.82867	242
2.83233	238
2.83600	235
2.83967	230
2.84333	224
2.84700	217
2.85067	212
2.85433	209
2.85800	207
2.86167	209
2.86533	211
2.86900	213
2.87267	216
2.87633	219
2.88000	221
2.88367	225
2.88733	227
2.89100	225
2.89467	220
2.89833	215
2.90200	214
2.90567	217
2.90933	219
2.91300	219
2.91667	218
2.92033	215
2.92400	213
2.92767	209
2.93133	205
2.93500	201
2.93867	201
2.94233	200
2.94600	200
2.94967	202
2.95333	201
2.95700	197
2.96067	193
2.96433	189
2.96800	186
2.97167	182
2.97533	180
2.97900	181
2.98267	180
2.98633	181
2.99000	183
2.99367	184
2.99733	185
3.00100	189
3.00467	195
3.00833	197
3.01200	195
3.01567	190
3.01933	182
3.02300	174
3.02667	168
3.03033	167
3.03400	168
3.03767	169
3.04133	168
3.04500	168
3.04867	168
3.05233	165
3.05600	163
3.05967	163
3.06333	164
3.06700	165
3.07067	165
3.07433	163
3.07800	159
3.08167	154
3.08533	149
3.08900	147
3.09267	147
3.09633	146
3.10000	143
3.10367	138
3.10733	133
3.11100	131
3.11467	131
3.11833	130
3.12200	127
3.12567	124
3.12933	122
3.13300	121
3.13667	122
3.14033	125
3.14400	126
3.14767	128
3.15133	126
3.15500	126
3.15867	127
3.16233	126
3.16600	126
3.16967	126
3.17333	121
3.17700	112
3.18067	107
3.18433	107
3.18800	107
3.19167	106
3.19533	107
3.19900	109
3.20267	110
3.20633	112
3.21000	116
3.21367	118
3.21733	119
3.22100	119
3.22467	118
3.22833	116
3.23200	111
3.23567	104
3.23933	99
3.24300	96
3.24667	93
3.25033	90
3.25400	87
3.25767	86
3.26133	86
3.26500	87
3.26867	91
3.27233	96
3.27600	103
3.27967	109
3.28333	111
3.28700	108
3.29067	104
3.29433	101
3.29800	98
3.30167	99
3.30533	103
3.30900	106
3.31267	108
3.31633	109
3.32000	109
3.32367	106
3.32733	102
3.33100	97
3.33467	90
3.33833	86
3.34200	84
3.34567	84
3.34933	84
3.35300	83
3.35667	82
3.36033	83
3.36400	86
3.36767	87
3.37133	86
3.37500	83
3.37867	81
3.38233	75
3.38600	68
3.38967	61
3.39333	57
3.39700	58
3.40067	61
3.40433	64
3.40800	67
3.41167	69
3.41533	68
3.41900	71
3.42267	75
3.42633	80
3.43000	82
3.43367	84
3.43733	84
3.44100	86
3.44467	84
3.44833	82
3.45200	82
3.45567	79
3.45933	73
3.46300	66
3.46667	59
3.47033	52
3.47400	49
3.47767	50
3.48133	51
3.48500	52
3.48867	55
3.49233	60
3.49600	66
3.49967	72
3.50333	74
3.50700	73
3.51067	74
3.51433	75
3.51800	72
3.52167	65
3.52533	58
3.52900	55
3.53267	50
3.53633	44
3.54000	40
3.54367	41
3.54733	45
3.55100	48
3.55467	51
3.55833	55
3.56200	57
3.56567	53
3.56933	46
3.57300	41
3.57667	42
3.58033	47
3.58400	52
3.58767	56
3.59133	56
3.59500	54
3.59867	49
3.60233	44
3.60600	39
3.60967	37
3.61333	39
3.61700	41
3.62067	44
3.62433	46
3.62800	47
3.63167	45
3.63533	41
3.63900	39
3.64267	38
3.64633	37
3.65000	32
3.65367	28
3.65733	27
3.66100	30
3.66467	35
3.66833	39
3.67200	42
3.67567	44
3.67933	44
3.68300	43
3.68667	41
3.69033	42
3.69400	48
3.69767	53
3.70133	55
3.70500	51
3.70867	46
3.71233	43
3.71600	43
3.71967	42
3.72333	40
3.72700	35
3.73067	28
3.73433	24
3.73800	20
3.74167	17
3.74533	14
3.74900	13
3.75267	13
3.75633	16
3.76000	19
3.76367	23
3.76733	25
3.77100	24
3.77467	25
3.77833	28
3.78200	31
3.78567	31
3.78933	28
3.79300	29
3.79667	32
3.80033	35
3.80400	34
3.80767	28
3.81133	24
3.81500	22
3.81867	22
3.82233	23
3.82600	22
3.82967	22
3.83333	25
3.83700	30
3.84067	34
3.84433	33
3.84800	28
3.85167	23
3.85533	20
3.85900	18
3.86267	17
3.86633	14
3.87000	12
3.87367	10
3.87733	9
3.88100	12
3.88467	17
3.88833	23
3.89200	30
3.89567	36
3.89933	37
3.90300	31
3.90667	22
3.91033	14
3.91400	9
3.91767	8
3.92133	9
3.92500	11
3.92867	12
3.93233	12
3.93600	12
3.93967	12
3.94333	13
3.94700	15
3.95067	17
3.95433	16
3.95800	15
3.96167	12
3.96533	9
3.96900	7
3.97267	4
3.97633	2
3.98000	4
3.98367	6
3.98733	7
3.99100	8
3.99467	10
3.99833	10

[Chromatogram (Ch2)]
Interval(msec)	220
# of Points	1091
Start Time(min)	0.002
End Time(min)	3.998
R.Time (min)	Intensity
0.00167	-0
0.00533	0
0.00900	0
0.01267	0
0.01633	0
0.02000	-0
0.02367	-0
0.02733	0
0.03100	0
0.03467	0
0.03833	0
0.04200	0
0.04567	-0
0.04933	-1
0.05300	-1
0.05667	-0
0.06033	-0
0.06400	0
0.06767	0
0.07133	1
0.07500	1
0.07867	1
0.08233	1
0.08600	1
0.08967	1
0.09333	2
0.09700	2
0.10067	2
0.10433	2
0.10800	2
0.11167	2
0.11533	2
0.11900	2
0.12267	2
0.12633	2
0.13000	2
0.13367	2
0.13733	2
0.14100	2
0.14467	2
0.14833	2
0.15200	2
0.15567	2
0.15933	2
0.16300	1
0.16667	1
0.17033	1
0.17400	1
0.17767	1
0.18133	1
0.18500	1
0.18867	1
0.19233	1
0.19600	1
0.19967	1
0.20333	1
0.20700	1
0.21067	1
0.21433	1
0.21800	1
0.22167	1
0.22533	1
0.22900	1
0.23267	1
0.23633	1
0.24000	0
0.24367	0
0.24733	-0
0.25100	0
0.25467	0
0.25833	0
0.26200	1
0.26567	1
0.26933	1
0.27300	1
0.27667	1
0.28033	1
0.28400	1
0.28767	1
0.29133	1
0.29500	0
0.29867	0
0.30233	-0
0.30600	-0
0.30967	-0
0.31333	0
0.31700	0
0.32067	0
0.32433	0
0.32800	0
0.33167	0
0.33533	0
0.33900	0
0.34267	0
0.34633	0
0.35000	0
0.35367	0
0.35733	0
0.36100	1
0.36467	1
0.36833	1
0.37200	1
0.37567	1
0.37933	1
0.38300	1
0.38667	1
0.39033	1
0.39400	1
0.39767	1
0.40133	0
0.40500	0
0.40867	0
0.41233	0
0.41600	1
0.41967	1
0.42333	2
0.42700	2
0.43067	2
0.43433	2
0.43800	2
0.44167	1
0.44533	1
0.44900	1
0.45267	1
0.45633	1
0.46000	1
0.46367	0
0.46733	0
0.47100	-0
0.47467	-0
0.47833	-0
0.48200	-0
0.48567	-0
0.48933	-0
0.49300	0
0.49667	0
0.50033	1
0.50400	1
0.50767	1
0.51133	1
0.51500	1
0.51867	1
0.52233	1
0.52600	1
0.52967	1
0.53333	1
0.53700	1
0.54067	1
0.54433	1
0.54800	1
0.55167	1
0.55533	1
0.55900	1
0.56267	1
0.56633	1
0.57000	1
0.57367	1
0.57733	1
0.58100	1
0.58467	1
0.58833	1
0.59200	1
0.59567	1
0.59933	0
0.60300	0
0.60667	-0
0.61033	-0
0.61400	-0
0.61767	-0
0.62133	0
0.62500	0
0.62867	0
0.63233	0
0.63600	0
0.63967	0
0.64333	-0
0.64700	-0
0.65067	-0
0.65433	-0
0.65800	-0
0.66167	-0
0.66533	-0
0.66900	0
0.67267	0
0.67633	0
0.68000	0
0.68367	0
0.68733	0
0.69100	0
0.69467	0
0.69833	0
0.70200	0
0.70567	0
0.70933	-0
0.71300	-0
0.71667	-0
0.72033	-0
0.72400	-0
0.72767	-0
0.73133	-0
0.73500	-0
0.73867	-0
0.74233	-0
0.74600	-0
0.74967	-0
0.75333	-0
0.75700	-0
0.76067	-0
0.76433	0
0.76800	0
0.77167	0
0.77533	0
0.77900	0
0.78267	1
0.78633	1
0.79000	1
0.79367	1
0.79733	1
0.80100	1
0.80467	1
0.80833	1
0.81200	1
0.81567	1
0.81933	1
0.82300	1
0.82667	1
0.83033	1
0.83400	1
0.83767	0
0.84133	0
0.84500	0
0.84867	0
0.85233	0
0.85600	0
0.85967	0
0.86333	0
0.86700	0
0.87067	0
0.87433	0
0.87800	0
0.88167	0
0.88533	0
0.88900	-0
0.89267	-0
0.89633	-0
0.90000	-0
0.90367	-0
0.90733	-0
0.91100	0
0.91467	0
0.91833	-0
0.92200	-0
0.92567	-0
0.92933	-1
0.93300	-1
0.93667	-1
0.94033	-1
0.94400	-1
0.94767	-1
0.95133	-1
0.95500	-0
0.95867	-0
0.96233	-0
0.96600	-0
0.96967	-0
0.97333	-0
0.97700	0
0.98067	0
0.98433	0
0.98800	0
0.99167	0
0.99533	0
0.99900	0
1.00267	0
1.00633	0
1.01000	0
1.01367	0
1.01733	0
1.02100	-0
1.02467	-0
1.02833	-0
1.03200	-1
1.03567	-1
1.03933	-1
1.04300	-1
1.04667	-1
1.05033	-1
1.05400	-1
1.05767	-1
1.06133	-1
1.06500	-1
1.06867	-1
1.07233	-1
1.07600	-1
1.07967	-1
1.08333	-1
1.08700	-1
1.09067	-1
1.09433	-1
1.09800	-1
1.10167	-1
1.10533	-1
1.10900	-1
1.11267	-1
1.11633	-1
1.12000	-0
1.12367	-1
1.12733	-1
1.13100	-1
1.13467	-1
1.13833	-1
1.14200	-1
1.14567	-1
1.14933	-1
1.15300	-1
1.15667	-1
1.16033	-2
1.16400	-1
1.16767	-1
1.17133	-1
1.17500	-1
1.17867	-1
1.18233	-1
1.18600	-1
1.18967	-1
1.19333	-1
1.19700	-1
1.20067	-1
1.20433	-1
1.20800	-1
1.21167	-0
1.21533	-0
1.21900	0
1.22267	0
1.22633	0
1.23000	0
1.23367	0
1.23733	0
1.24100	0
1.24467	0
1.24833	0
1.25200	0
1.25567	0
1.25933	0
1.26300	0
1.26667	-0
1.27033	-0
1.27400	-1
1.27767	-1
1.28133	-1
1.28500	-1
1.28867	-0
1.29233	-0
1.29600	-0
1.29967	-0
1.30333	-0
1.30700	-0
1.31067	-1
1.31433	-1
1.31800	-1
1.32167	-1
1.32533	-1
1.32900	-1
1.33267	-1
1.33633	-1
1.34000	-1
1.34367	-1
1.34733	-0
1.35100	-0
1.35467	-1
1.35833	-1
1.36200	-1
1.36567	-1
1.36933	-1
1.37300	-1
1.37667	-0
1.38033	-0
1.38400	-0
1.38767	-0
1.39133	-0
1.39500	-0
1.39867	-0
1.40233	0
1.40600	0
1.40967	0
1.41333	0
1.41700	0
1.42067	0
1.42433	-0
1.42800	-1
1.43167	-1
1.43533	-1
1.43900	-2
1.44267	-2
1.44633	-2
1.45000	-2
1.45367	-2
1.45733	-2
1.46100	-2
1.46467	-2
1.46833	-2
1.47200	-2
1.47567	-2
1.47933	-1
1.48300	-1
1.48667	-1
1.49033	-1
1.49400	-1
1.49767	-1
1.50133	-1
1.50500	-2
1.50867	-2
1.51233	-2
1.51600	-2
1.51967	-2
1.52333	-2
1.52700	-2
1.53067	-1
1.53433	-1
1.53800	-1
1.54167	-1
1.54533	-1
1.54900	-1
1.55267	-1
1.55633	-1
1.56000	-1
1.56367	-1
1.56733	-1
1.57100	-1
1.57467	-1
1.57833	-1
1.58200	-1
1.58567	-1
1.58933	-1
1.59300	-1
1.59667	-2
1.60033	-3
1.60400	-4
1.60767	-5
1.61133	-6
1.61500	-8
1.61867	-11
1.62233	-13
1.62600	-16
1.62967	-19
1.63333	-23
1.63700	-26
1.64067	-29
1.64433	-32
1.64800	-36
1.65167	-39
1.65533	-42
1.65900	-46
1.66267	-49
1.66633	-53
1.67000	-58
1.67367	-62
1.67733	-66
1.68100	-70
1.68467	-74
1.68833	-78
1.69200	-81
1.69567	-84
1.69933	-86
1.70300	-88
1.70667	-89
1.71033	-90
1.71400	-91
1.71767	-92
1.72133	-93
1.72500	-93
1.72867	-94
1.73233	-95
1.73600	-95
1.73967	-96
1.74333	-96
1.74700	-96
1.75067	-96
1.75433	-95
1.75800	-95
1.76167	-94
1.76533	-93
1.76900	-93
1.77267	-92
1.77633	-92
1.78000	-93
1.78367	-93
1.78733	-94
1.79100	-95
1.79467	-96
1.79833	-97
1.80200	-98
1.80567	-99
1.80933	-99
1.81300	-100
1.81667	-100
1.82033	-100
1.82400	-100
1.82767	-100
1.83133	-100
1.83500	-99
1.83867	-99
1.84233	-98
1.84600	-98
1.84967	-97
1.85333	-97
1.85700	-97
1.86067	-97
1.86433	-97
1.86800	-97
1.87167	-97
1.87533	-97
1.87900	-97
1.88267	-97
1.88633	-97
1.89000	-97
1.89367	-97
1.89733	-97
1.90100	-98
1.90467	-98
1.90833	-98
1.91200	-98
1.91567	-98
1.91933	-98
1.92300	-98
1.92667	-97
1.93033	-97
1.93400	-97
1.93767	-96
1.94133	-96
1.94500	-95
1.94867	-94
1.95233	-93
1.95600	-93
1.95967	-92
1.96333	-92
1.96700	-92
1.97067	-92
1.97433	-91
1.97800	-91
1.98167	-91
1.98533	-91
1.98900	-91
1.99267	-91
1.99633	-90
2.00000	-90
2.00367	-89
2.00733	-89
2.01100	-88
2.01467	-88
2.01833	-88
2.02200	-88
2.02567	-88
2.02933	-89
2.03300	-89
2.03667	-89
2.04033	-89
2.04400	-89
2.04767	-89
2.05133	-88
2.05500	-88
2.05867	-88
2.06233	-88
2.06600	-88
2.06967	-87
2.07333	-87
2.07700	-86
2.08067	-86
2.08433	-85
2.08800	-85
2.09167	-85
2.09533	-85
2.09900	-84
2.10267	-84
2.10633	-84
2.11000	-83
2.11367	-83
2.11733	-83
2.12100	-82
2.12467	-82
2.12833	-82
2.13200	-82
2.13567	-82
2.13933	-82
2.14300	-82
2.14667	-81
2.15033	-81
2.15400	-81
2.15767	-80
2.16133	-80
2.16500	-80
2.16867	-79
2.17233	-79
2.17600	-79
2.17967	-78
2.18333	-78
2.18700	-77
2.19067	-77
2.19433	-76
2.19800	-76
2.20167	-75
2.20533	-75
2.20900	-75
2.21267	-75
2.21633	-75
2.22000	-74
2.22367	-74
2.22733	-74
2.23100	-73
2.23467	-72
2.23833	-72
2.24200	-71
2.24567	-71
2.24933	-72
2.25300	-72
2.25667	-72
2.26033	-72
2.26400	-72
2.26767	-72
2.27133	-72
2.27500	-71
2.27867	-71
2.28233	-71
2.28600	-70
2.28967	-70
2.29333	-69
2.29700	-69
2.30067	-68
2.30433	-67
2.30800	-67
2.31167	-67
2.31533	-67
2.31900	-67
2.32267	-66
2.32633	-66
2.33000	-65
2.33367	-65
2.33733	-64
2.34100	-64
2.34467	-64
2.34833	-64
2.35200	-63
2.35567	-62
2.35933	-60
2.36300	-58
2.36667	-56
2.37033	-54
2.37400	-51
2.37767	-48
2.38133	-45
2.38500	-41
2.38867	-37
2.39233	-33
2.39600	-29
2.39967	-25
2.40333	-21
2.40700	-17
2.41067	-13
2.41433	-10
2.41800	-7
2.42167	-4
2.42533	-2
2.42900	-0
2.43267	1
2.43633	2
2.44000	3
2.44367	5
2.44733	6
2.45100	7
2.45467	7
2.45833	8
2.46200	9
2.46567	10
2.46933	11
2.47300	12
2.47667	13
2.48033	14
2.48400	15
2.48767	15
2.49133	16
2.49500	16
2.49867	17
2.50233	18
2.50600	19
2.50967	19
2.51333	20
2.51700	20
2.52067	20
2.52433	21
2.52800	21
2.53167	21
2.53533	21
2.53900	20
2.54267	20
2.54633	20
2.55000	19
2.55367	18
2.55733	17
2.56100	16
2.56467	16
2.56833	15
2.57200	15
2.57567	15
2.57933	15
2.58300	15
2.58667	16
2.59033	16
2.59400	16
2.59767	16
2.60133	16
2.60500	17
2.60867	17
2.61233	18
2.61600	18
2.61967	19
2.62333	19
2.62700	20
2.63067	20
2.63433	20
2.63800	20
2.64167	21
2.64533	21
2.64900	22
2.65267	22
2.65633	23
2.66000	23
2.66367	23
2.66733	24
2.67100	24
2.67467	24
2.67833	25
2.68200	25
2.68567	25
2.68933	25
2.69300	26
2.69667	26
2.70033	26
2.70400	26
2.70767	26
2.71133	26
2.71500	26
2.71867	27
2.72233	27
2.72600	28
2.72967	28
2.73333	28
2.73700	29
2.74067	29
2.74433	28
2.74800	28
2.75167	28
2.75533	28
2.75900	28
2.76267	28
2.76633	28
2.77000	29
2.77367	29
2.77733	30
2.78100	30
2.78467	30
2.78833	30
2.79200	31
2.79567	31
2.79933	31
2.80300	31
2.80667	32
2.81033	32
2.81400	32
2.81767	32
2.82133	32
2.82500	32
2.82867	32
2.83233	32
2.83600	32
2.83967	31
2.84333	31
2.84700	30
2.85067	29
2.85433	29
2.85800	27
2.86167	25
2.86533	21
2.86900	14
2.87267	3
2.87633	-11
2.88000	-30
2.88367	-54
2.88733	-84
2.89100	-119
2.89467	-160
2.89833	-205
2.90200	-256
2.90567	-310
2.90933	-368
2.91300	-428
2.91667	-491
2.92033	-555
2.92400	-620
2.92767	-685
2.93133	-748
2.93500	-808
2.93867	-865
2.94233	-920
2.94600	-975
2.94967	-1029
2.95333	-1078
2.95700	-1110
2.96067	-1120
2.96433	-1104
2.96800	-1065
2.97167	-1007
2.97533	-936
2.97900	-858
2.98267	-776
2.98633	-695
2.99000	-617
2.99367	-543
2.99733	-474
3.00100	-412
3.00467	-356
3.00833	-306
3.01200	-262
3.01567	-223
3.01933	-190
3.02300	-160
3.02667	-135
3.03033	-113
3.03400	-94
3.03767	-78
3.04133	-64
3.04500	-52
3.04867	-42
3.05233	-33
3.05600	-26
3.05967	-19
3.06333	-14
3.06700	-10
3.07067	-6
3.07433	-2
3.07800	1
3.08167	3
3.08533	5
3.08900	7
3.09267	8
3.09633	10
3.10000	11
3.10367	12
3.10733	13
3.11100	13
3.11467	14
3.11833	15
3.12200	16
3.12567	17
3.12933	17
3.13300	18
3.13667	19
3.14033	19
3.14400	20
3.14767	20
3.15133	20
3.15500	21
3.15867	21
3.16233	21
3.16600	22
3.16967	22
3.17333	23
3.17700	23
3.18067	23
3.18433	23
3.18800	23
3.19167	23
3.19533	23
3.19900	23
3.20267	24
3.20633	24
3.21000	24
3.21367	24
3.21733	24
3.22100	24
3.22467	24
3.22833	24
3.23200	25
3.23567	25
3.23933	25
3.24300	26
3.24667	26
3.25033	26
3.25400	27
3.25767	27
3.26133	26
3.26500	26
3.26867	26
3.27233	26
3.27600	26
3.27967	26
3.28333	26
3.28700	26
3.29067	26
3.29433	26
3.29800	27
3.30167	27
3.30533	27
3.30900	27
3.31267	27
3.31633	28
3.32000	28
3.32367	28
3.32733	28
3.33100	28
3.33467	29
3.33833	29
3.34200	29
3.34567	29
3.34933	29
3.35300	28
3.35667	28
3.36033	28
3.36400	28
3.36767	28
3.37133	28
3.37500	28
3.37867	28
3.38233	28
3.38600	29
3.38967	29
3.39333	29
3.39700	29
3.40067	29
3.40433	29
3.40800	29
3.41167	30
3.41533	30
3.41900	30
3.42267	30
3.42633	30
3.43000	31
3.43367	31
3.43733	31
3.44100	31
3.44467	31
3.44833	31
3.45200	31
3.45567	31
3.45933	31
3.46300	31
3.46667	31
3.47033	31
3.47400	31
3.47767	31
3.48133	31
3.48500	31
3.48867	31
3.49233	31
3.49600	31
3.49967	31
3.50333	31
3.50700	31
3.51067	31
3.51433	31
3.51800	31
3.52167	31
3.52533	31
3.52900	30
3.53267	30
3.53633	30
3.54000	30
3.54367	30
3.54733	30
3.55100	30
3.55467	30
3.55833	30
3.56200	30
3.56567	30
3.56933	30
3.57300	30
3.57667	30
3.58033	30
3.58400	30
3.58767	30
3.59133	30
3.59500	31
3.59867	31
3.60233	31
3.60600	31
3.60967	31
3.61333	31
3.61700	31
3.62067	31
3.62433	31
3.62800	30
3.63167	30
3.63533	30
3.63900	30
3.64267	30
3.64633	30
3.65000	30
3.65367	30
3.65733	30
3.66100	30
3.66467	30
3.66833	30
3.67200	30
3.67567	30
3.67933	30
3.68300	30
3.68667	30
3.69033	30
3.69400	30
3.69767	30
3.70133	30
3.70500	30
3.70867	30
3.71233	30
3.71600	31
3.71967	31
3.72333	31
3.72700	31
3.73067	31
3.73433	31
3.73800	30
3.74167	30
3.74533	30
3.74900	30
3.75267	30
3.75633	30
3.76000	30
3.76367	30
3.76733	30
3.77100	30
3.77467	30
3.77833	30
3.78200	30
3.78567	30
3.78933	30
3.79300	30
3.79667	30
3.80033	30
3.80400	30
3.80767	30
3.81133	30
3.81500	30
3.81867	30
3.82233	31
3.82600	31
3.82967	31
3.83333	31
3.83700	31
3.84067	32
3.84433	32
3.84800	32
3.85167	32
3.85533	32
3.85900	32
3.86267	32
3.86633	32
3.87000	32
3.87367	32
3.87733	32
3.88100	31
3.88467	31
3.88833	31
3.89200	31
3.89567	31
3.89933	31
3.90300	30
3.90667	30
3.91033	30
3.91400	30
3.91767	30
3.92133	31
3.92500	30
3.92867	30
3.93233	30
3.93600	30
3.93967	30
3.94333	31
3.94700	31
3.95067	31
3.95433	31
3.95800	31
3.96167	31
3.96533	31
3.96900	31
3.97267	31
3.97633	31
3.98000	31
3.98367	31
3.98733	31
3.99100	31
3.99467	31
3.99833	31

[Chromatogram (Ch3)]
Interval(msec)	220
# of Points	1091
Start Time(min)	0.002
End Time(min)	3.998
R.Time (min)	Intensity
0.00167	-2
0.00533	-3
0.00900	-1
0.01267	3
0.01633	7
0.02000	8
0.02367	8
0.02733	6
0.03100	6
0.03467	9
0.03833	10
0.04200	10
0.04567	13
0.04933	13
0.05300	9
0.05667	5
0.06033	2
0.06400	2
0.06767	2
0.07133	4
0.07500	7
0.07867	9
0.08233	8
0.08600	5
0.08967	7
0.09333	7
0.09700	6
0.10067	5
0.10433	6
0.10800	7
0.11167	6
0.11533	6
0.11900	6
0.12267	6
0.12633	6
0.13000	6
0.13367	5
0.13733	7
0.14100	8
0.14467	7
0.14833	7
0.15200	6
0.15567	7
0.15933	10
0.16300	13
0.16667	14
0.17033	14
0.17400	12
0.17767	8
0.18133	5
0.18500	2
0.18867	2
0.19233	4
0.19600	4
0.19967	5
0.20333	5
0.20700	7
0.21067	7
0.21433	7
0.21800	8
0.22167	9
0.22533	10
0.22900	12
0.23267	10
0.23633	7
0.24000	4
0.24367	5
0.24733	5
0.25100	5
0.25467	4
0.25833	5
0.26200	7
0.26567	8
0.26933	7
0.27300	6
0.27667	7
0.28033	9
0.28400	10
0.28767	9
0.29133	7
0.29500	6
0.29867	7
0.30233	8
0.30600	7
0.30967	7
0.31333	6
0.31700	4
0.32067	4
0.32433	7
0.32800	10
0.33167	10
0.33533	11
0.33900	13
0.34267	13
0.34633	14
0.35000	14
0.35367	12
0.35733	9
0.36100	12
0.36467	13
0.36833	13
0.37200	13
0.37567	10
0.37933	6
0.38300	4
0.38667	6
0.39033	7
0.39400	6
0.39767	8
0.40133	9
0.40500	7
0.40867	7
0.41233	7
0.41600	8
0.41967	9
0.42333	10
0.42700	10
0.43067	11
0.43433	12
0.43800	12
0.44167	9
0.44533	9
0.44900	11
0.45267	14
0.45633	14
0.46000	9
0.46367	7
0.46733	6
0.47100	6
0.47467	4
0.47833	2
0.48200	3
0.48567	6
0.48933	7
0.49300	10
0.49667	13
0.50033	15
0.50400	15
0.50767	14
0.51133	12
0.51500	10
0.51867	10
0.52233	9
0.52600	10
0.52967	11
0.53333	9
0.53700	9
0.54067	10
0.54433	12
0.54800	11
0.55167	10
0.55533	8
0.55900	10
0.56267	12
0.56633	14
0.57000	15
0.57367	14
0.57733	13
0.58100	12
0.58467	10
0.58833	7
0.59200	4
0.59567	3
0.59933	5
0.60300	9
0.60667	13
0.61033	16
0.61400	15
0.61767	15
0.62133	14
0.62500	12
0.62867	11
0.63233	11
0.63600	9
0.63967	9
0.64333	10
0.64700	11
0.65067	11
0.65433	11
0.65800	11
0.66167	10
0.66533	7
0.66900	6
0.67267	3
0.67633	5
0.68000	7
0.68367	7
0.68733	7
0.69100	7
0.69467	7
0.69833	7
0.70200	9
0.70567	9
0.70933	9
0.71300	11
0.71667	12
0.72033	13
0.72400	16
0.72767	15
0.73133	16
0.73500	15
0.73867	12
0.74233	8
0.74600	6
0.74967	6
0.75333	5
0.75700	5
0.76067	4
0.76433	5
0.76800	7
0.77167	7
0.77533	9
0.77900	11
0.78267	11
0.78633	9
0.79000	8
0.79367	9
0.79733	9
0.80100	8
0.80467	9
0.80833	9
0.81200	9
0.81567	8
0.81933	8
0.82300	8
0.82667	6
0.83033	7
0.83400	9
0.83767	9
0.84133	9
0.84500	10
0.84867	14
0.85233	16
0.85600	16
0.85967	14
0.86333	13
0.86700	13
0.87067	12
0.87433	13
0.87800	11
0.88167	10
0.88533	7
0.88900	6
0.89267	8
0.89633	7
0.90000	6
0.90367	6
0.90733	9
0.91100	12
0.91467	12
0.91833	11
0.92200	9
0.92567	6
0.92933	6
0.93300	9
0.93667	13
0.94033	16
0.94400	16
0.94767	17
0.95133	16
0.95500	14
0.95867	15
0.96233	14
0.96600	12
0.96967	10
0.97333	10
0.97700	11
0.98067	12
0.98433	12
0.98800	12
0.99167	11
0.99533	12
0.99900	12
1.00267	12
1.00633	11
1.01000	10
1.01367	7
1.01733	6
1.02100	8
1.02467	10
1.02833	11
1.03200	12
1.03567	13
1.03933	14
1.04300	15
1.04667	14
1.05033	14
1.05400	16
1.05767	17
1.06133	16
1.06500	16
1.06867	15
1.07233	16
1.07600	17
1.07967	15
1.08333	13
1.08700	12
1.09067	14
1.09433	13
1.09800	12
1.10167	14
1.10533	16
1.10900	16
1.11267	16
1.11633	16
1.12000	17
1.12367	18
1.12733	16
1.13100	16
1.13467	16
1.13833	17
1.14200	19
1.14567	21
1.14933	18
1.15300	15
1.15667	11
1.16033	10
1.16400	14
1.16767	15
1.17133	14
1.17500	12
1.17867	11
1.18233	13
1.18600	15
1.18967	14
1.19333	12
1.19700	11
1.20067	14
1.20433	14
1.20800	14
1.21167	12
1.21533	9
1.21900	11
1.22267	11
1.22633	10
1.23000	12
1.23367	9
1.23733	8
1.24100	9
1.24467	10
1.24833	11
1.25200	13
1.25567	18
1.25933	18
1.26300	17
1.26667	16
1.27033	15
1.27400	16
1.27767	17
1.28133	19
1.28500	20
1.28867	19
1.29233	20
1.29600	21
1.29967	20
1.30333	20
1.30700	21
1.31067	22
1.31433	19
1.31800	17
1.32167	16
1.32533	17
1.32900	17
1.33267	17
1.33633	17
1.34000	16
1.34367	18
1.34733	17
1.35100	14
1.35467	13
1.35833	15
1.36200	15
1.36567	13
1.36933	15
1.37300	16
1.37667	18
1.38033	20
1.38400	20
1.38767	19
1.39133	19
1.39500	19
1.39867	18
1.40233	22
1.40600	21
1.40967	18
1.41333	17
1.41700	18
1.42067	20
1.42433	22
1.42800	21
1.43167	21
1.43533	21
1.43900	19
1.44267	18
1.44633	18
1.45000	16
1.45367	15
1.45733	16
1.46100	18
1.46467	20
1.46833	25
1.47200	28
1.47567	27
1.47933	25
1.48300	22
1.48667	22
1.49033	22
1.49400	23
1.49767	22
1.50133	19
1.50500	19
1.50867	18
1.51233	17
1.51600	16
1.51967	14
1.52333	14
1.52700	14
1.53067	15
1.53433	13
1.53800	11
1.54167	9
1.54533	9
1.54900	12
1.55267	16
1.55633	18
1.56000	17
1.56367	16
1.56733	15
1.57100	17
1.57467	17
1.57833	15
1.58200	14
1.58567	15
1.58933	16
1.59300	16
1.59667	16
1.60033	15
1.60400	15
1.60767	18
1.61133	22
1.61500	25
1.61867	25
1.62233	26
1.62600	24
1.62967	21
1.63333	20
1.63700	17
1.64067	15
1.64433	16
1.64800	17
1.65167	18
1.65533	18
1.65900	19
1.66267	21
1.66633	24
1.67000	25
1.67367	25
1.67733	23
1.68100	22
1.68467	24
1.68833	25
1.69200	26
1.69567	25
1.69933	24
1.70300	24
1.70667	26
1.71033	26
1.71400	26
1.71767	27
1.72133	28
1.72500	26
1.72867	29
1.73233	31
1.73600	29
1.73967	27
1.74333	27
1.74700	27
1.75067	27
1.75433	28
1.75800	29
1.76167	29
1.76533	27
1.76900	26
1.77267	26
1.77633	25
1.78000	26
1.78367	28
1.78733	31
1.79100	34
1.79467	32
1.79833	32
1.80200	32
1.80567	30
1.80933	29
1.81300	30
1.81667	31
1.82033	31
1.82400	30
1.82767	30
1.83133	30
1.83500	31
1.83867	31
1.84233	31
1.84600	34
1.84967	36
1.85333	35
1.85700	35
1.86067	35
1.86433	34
1.86800	33
1.87167	30
1.87533	30
1.87900	35
1.88267	37
1.88633	40
1.89000	41
1.89367	40
1.89733	40
1.90100	40
1.90467	39
1.90833	38
1.91200	37
1.91567	36
1.91933	34
1.92300	35
1.92667	35
1.93033	35
1.93400	38
1.93767	42
1.94133	42
1.94500	39
1.94867	36
1.95233	35
1.95600	37
1.95967	40
1.96333	42
1.96700	41
1.97067	40
1.97433	39
1.97800	41
1.98167	42
1.98533	42
1.98900	41
1.99267	42
1.99633	44
2.00000	46
2.00367	48
2.00733	49
2.01100	51
2.01467	51
2.01833	51
2.02200	51
2.02567	52
2.02933	54
2.03300	56
2.03667	57
2.04033	57
2.04400	59
2.04767	62
2.05133	63
2.05500	62
2.05867	58
2.06233	58
2.06600	58
2.06967	56
2.07333	56
2.07700	59
2.08067	62
2.08433	62
2.08800	66
2.09167	69
2.09533	69
2.09900	66
2.10267	62
2.10633	63
2.11000	63
2.11367	64
2.11733	68
2.12100	70
2.12467	71
2.12833	73
2.13200	74
2.13567	72
2.13933	72
2.14300	72
2.14667	73
2.15033	72
2.15400	76
2.15767	78
2.16133	76
2.16500	76
2.16867	79
2.17233	81
2.17600	81
2.17967	80
2.18333	79
2.18700	79
2.19067	80
2.19433	83
2.19800	85
2.20167	84
2.20533	84
2.20900	84
2.21267	84
2.21633	85
2.22000	85
2.22367	84
2.22733	83
2.23100	84
2.23467	83
2.23833	84
2.24200	88
2.24567	89
2.24933	90
2.25300	93
2.25667	95
2.26033	97
2.26400	97
2.26767	96
2.27133	95
2.27500	96
2.27867	99
2.28233	100
2.28600	101
2.28967	100
2.29333	98
2.29700	98
2.30067	98
2.30433	98
2.30800	97
2.31167	96
2.31533	95
2.31900	94
2.32267	94
2.32633	95
2.33000	96
2.33367	96
2.33733	98
2.34100	100
2.34467	101
2.34833	100
2.35200	102
2.35567	102
2.35933	102
2.36300	103
2.36667	103
2.37033	103
2.37400	102
2.37767	102
2.38133	103
2.38500	100
2.38867	93
2.39233	93
2.39600	99
2.39967	106
2.40333	114
2.40700	121
2.41067	127
2.41433	131
2.41800	133
2.42167	133
2.42533	133
2.42900	131
2.43267	128
2.43633	126
2.44000	129
2.44367	169
2.44733	239
2.45100	303
2.45467	352
2.45833	372
2.46200	364
2.46567	344
2.46933	327
2.47300	315
2.47667	300
2.48033	279
2.48400	255
2.48767	230
2.49133	208
2.49500	191
2.49867	181
2.50233	178
2.50600	178
2.50967	181
2.51333	183
2.51700	185
2.52067	184
2.52433	179
2.52800	172
2.53167	161
2.53533	149
2.53900	136
2.54267	122
2.54633	111
2.55000	102
2.55367	94
2.55733	86
2.56100	80
2.56467	81
2.56833	82
2.57200	81
2.57567	84
2.57933	86
2.58300	89
2.58667	96
2.59033	104
2.59400	112
2.59767	119
2.60133	124
2.60500	129
2.60867	134
2.61233	138
2.61600	139
2.61967	137
2.62333	132
2.62700	124
2.63067	116
2.63433	107
2.63800	96
2.64167	84
2.64533	78
2.64900	74
2.65267	70
2.65633	64
2.66000	59
2.66367	55
2.66733	52
2.67100	47
2.67467	44
2.67833	43
2.68200	41
2.68567	40
2.68933	39
2.69300	38
2.69667	38
2.70033	36
2.70400	35
2.70767	34
2.71133	35
2.71500	36
2.71867	37
2.72233	38
2.72600	38
2.72967	37
2.73333	39
2.73700	42
2.74067	47
2.74433	51
2.74800	51
2.75167	53
2.75533	59
2.75900	65
2.76267	67
2.76633	70
2.77000	72
2.77367	78
2.77733	83
2.78100	83
2.78467	82
2.78833	83
2.79200	87
2.79567	91
2.79933	95
2.80300	99
2.80667	102
2.81033	106
2.81400	107
2.81767	108
2.82133	108
2.82500	109
2.82867	112
2.83233	115
2.83600	122
2.83967	137
2.84333	170
2.84700	234
2.85067	346
2.85433	527
2.85800	790
2.86167	1135
2.86533	1550
2.86900	2013
2.87267	2493
2.87633	2944
2.88000	3330
2.88367	3620
2.88733	3800
2.89100	3862
2.89467	3816
2.89833	3682
2.90200	3478
2.90567	3228
2.90933	2954
2.91300	2677
2.91667	2403
2.92033	2143
2.92400	1900
2.92767	1676
2.93133	1474
2.93500	1295
2.93867	1139
2.94233	998
2.94600	871
2.94967	761
2.95333	666
2.95700	584
2.96067	514
2.96433	455
2.96800	404
2.97167	361
2.97533	323
2.97900	290
2.98267	260
2.98633	228
2.99000	154
2.99367	9
2.99733	-128
3.00100	-189
3.00467	-171
3.00833	-90
3.01200	29
3.01567	164
3.01933	301
3.02300	430
3.02667	542
3.03033	637
3.03400	716
3.03767	779
3.04133	828
3.04500	866
3.04867	895
3.05233	918
3.05600	933
3.05967	945
3.06333	954
3.06700	961
3.07067	965
3.07433	966
3.07800	968
3.08167	968
3.08533	966
3.08900	964
3.09267	964
3.09633	964
3.10000	962
3.10367	959
3.10733	955
3.11100	950
3.11467	946
3.11833	942
3.12200	939
3.12567	938
3.12933	938
3.13300	934
3.13667	930
3.14033	926
3.14400	920
3.14767	914
3.15133	910
3.15500	909
3.15867	909
3.16233	906
3.16600	900
3.16967	893
3.17333	890
3.17700	888
3.18067	886
3.18433	881
3.18800	878
3.19167	874
3.19533	871
3.19900	864
3.20267	859
3.20633	855
3.21000	850
3.21367	846
3.21733	847
3.22100	847
3.22467	843
3.22833	837
3.23200	834
3.23567	831
3.23933	828
3.24300	823
3.24667	818
3.25033	812
3.25400	806
3.25767	804
3.26133	801
3.26500	796
3.26867	791
3.27233	784
3.27600	778
3.27967	774
3.28333	773
3.28700	772
3.29067	771
3.29433	769
3.29800	766
3.30167	762
3.30533	755
3.30900	750
3.31267	748
3.31633	744
3.32000	741
3.32367	739
3.32733	736
3.33100	733
3.33467	731
3.33833	731
3.34200	730
3.34567	730
3.34933	729
3.35300	727
3.35667	727
3.36033	724
3.36400	721
3.36767	718
3.37133	716
3.37500	715
3.37867	712
3.38233	712
3.38600	713
3.38967	713
3.39333	713
3.39700	709
3.40067	707
3.40433	705
3.40800	701
3.41167	699
3.41533	700
3.41900	702
3.42267	700
3.42633	695
3.43000	692
3.43367	690
3.43733	686
3.44100	682
3.44467	680
3.44833	677
3.45200	674
3.45567	670
3.45933	665
3.46300	661
3.46667	656
3.47033	650
3.47400	643
3.47767	639
3.48133	637
3.48500	636
3.48867	634
3.49233	632
3.49600	628
3.49967	624
3.50333	620
3.50700	619
3.51067	620
3.51433	616
3.51800	612
3.52167	608
3.52533	606
3.52900	606
3.53267	605
3.53633	602
3.54000	598
3.54367	594
3.54733	590
3.55100	588
3.55467	586
3.55833	583
3.56200	581
3.56567	580
3.56933	580
3.57300	579
3.57667	576
3.58033	573
3.58400	571
3.58767	566
3.59133	562
3.59500	561
3.59867	562
3.60233	562
3.60600	562
3.60967	559
3.61333	555
3.61700	552
3.62067	548
3.62433	547
3.62800	546
3.63167	545
3.63533	546
3.63900	547
3.64267	547
3.64633	543
3.65000	540
3.65367	537
3.65733	536
3.66100	536
3.66467	536
3.66833	537
3.67200	538
3.67567	537
3.67933	536
3.68300	535
3.68667	534
3.69033	534
3.69400	536
3.69767	536
3.70133	535
3.70500	534
3.70867	531
3.71233	528
3.71600	527
3.71967	527
3.72333	527
3.72700	527
3.73067	527
3.73433	528
3.73800	528
3.74167	528
3.74533	526
3.74900	524
3.75267	525
3.75633	525
3.76000	523
3.76367	521
3.76733	520
3.77100	520
3.77467	516
3.77833	515
3.78200	514
3.78567	513
3.78933	513
3.79300	512
3.79667	511
3.80033	511
3.80400	514
3.80767	516
3.81133	514
3.81500	512
3.81867	510
3.82233	508
3.82600	508
3.82967	508
3.83333	509
3.83700	512
3.84067	511
3.84433	508
3.84800	504
3.85167	501
3.85533	501
3.85900	500
3.86267	500
3.86633	502
3.87000	502
3.87367	501
3.87733	500
3.88100	497
3.88467	494
3.88833	491
3.89200	491
3.89567	491
3.89933	490
3.90300	488
3.90667	489
3.91033	488
3.91400	490
3.91767	492
3.92133	490
3.92500	488
3.92867	487
3.93233	488
3.93600	487
3.93967	486
3.94333	486
3.94700	487
3.95067	487
3.95433	482
3.95800	479
3.96167	479
3.96533	481
3.96900	481
3.97267	480
3.97633	478
3.98000	475
3.98367	473
3.98733	471
3.99100	469
3.99467	467
3.99833	461

[Status Trace (Column Oven Temperature)]
Interval(msec)	1000
# of Points	239
Start Time(min)	0.009
End Time(min)	3.976
Intensity Units	
Intensity Multiplier	1
R.Time (min)	Intensity
0.00947	35.04
0.02613	35.03
0.04280	35.03
0.05947	35.04
0.07613	35.03
0.09280	35.03
0.10947	35.02
0.12613	35.02
0.14280	35.02
0.15947	35.02
0.17613	35.01
0.19280	35.01
0.20947	35.01
0.22613	35.01
0.24280	35.01
0.25947	35.02
0.27613	35.02
0.29280	35.02
0.30947	35.03
0.32613	35.02
0.34280	35.02
0.35947	35.02
0.37613	35.02
0.39280	35.02
0.40947	35.02
0.42613	35.01
0.44280	35.00
0.45947	35.00
0.47613	35.00
0.49280	35.01
0.50947	35.01
0.52613	35.00
0.54280	35.00
0.55947	35.00
0.57613	35.00
0.59280	34.99
0.60947	35.00
0.62613	35.00
0.64280	35.00
0.65947	35.00
0.67613	34.99
0.69280	35.00
0.70947	34.99
0.72613	35.00
0.74280	35.00
0.75947	35.00
0.77613	35.00
0.79280	34.99
0.80947	34.99
0.82613	34.99
0.84280	34.99
0.85947	34.99
0.87613	34.99
0.89280	34.99
0.90947	34.99
0.92613	34.99
0.94280	35.00
0.95947	34.99
0.97613	34.99
0.99280	34.98
1.00947	34.99
1.02613	34.99
1.04280	34.99
1.05947	35.00
1.07613	35.00
1.09280	34.99
1.10947	34.98
1.12613	34.99
1.14280	35.00
1.15947	35.01
1.17613	35.00
1.19280	35.00
1.20947	35.00
1.22613	35.00
1.24280	35.00
1.25947	35.00
1.27613	35.01
1.29280	35.00
1.30947	35.00
1.32613	35.00
1.34280	34.99
1.35947	34.99
1.37613	34.99
1.39280	34.99
1.40947	34.99
1.42613	34.99
1.44280	34.99
1.45947	35.00
1.47613	35.00
1.49280	35.00
1.50947	35.00
1.52613	35.00
1.54280	34.99
1.55947	34.99
1.57613	34.99
1.59280	35.01
1.60947	35.06
1.62613	35.19
1.64280	35.39
1.65947	35.64
1.67613	35.98
1.69280	36.34
1.70947	36.69
1.72613	37.04
1.74280	37.38
1.75947	37.69
1.77613	37.99
1.79280	38.34
1.80947	38.68
1.82613	39.02
1.84280	39.34
1.85947	39.67
1.87613	40.00
1.89280	40.34
1.90947	40.68
1.92613	41.01
1.94280	41.33
1.95947	41.64
1.97613	41.98
1.99280	42.31
2.00947	42.61
2.02613	42.96
2.04280	43.27
2.05947	43.60
2.07613	43.92
2.09280	44.25
2.10947	44.58
2.12613	44.91
2.14280	45.24
2.15947	45.56
2.17613	45.90
2.19280	46.22
2.20947	46.56
2.22613	46.89
2.24280	47.20
2.25947	47.54
2.27613	47.88
2.29280	48.20
2.30947	48.54
2.32613	48.86
2.34280	49.18
2.35947	49.45
2.37613	49.61
2.39280	49.66
2.40947	49.65
2.42613	49.67
2.44280	49.67
2.45947	49.68
2.47613	49.69
2.49280	49.71
2.50947	49.72
2.52613	49.73
2.54280	49.73
2.55947	49.76
2.57613	49.75
2.59280	49.79
2.60947	49.80
2.62613	49.82
2.64280	49.82
2.65947	49.82
2.67613	49.83
2.69280	49.84
2.70947	49.85
2.72613	49.85
2.74280	49.86
2.75947	49.86
2.77613	49.87
2.79280	49.85
2.80947	49.85
2.82613	49.85
2.84280	49.87
2.85947	49.89
2.87613	49.90
2.89280	49.91
2.90947	49.92
2.92613	49.93
2.94280	49.95
2.95947	49.95
2.97613	49.96
2.99280	49.96
3.00947	49.97
3.02613	49.97
3.04280	49.98
3.05947	49.98
3.07613	50.00
3.09280	50.01
3.10947	50.01
3.12613	50.02
3.14280	50.03
3.15947	50.04
3.17613	50.05
3.19280	50.06
3.20947	50.06
3.22613	50.06
3.24280	50.06
3.25947	50.06
3.27613	50.07
3.29280	50.08
3.30947	50.09
3.32613	50.09
3.34280	50.09
3.35947	50.10
3.37613	50.10
3.39280	50.10
3.40947	50.10
3.42613	50.10
3.44280	50.09
3.45947	50.08
3.47613	50.07
3.49280	50.07
3.50947	50.07
3.52613	50.07
3.54280	50.07
3.55947	50.07
3.57613	50.07
3.59280	50.07
3.60947	50.06
3.62613	50.06
3.64280	50.05
3.65947	50.06
3.67613	50.07
3.69280	50.07
3.70947	50.06
3.72613	50.06
3.74280	50.06
3.75947	50.06
3.77613	50.06
3.79280	50.06
3.80947	50.06
3.82613	50.06
3.84280	50.06
3.85947	50.06
3.87613	50.06
3.89280	50.07
3.90947	50.07
3.92613	50.07
3.94280	50.06
3.95947	50.06
3.97613	50.07

[Status Trace (Injection Unit Temperature)]
Interval(msec)	1000
# of Points	239
Start Time(min)	0.009
End Time(min)	3.976
Intensity Units	
Intensity Multiplier	1
R.Time (min)	Intensity
0.00947	99.98
0.02613	99.98
0.04280	99.98
0.05947	99.98
0.07613	99.98
0.09280	99.98
0.10947	99.98
0.12613	99.98
0.14280	99.98
0.15947	99.98
0.17613	99.98
0.19280	99.98
0.20947	99.98
0.22613	99.98
0.24280	99.98
0.25947	99.98
0.27613	99.98
0.29280	99.98
0.30947	99.98
0.32613	99.98
0.34280	99.98
0.35947	99.98
0.37613	99.98
0.39280	99.99
0.40947	99.98
0.42613	99.98
0.44280	99.98
0.45947	99.98
0.47613	99.98
0.49280	99.98
0.50947	99.98
0.52613	99.98
0.54280	99.98
0.55947	99.98
0.57613	99.98
0.59280	99.99
0.60947	99.98
0.62613	99.98
0.64280	99.98
0.65947	99.98
0.67613	99.98
0.69280	99.98
0.70947	99.98
0.72613	99.98
0.74280	99.98
0.75947	99.98
0.77613	99.98
0.79280	99.98
0.80947	99.98
0.82613	99.98
0.84280	99.98
0.85947	99.98
0.87613	99.98
0.89280	99.98
0.90947	99.98
0.92613	99.98
0.94280	99.98
0.95947	99.98
0.97613	99.98
0.99280	99.98
1.00947	99.98
1.02613	99.98
1.04280	99.98
1.05947	99.98
1.07613	99.98
1.09280	99.98
1.10947	99.98
1.12613	99.98
1.14280	99.98
1.15947	99.98
1.17613	99.98
1.19280	99.98
1.20947	99.98
1.22613	99.98
1.24280	99.98
1.25947	99.98
1.27613	99.98
1.29280	99.99
1.30947	99.98
1.32613	99.99
1.34280	99.98
1.35947	99.98
1.37613	99.99
1.39280	99.99
1.40947	99.99
1.42613	99.98
1.44280	99.99
1.45947	99.98
1.47613	99.98
1.49280	99.98
1.50947	99.98
1.52613	99.98
1.54280	99.99
1.55947	99.99
1.57613	99.98
1.59280	99.98
1.60947	99.98
1.62613	99.98
1.64280	99.98
1.65947	99.98
1.67613	99.98
1.69280	99.98
1.70947	99.98
1.72613	99.98
1.74280	99.98
1.75947	99.98
1.77613	99.98
1.79280	99.98
1.80947	99.98
1.82613	99.98
1.84280	99.97
1.85947	99.97
1.87613	99.97
1.89280	99.97
1.90947	99.97
1.92613	99.97
1.94280	99.97
1.95947	99.97
1.97613	99.97
1.99280	99.97
2.00947	99.97
2.02613	99.97
2.04280	99.97
2.05947	99.97
2.07613	99.97
2.09280	99.97
2.10947	99.96
2.12613	99.97
2.14280	99.97
2.15947	99.96
2.17613	99.96
2.19280	99.96
2.20947	99.96
2.22613	99.96
2.24280	99.96
2.25947	99.96
2.27613	99.96
2.29280	99.96
2.30947	99.97
2.32613	99.96
2.34280	99.96
2.35947	99.96
2.37613	99.96
2.39280	99.96
2.40947	99.96
2.42613	99.96
2.44280	99.96
2.45947	99.97
2.47613	99.97
2.49280	99.97
2.50947	99.97
2.52613	99.97
2.54280	99.97
2.55947	99.97
2.57613	99.97
2.59280	99.97
2.60947	99.97
2.62613	99.97
2.64280	99.97
2.65947	99.98
2.67613	99.98
2.69280	99.98
2.70947	99.98
2.72613	99.98
2.74280	99.98
2.75947	99.98
2.77613	99.98
2.79280	99.99
2.80947	99.99
2.82613	99.99
2.84280	99.99
2.85947	99.99
2.87613	99.99
2.89280	100.00
2.90947	100.00
2.92613	100.00
2.94280	100.00
2.95947	99.99
2.97613	100.00
2.99280	100.00
3.00947	100.00
3.02613	100.00
3.04280	100.00
3.05947	100.00
3.07613	100.00
3.09280	100.01
3.10947	100.00
3.12613	100.01
3.14280	100.01
3.15947	100.01
3.17613	100.01
3.19280	100.01
3.20947	100.01
3.22613	100.02
3.24280	100.02
3.25947	100.02
3.27613	100.02
3.29280	100.02
3.30947	100.02
3.32613	100.02
3.34280	100.03
3.35947	100.02
3.37613	100.02
3.39280	100.03
3.40947	100.03
3.42613	100.03
3.44280	100.03
3.45947	100.03
3.47613	100.03
3.49280	100.03
3.50947	100.03
3.52613	100.03
3.54280	100.03
3.55947	100.04
3.57613	100.03
3.59280	100.03
3.60947	100.04
3.62613	100.03
3.64280	100.04
3.65947	100.03
3.67613	100.04
3.69280	100.03
3.70947	100.04
3.72613	100.04
3.74280	100.03
3.75947	100.03
3.77613	100.04
3.79280	100.04
3.80947	100.04
3.82613	100.04
3.84280	100.04
3.85947	100.04
3.87613	100.04
3.89280	100.04
3.90947	100.05
3.92613	100.04
3.94280	100.04
3.95947	100.04
3.97613	100.04

[Status Trace (Carrier Gas Pressure)]
Interval(msec)	1000
# of Points	239
Start Time(min)	0.009
End Time(min)	3.976
Intensity Units	
Intensity Multiplier	1
R.Time (min)	Intensity
0.00947	58.00
0.02613	55.21
0.04280	57.27
0.05947	59.42
0.07613	59.38
0.09280	58.05
0.10947	57.98
0.12613	58.01
0.14280	58.01
0.15947	58.01
0.17613	58.00
0.19280	58.00
0.20947	58.00
0.22613	58.00
0.24280	58.00
0.25947	58.00
0.27613	58.00
0.29280	58.00
0.30947	58.00
0.32613	58.00
0.34280	58.00
0.35947	58.00
0.37613	58.00
0.39280	58.00
0.40947	58.00
0.42613	58.00
0.44280	58.00
0.45947	58.00
0.47613	58.00
0.49280	58.00
0.50947	58.00
0.52613	58.00
0.54280	58.00
0.55947	58.00
0.57613	58.00
0.59280	58.00
0.60947	58.00
0.62613	58.00
0.64280	58.00
0.65947	58.00
0.67613	58.00
0.69280	58.00
0.70947	58.00
0.72613	58.00
0.74280	58.00
0.75947	58.00
0.77613	58.00
0.79280	58.00
0.80947	58.00
0.82613	58.00
0.84280	58.00
0.85947	58.00
0.87613	58.00
0.89280	58.00
0.90947	58.00
0.92613	58.00
0.94280	58.00
0.95947	58.00
0.97613	58.00
0.99280	58.00
1.00947	58.00
1.02613	58.00
1.04280	58.00
1.05947	58.00
1.07613	58.00
1.09280	58.00
1.10947	58.00
1.12613	58.00
1.14280	58.00
1.15947	58.00
1.17613	58.00
1.19280	58.00
1.20947	58.00
1.22613	58.00
1.24280	58.00
1.25947	58.00
1.27613	58.00
1.29280	58.00
1.30947	58.00
1.32613	58.00
1.34280	58.00
1.35947	58.00
1.37613	58.00
1.39280	58.00
1.40947	58.00
1.42613	58.00
1.44280	58.00
1.45947	58.00
1.47613	58.00
1.49280	58.00
1.50947	58.00
1.52613	58.00
1.54280	58.00
1.55947	58.00
1.57613	58.00
1.59280	58.00
1.60947	58.00
1.62613	58.00
1.64280	58.00
1.65947	58.00
1.67613	58.01
1.69280	58.00
1.70947	58.00
1.72613	58.00
1.74280	58.00
1.75947	58.00
1.77613	58.00
1.79280	58.00
1.80947	58.00
1.82613	58.00
1.84280	58.00
1.85947	58.00
1.87613	58.00
1.89280	58.00
1.90947	58.00
1.92613	58.00
1.94280	58.00
1.95947	58.00
1.97613	58.00
1.99280	58.00
2.00947	58.00
2.02613	58.00
2.04280	58.00
2.05947	58.00
2.07613	58.00
2.09280	58.00
2.10947	58.00
2.12613	58.00
2.14280	58.00
2.15947	58.00
2.17613	58.00
2.19280	58.00
2.20947	58.00
2.22613	58.00
2.24280	58.00
2.25947	58.00
2.27613	58.00
2.29280	58.00
2.30947	58.00
2.32613	58.00
2.34280	58.00
2.35947	58.00
2.37613	58.00
2.39280	57.99
2.40947	58.00
2.42613	58.00
2.44280	58.00
2.45947	58.00
2.47613	58.00
2.49280	58.00
2.50947	58.00
2.52613	57.98
2.54280	58.00
2.55947	58.00
2.57613	58.00
2.59280	58.00
2.60947	58.00
2.62613	58.00
2.64280	58.00
2.65947	58.00
2.67613	58.00
2.69280	58.00
2.70947	58.00
2.72613	58.00
2.74280	58.00
2.75947	58.00
2.77613	58.00
2.79280	58.00
2.80947	58.00
2.82613	58.00
2.84280	58.00
2.85947	58.00
2.87613	58.00
2.89280	58.00
2.90947	58.00
2.92613	58.00
2.94280	58.00
2.95947	58.00
2.97613	58.00
2.99280	58.00
3.00947	58.00
3.02613	58.00
3.04280	58.00
3.05947	58.00
3.07613	58.00
3.09280	58.00
3.10947	58.00
3.12613	58.00
3.14280	58.00
3.15947	58.00
3.17613	58.00
3.19280	58.00
3.20947	58.00
3.22613	58.00
3.24280	58.00
3.25947	58.00
3.27613	58.00
3.29280	58.00
3.30947	58.00
3.32613	58.00
3.34280	58.00
3.35947	58.00
3.37613	58.00
3.39280	58.00
3.40947	58.00
3.42613	58.00
3.44280	58.00
3.45947	58.00
3.47613	58.00
3.49280	58.00
3.50947	58.00
3.52613	58.00
3.54280	58.00
3.55947	58.00
3.57613	58.00
3.59280	58.00
3.60947	58.00
3.62613	58.00
3.64280	58.00
3.65947	58.00
3.67613	58.00
3.69280	58.00
3.70947	58.00
3.72613	58.00
3.74280	58.00
3.75947	58.00
3.77613	58.00
3.79280	58.00
3.80947	58.00
3.82613	58.00
3.84280	58.00
3.85947	58.00
3.87613	58.00
3.89280	58.00
3.90947	58.00
3.92613	58.00
3.94280	58.00
3.95947	58.00
3.97613	58.00

[Status Trace (Carrier Gas Flow)]
Interval(msec)	1000
# of Points	239
Start Time(min)	0.009
End Time(min)	3.976
Intensity Units	
Intensity Multiplier	1
R.Time (min)	Intensity
0.00947	34.51
0.02613	34.53
0.04280	34.55
0.05947	34.54
0.07613	34.50
0.09280	34.53
0.10947	34.52
0.12613	34.52
0.14280	34.53
0.15947	34.52
0.17613	34.52
0.19280	34.52
0.20947	34.52
0.22613	34.51
0.24280	34.52
0.25947	34.52
0.27613	34.52
0.29280	34.52
0.30947	34.52
0.32613	34.52
0.34280	34.52
0.35947	34.52
0.37613	34.52
0.39280	34.52
0.40947	34.52
0.42613	34.51
0.44280	34.52
0.45947	34.51
0.47613	34.52
0.49280	34.52
0.50947	34.52
0.52613	34.52
0.54280	34.52
0.55947	34.52
0.57613	34.52
0.59280	34.52
0.60947	34.52
0.62613	34.51
0.64280	34.51
0.65947	34.52
0.67613	34.52
0.69280	34.51
0.70947	34.52
0.72613	34.52
0.74280	34.52
0.75947	34.52
0.77613	34.52
0.79280	34.52
0.80947	34.52
0.82613	34.52
0.84280	34.52
0.85947	34.52
0.87613	34.52
0.89280	34.52
0.90947	34.51
0.92613	34.52
0.94280	34.52
0.95947	34.51
0.97613	34.52
0.99280	34.52
1.00947	34.52
1.02613	34.52
1.04280	34.52
1.05947	34.51
1.07613	34.52
1.09280	34.53
1.10947	34.51
1.12613	34.52
1.14280	34.52
1.15947	34.52
1.17613	34.52
1.19280	34.52
1.20947	34.52
1.22613	34.52
1.24280	34.52
1.25947	34.52
1.27613	34.52
1.29280	34.52
1.30947	34.53
1.32613	34.52
1.34280	34.52
1.35947	34.52
1.37613	34.52
1.39280	34.52
1.40947	34.52
1.42613	34.52
1.44280	34.52
1.45947	34.51
1.47613	34.52
1.49280	34.52
1.50947	34.52
1.52613	34.52
1.54280	34.52
1.55947	34.52
1.57613	34.52
1.59280	34.52
1.60947	34.52
1.62613	34.51
1.64280	34.52
1.65947	34.52
1.67613	34.52
1.69280	34.52
1.70947	34.52
1.72613	34.52
1.74280	34.52
1.75947	34.53
1.77613	34.52
1.79280	34.52
1.80947	34.52
1.82613	34.51
1.84280	34.52
1.85947	34.52
1.87613	34.53
1.89280	34.52
1.90947	34.52
1.92613	34.52
1.94280	34.53
1.95947	34.52
1.97613	34.52
1.99280	34.53
2.00947	34.52
2.02613	34.52
2.04280	34.52
2.05947	34.52
2.07613	34.53
2.09280	34.52
2.10947	34.52
2.12613	34.52
2.14280	34.52
2.15947	34.52
2.17613	34.52
2.19280	34.52
2.20947	34.52
2.22613	34.52
2.24280	34.52
2.25947	34.52
2.27613	34.52
2.29280	34.52
2.30947	34.52
2.32613	34.52
2.34280	34.51
2.35947	34.52
2.37613	34.53
2.39280	34.52
2.40947	34.52
2.42613	34.52
2.44280	34.52
2.45947	34.52
2.47613	34.52
2.49280	34.52
2.50947	34.51
2.52613	34.52
2.54280	34.51
2.55947	34.52
2.57613	34.52
2.59280	34.52
2.60947	34.52
2.62613	34.51
2.64280	34.51
2.65947	34.52
2.67613	34.52
2.69280	34.53
2.70947	34.52
2.72613	34.52
2.74280	34.52
2.75947	34.51
2.77613	34.52
2.79280	34.51
2.80947	34.51
2.82613	34.52
2.84280	34.52
2.85947	34.52
2.87613	34.51
2.89280	34.52
2.90947	34.52
2.92613	34.52
2.94280	34.52
2.95947	34.52
2.97613	34.52
2.99280	34.52
3.00947	34.51
3.02613	34.52
3.04280	34.52
3.05947	34.52
3.07613	34.52
3.09280	34.52
3.10947	34.52
3.12613	34.52
3.14280	34.52
3.15947	34.52
3.17613	34.52
3.19280	34.52
3.20947	34.52
3.22613	34.52
3.24280	34.52
3.25947	34.52
3.27613	34.52
3.29280	34.52
3.30947	34.52
3.32613	34.52
3.34280	34.52
3.35947	34.52
3.37613	34.52
3.39280	34.52
3.40947	34.52
3.42613	34.52
3.44280	34.52
3.45947	34.52
3.47613	34.52
3.49280	34.52
3.50947	34.53
3.52613	34.51
3.54280	34.52
3.55947	34.51
3.57613	34.51
3.59280	34.52
3.60947	34.52
3.62613	34.52
3.64280	34.52
3.65947	34.51
3.67613	34.51
3.69280	34.51
3.70947	34.52
3.72613	34.52
3.74280	34.52
3.75947	34.52
3.77613	34.52
3.79280	34.52
3.80947	34.51
3.82613	34.52
3.84280	34.53
3.85947	34.52
3.87613	34.52
3.89280	34.52
3.90947	34.52
3.92613	34.52
3.94280	34.52
3.95947	34.52
3.97613	34.52

[Status Trace (Column Flow)]
Interval(msec)	1000
# of Points	239
Start Time(min)	0.009
End Time(min)	3.976
Intensity Units	
Intensity Multiplier	1
R.Time (min)	Intensity
0.00947	5.51
0.02613	5.18
0.04280	5.42
0.05947	5.67
0.07613	5.67
0.09280	5.51
0.10947	5.50
0.12613	5.51
0.14280	5.51
0.15947	5.51
0.17613	5.51
0.19280	5.51
0.20947	5.51
0.22613	5.51
0.24280	5.51
0.25947	5.51
0.27613	5.51
0.29280	5.51
0.30947	5.51
0.32613	5.51
0.34280	5.51
0.35947	5.51
0.37613	5.51
0.39280	5.51
0.40947	5.51
0.42613	5.51
0.44280	5.51
0.45947	5.51
0.47613	5.51
0.49280	5.51
0.50947	5.51
0.52613	5.51
0.54280	5.51
0.55947	5.51
0.57613	5.51
0.59280	5.51
0.60947	5.51
0.62613	5.51
0.64280	5.51
0.65947	5.51
0.67613	5.51
0.69280	5.51
0.70947	5.51
0.72613	5.51
0.74280	5.51
0.75947	5.51
0.77613	5.51
0.79280	5.51
0.80947	5.51
0.82613	5.51
0.84280	5.51
0.85947	5.51
0.87613	5.51
0.89280	5.51
0.90947	5.51
0.92613	5.51
0.94280	5.51
0.95947	5.51
0.97613	5.51
0.99280	5.51
1.00947	5.51
1.02613	5.51
1.04280	5.51
1.05947	5.51
1.07613	5.51
1.09280	5.51
1.10947	5.51
1.12613	5.51
1.14280	5.51
1.15947	5.51
1.17613	5.51
1.19280	5.51
1.20947	5.51
1.22613	5.51
1.24280	5.51
1.25947	5.51
1.27613	5.51
1.29280	5.51
1.30947	5.51
1.32613	5.51
1.34280	5.51
1.35947	5.51
1.37613	5.51
1.39280	5.51
1.40947	5.51
1.42613	5.51
1.44280	5.51
1.45947	5.51
1.47613	5.51
1.49280	5.51
1.50947	5.51
1.52613	5.51
1.54280	5.51
1.55947	5.51
1.57613	5.51
1.59280	5.51
1.60947	5.50
1.62613	5.50
1.64280	5.49
1.65947	5.49
1.67613	5.48
1.69280	5.46
1.70947	5.45
1.72613	5.44
1.74280	5.43
1.75947	5.42
1.77613	5.41
1.79280	5.40
1.80947	5.39
1.82613	5.38
1.84280	5.37
1.85947	5.36
1.87613	5.35
1.89280	5.34
1.90947	5.33
1.92613	5.32
1.94280	5.31
1.95947	5.30
1.97613	5.29
1.99280	5.28
2.00947	5.27
2.02613	5.26
2.04280	5.26
2.05947	5.25
2.07613	5.24
2.09280	5.23
2.10947	5.22
2.12613	5.21
2.14280	5.20
2.15947	5.19
2.17613	5.18
2.19280	5.17
2.20947	5.16
2.22613	5.15
2.24280	5.14
2.25947	5.13
2.27613	5.12
2.29280	5.11
2.30947	5.10
2.32613	5.10
2.34280	5.09
2.35947	5.08
2.37613	5.07
2.39280	5.07
2.40947	5.07
2.42613	5.07
2.44280	5.07
2.45947	5.07
2.47613	5.07
2.49280	5.07
2.50947	5.07
2.52613	5.07
2.54280	5.07
2.55947	5.07
2.57613	5.07
2.59280	5.07
2.60947	5.07
2.62613	5.07
2.64280	5.07
2.65947	5.07
2.67613	5.07
2.69280	5.07
2.70947	5.07
2.72613	5.07
2.74280	5.07
2.75947	5.07
2.77613	5.07
2.79280	5.07
2.80947	5.07
2.82613	5.07
2.84280	5.07
2.85947	5.07
2.87613	5.07
2.89280	5.07
2.90947	5.07
2.92613	5.07
2.94280	5.07
2.95947	5.07
2.97613	5.07
2.99280	5.07
3.00947	5.07
3.02613	5.07
3.04280	5.07
3.05947	5.06
3.07613	5.06
3.09280	5.06
3.10947	5.06
3.12613	5.06
3.14280	5.06
3.15947	5.06
3.17613	5.06
3.19280	5.06
3.20947	5.06
3.22613	5.06
3.24280	5.06
3.25947	5.06
3.27613	5.06
3.29280	5.06
3.30947	5.06
3.32613	5.06
3.34280	5.06
3.35947	5.06
3.37613	5.06
3.39280	5.06
3.40947	5.06
3.42613	5.06
3.44280	5.06
3.45947	5.06
3.47613	5.06
3.49280	5.06
3.50947	5.06
3.52613	5.06
3.54280	5.06
3.55947	5.06
3.57613	5.06
3.59280	5.06
3.60947	5.06
3.62613	5.06
3.64280	5.06
3.65947	5.06
3.67613	5.06
3.69280	5.06
3.70947	5.06
3.72613	5.06
3.74280	5.06
3.75947	5.06
3.77613	5.06
3.79280	5.06
3.80947	5.06
3.82613	5.06
3.84280	5.06
3.85947	5.06
3.87613	5.06
3.89280	5.06
3.90947	5.06
3.92613	5.06
3.94280	5.06
3.95947	5.06
3.97613	5.06

[Status Trace (Linear Velocity)]
Interval(msec)	1000
# of Points	239
Start Time(min)	0.009
End Time(min)	3.976
Intensity Units	
Intensity Multiplier	1
R.Time (min)	Intensity
0.00947	39.01
0.02613	37.18
0.04280	38.53
0.05947	39.94
0.07613	39.91
0.09280	39.04
0.10947	39.00
0.12613	39.02
0.14280	39.02
0.15947	39.01
0.17613	39.01
0.19280	39.01
0.20947	39.01
0.22613	39.01
0.24280	39.01
0.25947	39.01
0.27613	39.01
0.29280	39.01
0.30947	39.01
0.32613	39.01
0.34280	39.01
0.35947	39.01
0.37613	39.01
0.39280	39.01
0.40947	39.01
0.42613	39.01
0.44280	39.01
0.45947	39.01
0.47613	39.01
0.49280	39.01
0.50947	39.01
0.52613	39.01
0.54280	39.01
0.55947	39.01
0.57613	39.01
0.59280	39.01
0.60947	39.01
0.62613	39.01
0.64280	39.01
0.65947	39.01
0.67613	39.01
0.69280	39.01
0.70947	39.01
0.72613	39.01
0.74280	39.01
0.75947	39.01
0.77613	39.01
0.79280	39.01
0.80947	39.01
0.82613	39.01
0.84280	39.01
0.85947	39.01
0.87613	39.01
0.89280	39.01
0.90947	39.01
0.92613	39.01
0.94280	39.01
0.95947	39.01
0.97613	39.01
0.99280	39.01
1.00947	39.01
1.02613	39.01
1.04280	39.01
1.05947	39.01
1.07613	39.01
1.09280	39.01
1.10947	39.01
1.12613	39.01
1.14280	39.01
1.15947	39.01
1.17613	39.01
1.19280	39.01
1.20947	39.01
1.22613	39.01
1.24280	39.01
1.25947	39.01
1.27613	39.01
1.29280	39.01
1.30947	39.01
1.32613	39.01
1.34280	39.01
1.35947	39.01
1.37613	39.01
1.39280	39.01
1.40947	39.01
1.42613	39.01
1.44280	39.01
1.45947	39.01
1.47613	39.01
1.49280	39.01
1.50947	39.01
1.52613	39.01
1.54280	39.01
1.55947	39.01
1.57613	39.01
1.59280	39.01
1.60947	39.01
1.62613	39.00
1.64280	38.98
1.65947	38.95
1.67613	38.92
1.69280	38.89
1.70947	38.85
1.72613	38.82
1.74280	38.79
1.75947	38.76
1.77613	38.73
1.79280	38.70
1.80947	38.66
1.82613	38.63
1.84280	38.60
1.85947	38.57
1.87613	38.54
1.89280	38.51
1.90947	38.48
1.92613	38.44
1.94280	38.41
1.95947	38.39
1.97613	38.35
1.99280	38.32
2.00947	38.29
2.02613	38.26
2.04280	38.24
2.05947	38.21
2.07613	38.17
2.09280	38.15
2.10947	38.12
2.12613	38.09
2.14280	38.06
2.15947	38.03
2.17613	38.00
2.19280	37.97
2.20947	37.94
2.22613	37.91
2.24280	37.88
2.25947	37.85
2.27613	37.82
2.29280	37.79
2.30947	37.76
2.32613	37.73
2.34280	37.70
2.35947	37.68
2.37613	37.66
2.39280	37.65
2.40947	37.66
2.42613	37.66
2.44280	37.66
2.45947	37.66
2.47613	37.66
2.49280	37.65
2.50947	37.65
2.52613	37.64
2.54280	37.65
2.55947	37.65
2.57613	37.65
2.59280	37.65
2.60947	37.65
2.62613	37.65
2.64280	37.64
2.65947	37.64
2.67613	37.64
2.69280	37.64
2.70947	37.64
2.72613	37.64
2.74280	37.64
2.75947	37.64
2.77613	37.64
2.79280	37.64
2.80947	37.64
2.82613	37.64
2.84280	37.64
2.85947	37.64
2.87613	37.64
2.89280	37.64
2.90947	37.64
2.92613	37.64
2.94280	37.63
2.95947	37.63
2.97613	37.63
2.99280	37.63
3.00947	37.63
3.02613	37.63
3.04280	37.63
3.05947	37.63
3.07613	37.63
3.09280	37.63
3.10947	37.63
3.12613	37.63
3.14280	37.63
3.15947	37.63
3.17613	37.62
3.19280	37.62
3.20947	37.62
3.22613	37.62
3.24280	37.62
3.25947	37.62
3.27613	37.62
3.29280	37.62
3.30947	37.62
3.32613	37.62
3.34280	37.62
3.35947	37.62
3.37613	37.62
3.39280	37.62
3.40947	37.62
3.42613	37.62
3.44280	37.62
3.45947	37.62
3.47613	37.62
3.49280	37.62
3.50947	37.62
3.52613	37.62
3.54280	37.62
3.55947	37.62
3.57613	37.62
3.59280	37.62
3.60947	37.62
3.62613	37.62
3.64280	37.62
3.65947	37.62
3.67613	37.62
3.69280	37.62
3.70947	37.62
3.72613	37.62
3.74280	37.62
3.75947	37.62
3.77613	37.62
3.79280	37.62
3.80947	37.62
3.82613	37.62
3.84280	37.62
3.85947	37.62
3.87613	37.62
3.89280	37.62
3.90947	37.62
3.92613	37.62
3.94280	37.62
3.95947	37.62
3.97613	37.62

