[Header]
Application Name	LabSolutions
Version	5.110
Data File Name	C:\Users\User\Desktop\Junior\UIC Prairie Sampling\7.18.23\071823_060.gcd
Output Date	8/29/2023
Output Time	10:40:23 AM

[File Information]
Type	Data File
Generated	8/28/2023 8:53:28 PM
Generated by	System Administrator
Modified	8/28/2023 9:00:04 PM
Modified by	System Administrator

[Sample Information]
Operator Name	System Administrator
Acquired	8/28/2023 8:56:02 PM
Sample Type	0:Unknown
Level	0
Sample Name	060
Sample ID	060
ISTD Amount1	1
ISTD Amount2	1
ISTD Amount3	1
ISTD Amount4	1
ISTD Amount5	1
ISTD Amount6	1
ISTD Amount7	1
ISTD Amount8	1
ISTD Amount9	1
ISTD Amount10	1
ISTD Amount11	1
ISTD Amount12	1
ISTD Amount13	1
ISTD Amount14	1
ISTD Amount15	1
ISTD Amount16	1
ISTD Amount17	1
ISTD Amount18	1
ISTD Amount19	1
ISTD Amount20	1
ISTD Amount21	1
ISTD Amount22	1
ISTD Amount23	1
ISTD Amount24	1
ISTD Amount25	1
ISTD Amount26	1
ISTD Amount27	1
ISTD Amount28	1
ISTD Amount29	1
ISTD Amount30	1
ISTD Amount31	1
ISTD Amount32	1
Sample Amount	1
Dilution Factor	1
Vial#	59
Injection Volume	1
Injection Count	1
Bar Code	

[Original Files]
Data File	C:\Users\User\Desktop\Junior\UIC Prairie Sampling\7.18.23\071823_060.gcd
Method File	C:\LabSolutions\Data\GHG_4min_2022\ghg3_togas_w_acet_4 min_new_int.gcm
Batch File	C:\LabSolutions\Data\BATCH FILES\071823.gcb
Report Format File	c:\LabSolutions\System\DEFAULT.lsr

[File Description]


[Configuration]
Instrument Name	C0B7VH3-Instrument1
Instrument #	1
Line #	1
# of Detectors	3
Detector ID	DET#1	DET#2	DET#3
Detector Name	FID	PTCD	ECD
# of Channels	1	1	1

[Peak Table(Ch1)]
# of Peaks	3
Peak#	R.Time	I.Time	F.Time	Area	Height	A/H	Conc.	Mark	ID#	Name	k'	Plate #	Plate Ht.	Tailing	Resolution	Sep.Factor	Area Ratio	Height Ratio	Conc. %	Norm Conc.
1	1.476	1.454	1.523	941	474	1.984	0.000	   	1	CO	0.000	10699	14.020	0.000	0.000	0.000	0	0	0.000	0.000
2	1.564	1.523	1.655	19305	9827	1.965	94.117	 V 	2	CH4	0.060	11589	12.943	1.171	1.528	0.000	0	0	19.582	19.582
3	1.989	1.938	2.634	2005540	955663	2.099	386.504	   	3	CO2	0.348	17505	8.569	1.336	7.195	5.833	0	0	80.418	80.418

[Peak Table(Ch2)]
# of Peaks	1
Peak#	R.Time	I.Time	F.Time	Area	Height	A/H	Conc.	Mark	ID#	Name	k'	Plate #	Plate Ht.	Tailing	Resolution	Sep.Factor	Area Ratio	Height Ratio	Conc. %	Norm Conc.
1	2.964	2.917	3.096	2561	694	3.688	0.000	   	1	Hydrogen	0.000	15131	9.913	1.889	0.000	0.000	0	0	0.000	0.000

[Peak Table(Ch3)]
# of Peaks	5
Peak#	R.Time	I.Time	F.Time	Area	Height	A/H	Conc.	Mark	ID#	Name	k'	Plate #	Plate Ht.	Tailing	Resolution	Sep.Factor	Area Ratio	Height Ratio	Conc. %	Norm Conc.
1	2.458	2.337	2.502	692	232	2.976	0.000	   			0.000	13780	10.885	0.000	0.000	0.000	0	0	0.000	0.000
2	2.521	2.502	2.561	253	100	2.518	0.000	 V 			0.025	8471	17.708	0.000	0.645	0.000	0	0	0.000	0.000
3	2.612	2.561	2.693	541	114	4.750	0.000	 V 			0.063	6030	24.876	0.000	0.751	2.471	0	0	0.000	0.000
4	2.891	2.693	3.030	50404	12810	3.935	0.746	 V 	1	N2O	0.176	12724	11.789	1.663	2.351	2.810	0	0	100.000	100.000
5	3.111	3.030	3.995	26285	1012	25.961	0.000	   	2	SF6	0.265	224	668.945	5.947	0.471	1.508	0	0	0.000	0.000

[Compound Results(Ch1)]
# of IDs	6
ID#	Name	R.Time	Area	Height	Conc.	Curve	3rd	2nd	1st	Constant	Area Ratio	Height Ratio	Conc. %	Norm Conc.
1	CO	1.476	941	474	0.000	Linear	0.000000e+00	0.000000e+00	0.000000e+00	0.000000e+00	0	0	0.000	0.000
2	CH4	1.564	19305	9827	94.117	Linear	0.000000e+00	0.000000e+00	2.051179e+002	0.000000e+00	0	0	19.582	19.582
3	CO2	1.989	2005540	955663	386.504	Linear	0.000000e+00	0.000000e+00	5.188919e+003	0.000000e+00	0	0	80.418	80.418
4	Ethylene	0.000	0	0	0.000	Linear	0.000000e+00	0.000000e+00	0.000000e+00	0.000000e+00	0	0	0.000	0.000
5	Acetylene	0.000	0	0	0.000	Linear	0.000000e+00	0.000000e+00	0.000000e+00	0.000000e+00	0	0	0.000	0.000
6	Ethane	0.000	0	0	0.000	Linear	0.000000e+00	0.000000e+00	0.000000e+00	0.000000e+00	0	0	0.000	0.000

[Compound Results(Ch2)]
# of IDs	5
ID#	Name	R.Time	Area	Height	Conc.	Curve	3rd	2nd	1st	Constant	Area Ratio	Height Ratio	Conc. %	Norm Conc.
1	Hydrogen	2.964	2561	694	0.000	Linear	0.000000e+00	0.000000e+00	0.000000e+00	0.000000e+00	0	0	0.000	0.000
2	Oxygen	0.000	0	0	0.000	Linear	0.000000e+00	0.000000e+00	0.000000e+00	0.000000e+00	0	0	0.000	0.000
3	Nitrogen	0.000	0	0	0.000	Linear	0.000000e+00	0.000000e+00	0.000000e+00	0.000000e+00	0	0	0.000	0.000
4	Methane	0.000	0	0	0.000	Linear	0.000000e+00	0.000000e+00	0.000000e+00	0.000000e+00	0	0	0.000	0.000
5	Carbon Monoxide	0.000	0	0	0.000	Linear	0.000000e+00	0.000000e+00	0.000000e+00	0.000000e+00	0	0	0.000	0.000

[Compound Results(Ch3)]
# of IDs	2
ID#	Name	R.Time	Area	Height	Conc.	Curve	3rd	2nd	1st	Constant	Area Ratio	Height Ratio	Conc. %	Norm Conc.
1	N2O	2.891	50404	12810	0.746	Linear	0.000000e+00	0.000000e+00	6.759880e+004	0.000000e+00	0	0	100.000	100.000
2	SF6	3.111	26285	1012	0.000	Linear	0.000000e+00	0.000000e+00	0.000000e+00	0.000000e+00	0	0	0.000	0.000

[Group Results(Ch1)]
# of Groups	0

[Group Results(Ch2)]
# of Groups	0

[Group Results(Ch3)]
# of Groups	0

[Chromatogram (Ch1)]
Interval(msec)	220
# of Points	1091
Start Time(min)	0.002
End Time(min)	3.998
R.Time (min)	Intensity
0.00167	0
0.00533	-4
0.00900	-3
0.01267	1
0.01633	1
0.02000	-2
0.02367	-5
0.02733	-4
0.03100	1
0.03467	6
0.03833	8
0.04200	7
0.04567	1
0.04933	-5
0.05300	-6
0.05667	-5
0.06033	-7
0.06400	-7
0.06767	-3
0.07133	2
0.07500	4
0.07867	7
0.08233	8
0.08600	6
0.08967	3
0.09333	0
0.09700	-5
0.10067	-7
0.10433	-5
0.10800	-4
0.11167	-7
0.11533	-9
0.11900	-7
0.12267	-4
0.12633	-2
0.13000	-1
0.13367	-1
0.13733	0
0.14100	4
0.14467	9
0.14833	13
0.15200	14
0.15567	11
0.15933	9
0.16300	9
0.16667	13
0.17033	19
0.17400	23
0.17767	21
0.18133	15
0.18500	10
0.18867	5
0.19233	0
0.19600	-2
0.19967	-3
0.20333	-1
0.20700	3
0.21067	7
0.21433	8
0.21800	6
0.22167	3
0.22533	-1
0.22900	-3
0.23267	-4
0.23633	-3
0.24000	-1
0.24367	-1
0.24733	0
0.25100	2
0.25467	4
0.25833	7
0.26200	12
0.26567	15
0.26933	17
0.27300	18
0.27667	18
0.28033	18
0.28400	17
0.28767	18
0.29133	21
0.29500	24
0.29867	26
0.30233	24
0.30600	21
0.30967	18
0.31333	20
0.31700	23
0.32067	26
0.32433	28
0.32800	29
0.33167	28
0.33533	25
0.33900	23
0.34267	22
0.34633	21
0.35000	18
0.35367	15
0.35733	14
0.36100	16
0.36467	20
0.36833	27
0.37200	35
0.37567	42
0.37933	48
0.38300	52
0.38667	50
0.39033	43
0.39400	32
0.39767	23
0.40133	18
0.40500	18
0.40867	20
0.41233	26
0.41600	33
0.41967	39
0.42333	44
0.42700	47
0.43067	49
0.43433	52
0.43800	54
0.44167	52
0.44533	45
0.44900	36
0.45267	27
0.45633	21
0.46000	17
0.46367	16
0.46733	15
0.47100	13
0.47467	10
0.47833	9
0.48200	8
0.48567	7
0.48933	6
0.49300	5
0.49667	4
0.50033	5
0.50400	10
0.50767	15
0.51133	20
0.51500	25
0.51867	26
0.52233	26
0.52600	28
0.52967	29
0.53333	30
0.53700	29
0.54067	27
0.54433	27
0.54800	27
0.55167	25
0.55533	18
0.55900	11
0.56267	7
0.56633	4
0.57000	3
0.57367	0
0.57733	-4
0.58100	-6
0.58467	-5
0.58833	-1
0.59200	4
0.59567	8
0.59933	13
0.60300	20
0.60667	25
0.61033	26
0.61400	25
0.61767	26
0.62133	27
0.62500	27
0.62867	26
0.63233	24
0.63600	25
0.63967	27
0.64333	28
0.64700	28
0.65067	27
0.65433	24
0.65800	21
0.66167	19
0.66533	17
0.66900	18
0.67267	22
0.67633	27
0.68000	30
0.68367	31
0.68733	32
0.69100	36
0.69467	40
0.69833	41
0.70200	37
0.70567	27
0.70933	19
0.71300	17
0.71667	17
0.72033	18
0.72400	20
0.72767	24
0.73133	27
0.73500	27
0.73867	26
0.74233	26
0.74600	24
0.74967	20
0.75333	16
0.75700	12
0.76067	9
0.76433	10
0.76800	11
0.77167	12
0.77533	13
0.77900	12
0.78267	11
0.78633	11
0.79000	10
0.79367	10
0.79733	9
0.80100	7
0.80467	9
0.80833	11
0.81200	13
0.81567	17
0.81933	23
0.82300	30
0.82667	36
0.83033	40
0.83400	41
0.83767	43
0.84133	42
0.84500	37
0.84867	30
0.85233	26
0.85600	24
0.85967	24
0.86333	24
0.86700	24
0.87067	23
0.87433	24
0.87800	25
0.88167	22
0.88533	16
0.88900	10
0.89267	11
0.89633	16
0.90000	24
0.90367	30
0.90733	34
0.91100	36
0.91467	38
0.91833	39
0.92200	39
0.92567	40
0.92933	42
0.93300	43
0.93667	42
0.94033	42
0.94400	41
0.94767	39
0.95133	37
0.95500	35
0.95867	32
0.96233	27
0.96600	21
0.96967	15
0.97333	15
0.97700	20
0.98067	25
0.98433	29
0.98800	30
0.99167	28
0.99533	26
0.99900	24
1.00267	23
1.00633	24
1.01000	27
1.01367	31
1.01733	33
1.02100	36
1.02467	41
1.02833	47
1.03200	48
1.03567	46
1.03933	41
1.04300	36
1.04667	27
1.05033	18
1.05400	12
1.05767	9
1.06133	9
1.06500	15
1.06867	22
1.07233	30
1.07600	36
1.07967	39
1.08333	37
1.08700	31
1.09067	28
1.09433	26
1.09800	24
1.10167	23
1.10533	21
1.10900	16
1.11267	12
1.11633	9
1.12000	8
1.12367	8
1.12733	10
1.13100	14
1.13467	21
1.13833	30
1.14200	39
1.14567	41
1.14933	35
1.15300	30
1.15667	29
1.16033	30
1.16400	30
1.16767	30
1.17133	29
1.17500	25
1.17867	24
1.18233	25
1.18600	27
1.18967	28
1.19333	27
1.19700	22
1.20067	18
1.20433	19
1.20800	21
1.21167	20
1.21533	15
1.21900	11
1.22267	10
1.22633	12
1.23000	14
1.23367	17
1.23733	21
1.24100	24
1.24467	27
1.24833	27
1.25200	30
1.25567	33
1.25933	34
1.26300	33
1.26667	32
1.27033	29
1.27400	27
1.27767	26
1.28133	26
1.28500	25
1.28867	22
1.29233	17
1.29600	14
1.29967	12
1.30333	12
1.30700	13
1.31067	11
1.31433	7
1.31800	8
1.32167	14
1.32533	20
1.32900	21
1.33267	19
1.33633	15
1.34000	13
1.34367	15
1.34733	19
1.35100	21
1.35467	23
1.35833	25
1.36200	24
1.36567	22
1.36933	18
1.37300	14
1.37667	9
1.38033	5
1.38400	5
1.38767	9
1.39133	15
1.39500	21
1.39867	25
1.40233	29
1.40600	33
1.40967	34
1.41333	32
1.41700	29
1.42067	25
1.42433	19
1.42800	13
1.43167	11
1.43533	16
1.43900	26
1.44267	18
1.44633	-19
1.45000	-36
1.45367	-1
1.45733	76
1.46100	169
1.46467	263
1.46833	355
1.47200	430
1.47567	472
1.47933	471
1.48300	431
1.48667	368
1.49033	301
1.49400	239
1.49767	184
1.50133	139
1.50500	104
1.50867	77
1.51233	57
1.51600	40
1.51967	27
1.52333	20
1.52700	20
1.53067	45
1.53433	189
1.53800	690
1.54167	1807
1.54533	3515
1.54900	5459
1.55267	7245
1.55633	8646
1.56000	9545
1.56367	9819
1.56733	9353
1.57100	8207
1.57467	6656
1.57833	5050
1.58200	3638
1.58567	2520
1.58933	1697
1.59300	1122
1.59667	731
1.60033	469
1.60400	296
1.60767	189
1.61133	128
1.61500	93
1.61867	69
1.62233	49
1.62600	34
1.62967	27
1.63333	28
1.63700	28
1.64067	23
1.64433	17
1.64800	8
1.65167	-3
1.65533	-13
1.65900	-20
1.66267	-23
1.66633	-23
1.67000	-20
1.67367	-12
1.67733	-1
1.68100	5
1.68467	7
1.68833	7
1.69200	7
1.69567	7
1.69933	9
1.70300	10
1.70667	13
1.71033	16
1.71400	18
1.71767	14
1.72133	8
1.72500	4
1.72867	2
1.73233	-1
1.73600	-4
1.73967	-5
1.74333	-6
1.74700	-9
1.75067	-11
1.75433	-14
1.75800	-15
1.76167	-12
1.76533	-7
1.76900	1
1.77267	7
1.77633	10
1.78000	11
1.78367	13
1.78733	16
1.79100	18
1.79467	15
1.79833	9
1.80200	4
1.80567	1
1.80933	0
1.81300	-2
1.81667	-3
1.82033	-3
1.82400	-1
1.82767	1
1.83133	4
1.83500	9
1.83867	15
1.84233	21
1.84600	22
1.84967	18
1.85333	14
1.85700	12
1.86067	13
1.86433	14
1.86800	15
1.87167	18
1.87533	19
1.87900	18
1.88267	17
1.88633	16
1.89000	12
1.89367	8
1.89733	11
1.90100	15
1.90467	17
1.90833	16
1.91200	14
1.91567	12
1.91933	13
1.92300	15
1.92667	17
1.93033	16
1.93400	18
1.93767	22
1.94133	26
1.94500	40
1.94867	133
1.95233	736
1.95600	3774
1.95967	15273
1.96333	48261
1.96700	120986
1.97067	245471
1.97433	414185
1.97800	599972
1.98167	769319
1.98533	893968
1.98900	955705
1.99267	947920
1.99633	876296
2.00000	757789
2.00367	616387
2.00733	475505
2.01100	351557
2.01467	251966
2.01833	177039
2.02200	123234
2.02567	85801
2.02933	60280
2.03300	43076
2.03667	31512
2.04033	23710
2.04400	18395
2.04767	14721
2.05133	12127
2.05500	10249
2.05867	8855
2.06233	7793
2.06600	6967
2.06967	6310
2.07333	5775
2.07700	5329
2.08067	4950
2.08433	4624
2.08800	4341
2.09167	4088
2.09533	3860
2.09900	3654
2.10267	3468
2.10633	3299
2.11000	3144
2.11367	3004
2.11733	2874
2.12100	2754
2.12467	2645
2.12833	2547
2.13200	2457
2.13567	2373
2.13933	2296
2.14300	2224
2.14667	2153
2.15033	2083
2.15400	2015
2.15767	1955
2.16133	1901
2.16500	1852
2.16867	1804
2.17233	1755
2.17600	1702
2.17967	1648
2.18333	1597
2.18700	1550
2.19067	1506
2.19433	1466
2.19800	1430
2.20167	1396
2.20533	1365
2.20900	1337
2.21267	1309
2.21633	1278
2.22000	1247
2.22367	1217
2.22733	1190
2.23100	1166
2.23467	1145
2.23833	1124
2.24200	1101
2.24567	1080
2.24933	1059
2.25300	1037
2.25667	1016
2.26033	995
2.26400	971
2.26767	949
2.27133	929
2.27500	910
2.27867	895
2.28233	885
2.28600	875
2.28967	861
2.29333	846
2.29700	833
2.30067	821
2.30433	808
2.30800	791
2.31167	775
2.31533	763
2.31900	753
2.32267	741
2.32633	726
2.33000	714
2.33367	705
2.33733	700
2.34100	697
2.34467	692
2.34833	684
2.35200	675
2.35567	667
2.35933	659
2.36300	648
2.36667	636
2.37033	628
2.37400	623
2.37767	617
2.38133	613
2.38500	607
2.38867	599
2.39233	590
2.39600	582
2.39967	579
2.40333	577
2.40700	574
2.41067	569
2.41433	563
2.41800	561
2.42167	559
2.42533	554
2.42900	547
2.43267	540
2.43633	533
2.44000	525
2.44367	520
2.44733	518
2.45100	518
2.45467	515
2.45833	508
2.46200	503
2.46567	501
2.46933	496
2.47300	491
2.47667	487
2.48033	480
2.48400	470
2.48767	461
2.49133	451
2.49500	441
2.49867	434
2.50233	431
2.50600	428
2.50967	424
2.51333	420
2.51700	417
2.52067	415
2.52433	411
2.52800	406
2.53167	402
2.53533	397
2.53900	392
2.54267	387
2.54633	386
2.55000	386
2.55367	385
2.55733	383
2.56100	381
2.56467	380
2.56833	382
2.57200	381
2.57567	374
2.57933	363
2.58300	352
2.58667	345
2.59033	344
2.59400	344
2.59767	342
2.60133	337
2.60500	329
2.60867	318
2.61233	311
2.61600	309
2.61967	309
2.62333	307
2.62700	306
2.63067	305
2.63433	303
2.63800	297
2.64167	292
2.64533	292
2.64900	295
2.65267	297
2.65633	299
2.66000	300
2.66367	303
2.66733	307
2.67100	308
2.67467	305
2.67833	301
2.68200	300
2.68567	301
2.68933	300
2.69300	297
2.69667	296
2.70033	297
2.70400	298
2.70767	297
2.71133	294
2.71500	288
2.71867	279
2.72233	271
2.72600	266
2.72967	259
2.73333	253
2.73700	250
2.74067	251
2.74433	255
2.74800	256
2.75167	255
2.75533	252
2.75900	249
2.76267	244
2.76633	240
2.77000	235
2.77367	231
2.77733	230
2.78100	233
2.78467	240
2.78833	246
2.79200	247
2.79567	244
2.79933	239
2.80300	234
2.80667	231
2.81033	227
2.81400	223
2.81767	220
2.82133	216
2.82500	214
2.82867	210
2.83233	205
2.83600	202
2.83967	200
2.84333	200
2.84700	201
2.85067	203
2.85433	202
2.85800	202
2.86167	198
2.86533	194
2.86900	191
2.87267	192
2.87633	196
2.88000	201
2.88367	203
2.88733	203
2.89100	199
2.89467	193
2.89833	188
2.90200	186
2.90567	185
2.90933	184
2.91300	185
2.91667	190
2.92033	194
2.92400	195
2.92767	191
2.93133	186
2.93500	182
2.93867	179
2.94233	173
2.94600	169
2.94967	165
2.95333	161
2.95700	160
2.96067	165
2.96433	170
2.96800	174
2.97167	175
2.97533	174
2.97900	171
2.98267	167
2.98633	163
2.99000	161
2.99367	161
2.99733	160
3.00100	161
3.00467	163
3.00833	164
3.01200	165
3.01567	165
3.01933	161
3.02300	158
3.02667	157
3.03033	155
3.03400	152
3.03767	151
3.04133	150
3.04500	150
3.04867	148
3.05233	144
3.05600	141
3.05967	140
3.06333	140
3.06700	141
3.07067	143
3.07433	144
3.07800	146
3.08167	145
3.08533	140
3.08900	135
3.09267	131
3.09633	125
3.10000	117
3.10367	110
3.10733	105
3.11100	102
3.11467	105
3.11833	108
3.12200	111
3.12567	113
3.12933	117
3.13300	120
3.13667	119
3.14033	113
3.14400	105
3.14767	99
3.15133	99
3.15500	104
3.15867	111
3.16233	116
3.16600	120
3.16967	125
3.17333	128
3.17700	128
3.18067	125
3.18433	121
3.18800	117
3.19167	116
3.19533	115
3.19900	114
3.20267	114
3.20633	114
3.21000	113
3.21367	112
3.21733	108
3.22100	103
3.22467	96
3.22833	92
3.23200	92
3.23567	94
3.23933	94
3.24300	94
3.24667	94
3.25033	95
3.25400	95
3.25767	93
3.26133	91
3.26500	89
3.26867	89
3.27233	90
3.27600	92
3.27967	95
3.28333	94
3.28700	91
3.29067	87
3.29433	83
3.29800	79
3.30167	75
3.30533	73
3.30900	72
3.31267	70
3.31633	70
3.32000	74
3.32367	79
3.32733	83
3.33100	88
3.33467	92
3.33833	94
3.34200	94
3.34567	92
3.34933	88
3.35300	84
3.35667	83
3.36033	86
3.36400	90
3.36767	92
3.37133	92
3.37500	90
3.37867	89
3.38233	88
3.38600	86
3.38967	79
3.39333	69
3.39700	62
3.40067	58
3.40433	56
3.40800	58
3.41167	61
3.41533	67
3.41900	73
3.42267	77
3.42633	83
3.43000	87
3.43367	87
3.43733	82
3.44100	72
3.44467	64
3.44833	62
3.45200	66
3.45567	72
3.45933	77
3.46300	80
3.46667	82
3.47033	82
3.47400	82
3.47767	81
3.48133	81
3.48500	81
3.48867	78
3.49233	76
3.49600	78
3.49967	80
3.50333	79
3.50700	75
3.51067	69
3.51433	63
3.51800	56
3.52167	49
3.52533	46
3.52900	48
3.53267	50
3.53633	51
3.54000	49
3.54367	47
3.54733	45
3.55100	45
3.55467	46
3.55833	49
3.56200	51
3.56567	53
3.56933	53
3.57300	48
3.57667	43
3.58033	40
3.58400	41
3.58767	43
3.59133	44
3.59500	44
3.59867	45
3.60233	47
3.60600	52
3.60967	58
3.61333	62
3.61700	66
3.62067	68
3.62433	67
3.62800	64
3.63167	60
3.63533	56
3.63900	57
3.64267	57
3.64633	57
3.65000	58
3.65367	58
3.65733	58
3.66100	54
3.66467	48
3.66833	44
3.67200	40
3.67567	39
3.67933	40
3.68300	46
3.68667	53
3.69033	57
3.69400	57
3.69767	55
3.70133	52
3.70500	48
3.70867	46
3.71233	44
3.71600	41
3.71967	38
3.72333	38
3.72700	40
3.73067	41
3.73433	41
3.73800	42
3.74167	44
3.74533	45
3.74900	48
3.75267	51
3.75633	52
3.76000	49
3.76367	44
3.76733	39
3.77100	34
3.77467	29
3.77833	26
3.78200	28
3.78567	30
3.78933	30
3.79300	28
3.79667	27
3.80033	24
3.80400	23
3.80767	26
3.81133	33
3.81500	41
3.81867	45
3.82233	47
3.82600	51
3.82967	52
3.83333	47
3.83700	40
3.84067	37
3.84433	35
3.84800	32
3.85167	28
3.85533	21
3.85900	15
3.86267	8
3.86633	5
3.87000	6
3.87367	12
3.87733	19
3.88100	25
3.88467	31
3.88833	34
3.89200	35
3.89567	31
3.89933	25
3.90300	20
3.90667	14
3.91033	9
3.91400	5
3.91767	7
3.92133	14
3.92500	20
3.92867	24
3.93233	27
3.93600	27
3.93967	28
3.94333	28
3.94700	26
3.95067	23
3.95433	21
3.95800	20
3.96167	16
3.96533	12
3.96900	10
3.97267	12
3.97633	17
3.98000	20
3.98367	20
3.98733	17
3.99100	12
3.99467	8
3.99833	7

[Chromatogram (Ch2)]
Interval(msec)	220
# of Points	1091
Start Time(min)	0.002
End Time(min)	3.998
R.Time (min)	Intensity
0.00167	-0
0.00533	-0
0.00900	-0
0.01267	-0
0.01633	-0
0.02000	-0
0.02367	-0
0.02733	-0
0.03100	-0
0.03467	-0
0.03833	-0
0.04200	-0
0.04567	-0
0.04933	-0
0.05300	-0
0.05667	0
0.06033	0
0.06400	0
0.06767	0
0.07133	0
0.07500	0
0.07867	1
0.08233	1
0.08600	1
0.08967	2
0.09333	2
0.09700	2
0.10067	2
0.10433	2
0.10800	2
0.11167	2
0.11533	2
0.11900	1
0.12267	1
0.12633	1
0.13000	1
0.13367	1
0.13733	1
0.14100	1
0.14467	1
0.14833	1
0.15200	1
0.15567	1
0.15933	1
0.16300	1
0.16667	0
0.17033	0
0.17400	-0
0.17767	-0
0.18133	-0
0.18500	0
0.18867	0
0.19233	0
0.19600	0
0.19967	0
0.20333	0
0.20700	0
0.21067	0
0.21433	0
0.21800	0
0.22167	0
0.22533	1
0.22900	1
0.23267	1
0.23633	1
0.24000	1
0.24367	1
0.24733	2
0.25100	2
0.25467	2
0.25833	2
0.26200	2
0.26567	1
0.26933	1
0.27300	1
0.27667	0
0.28033	0
0.28400	-0
0.28767	-0
0.29133	-0
0.29500	-0
0.29867	-0
0.30233	-0
0.30600	-0
0.30967	-1
0.31333	-1
0.31700	-1
0.32067	-1
0.32433	-1
0.32800	-1
0.33167	-1
0.33533	-1
0.33900	-1
0.34267	-1
0.34633	-1
0.35000	-1
0.35367	-1
0.35733	-1
0.36100	-0
0.36467	-0
0.36833	-0
0.37200	-0
0.37567	-0
0.37933	0
0.38300	0
0.38667	0
0.39033	0
0.39400	1
0.39767	1
0.40133	1
0.40500	1
0.40867	1
0.41233	0
0.41600	0
0.41967	0
0.42333	0
0.42700	0
0.43067	-0
0.43433	-0
0.43800	-0
0.44167	-1
0.44533	-1
0.44900	-1
0.45267	-1
0.45633	-1
0.46000	-0
0.46367	-0
0.46733	-0
0.47100	-0
0.47467	-0
0.47833	-0
0.48200	-1
0.48567	-1
0.48933	-1
0.49300	-1
0.49667	-1
0.50033	-1
0.50400	-1
0.50767	-1
0.51133	-0
0.51500	-0
0.51867	0
0.52233	0
0.52600	0
0.52967	0
0.53333	0
0.53700	0
0.54067	0
0.54433	0
0.54800	0
0.55167	0
0.55533	0
0.55900	0
0.56267	0
0.56633	0
0.57000	0
0.57367	0
0.57733	0
0.58100	0
0.58467	0
0.58833	0
0.59200	-0
0.59567	-0
0.59933	-0
0.60300	-0
0.60667	-0
0.61033	-0
0.61400	-0
0.61767	-0
0.62133	-0
0.62500	0
0.62867	0
0.63233	0
0.63600	0
0.63967	0
0.64333	-0
0.64700	-0
0.65067	-0
0.65433	-1
0.65800	-1
0.66167	-1
0.66533	-1
0.66900	-1
0.67267	-1
0.67633	-1
0.68000	-1
0.68367	-1
0.68733	-1
0.69100	-1
0.69467	-1
0.69833	-1
0.70200	-1
0.70567	-1
0.70933	-1
0.71300	-1
0.71667	-0
0.72033	-0
0.72400	-1
0.72767	-1
0.73133	-1
0.73500	-1
0.73867	-2
0.74233	-1
0.74600	-1
0.74967	-1
0.75333	-1
0.75700	-1
0.76067	-1
0.76433	-1
0.76800	-1
0.77167	-1
0.77533	-1
0.77900	-1
0.78267	-1
0.78633	-0
0.79000	-0
0.79367	0
0.79733	0
0.80100	-0
0.80467	-0
0.80833	-0
0.81200	-0
0.81567	-0
0.81933	-0
0.82300	-0
0.82667	-1
0.83033	-1
0.83400	-1
0.83767	-1
0.84133	-1
0.84500	-1
0.84867	-1
0.85233	-1
0.85600	-1
0.85967	-1
0.86333	-1
0.86700	-1
0.87067	-1
0.87433	-1
0.87800	-1
0.88167	-1
0.88533	-0
0.88900	-0
0.89267	-0
0.89633	-0
0.90000	-0
0.90367	-0
0.90733	-0
0.91100	-0
0.91467	0
0.91833	0
0.92200	-0
0.92567	-0
0.92933	-0
0.93300	-1
0.93667	-1
0.94033	-1
0.94400	-1
0.94767	-2
0.95133	-2
0.95500	-2
0.95867	-2
0.96233	-2
0.96600	-2
0.96967	-2
0.97333	-1
0.97700	-1
0.98067	-1
0.98433	-1
0.98800	-1
0.99167	-1
0.99533	-0
0.99900	-0
1.00267	-0
1.00633	-0
1.01000	-0
1.01367	-0
1.01733	-0
1.02100	-0
1.02467	-1
1.02833	-1
1.03200	-1
1.03567	-1
1.03933	-1
1.04300	-1
1.04667	-1
1.05033	-1
1.05400	-1
1.05767	-1
1.06133	-1
1.06500	-1
1.06867	-1
1.07233	-1
1.07600	-1
1.07967	-1
1.08333	-1
1.08700	-1
1.09067	-1
1.09433	-1
1.09800	-1
1.10167	-1
1.10533	-1
1.10900	-1
1.11267	-1
1.11633	-1
1.12000	-1
1.12367	-1
1.12733	-1
1.13100	-1
1.13467	-1
1.13833	-1
1.14200	-1
1.14567	-1
1.14933	-1
1.15300	-1
1.15667	-1
1.16033	-1
1.16400	-1
1.16767	-1
1.17133	-1
1.17500	-1
1.17867	-1
1.18233	-1
1.18600	-1
1.18967	-1
1.19333	-2
1.19700	-2
1.20067	-2
1.20433	-2
1.20800	-2
1.21167	-2
1.21533	-2
1.21900	-2
1.22267	-2
1.22633	-2
1.23000	-2
1.23367	-2
1.23733	-2
1.24100	-2
1.24467	-2
1.24833	-1
1.25200	-1
1.25567	-1
1.25933	-1
1.26300	-1
1.26667	-1
1.27033	-1
1.27400	-1
1.27767	-1
1.28133	-1
1.28500	-1
1.28867	-1
1.29233	-1
1.29600	-2
1.29967	-2
1.30333	-2
1.30700	-2
1.31067	-1
1.31433	-1
1.31800	-1
1.32167	-1
1.32533	-1
1.32900	-1
1.33267	-1
1.33633	-1
1.34000	-0
1.34367	-0
1.34733	-1
1.35100	-1
1.35467	-1
1.35833	-1
1.36200	-1
1.36567	-1
1.36933	-1
1.37300	-1
1.37667	-1
1.38033	-1
1.38400	-1
1.38767	-1
1.39133	-1
1.39500	-2
1.39867	-2
1.40233	-2
1.40600	-2
1.40967	-2
1.41333	-2
1.41700	-2
1.42067	-1
1.42433	-1
1.42800	-1
1.43167	-2
1.43533	-2
1.43900	-2
1.44267	-2
1.44633	-2
1.45000	-2
1.45367	-3
1.45733	-3
1.46100	-3
1.46467	-2
1.46833	-2
1.47200	-2
1.47567	-2
1.47933	-2
1.48300	-2
1.48667	-2
1.49033	-2
1.49400	-2
1.49767	-1
1.50133	-1
1.50500	-1
1.50867	-1
1.51233	-1
1.51600	-2
1.51967	-2
1.52333	-3
1.52700	-3
1.53067	-3
1.53433	-3
1.53800	-3
1.54167	-2
1.54533	-2
1.54900	-2
1.55267	-2
1.55633	-2
1.56000	-2
1.56367	-2
1.56733	-2
1.57100	-2
1.57467	-2
1.57833	-1
1.58200	-1
1.58567	-1
1.58933	-2
1.59300	-2
1.59667	-2
1.60033	-3
1.60400	-4
1.60767	-5
1.61133	-7
1.61500	-9
1.61867	-11
1.62233	-13
1.62600	-16
1.62967	-19
1.63333	-22
1.63700	-25
1.64067	-29
1.64433	-32
1.64800	-36
1.65167	-39
1.65533	-42
1.65900	-45
1.66267	-49
1.66633	-53
1.67000	-58
1.67367	-62
1.67733	-66
1.68100	-71
1.68467	-75
1.68833	-79
1.69200	-82
1.69567	-85
1.69933	-87
1.70300	-89
1.70667	-91
1.71033	-92
1.71400	-93
1.71767	-94
1.72133	-94
1.72500	-95
1.72867	-95
1.73233	-95
1.73600	-96
1.73967	-96
1.74333	-97
1.74700	-97
1.75067	-97
1.75433	-97
1.75800	-96
1.76167	-96
1.76533	-95
1.76900	-95
1.77267	-94
1.77633	-94
1.78000	-95
1.78367	-96
1.78733	-97
1.79100	-98
1.79467	-99
1.79833	-99
1.80200	-100
1.80567	-100
1.80933	-100
1.81300	-100
1.81667	-99
1.82033	-99
1.82400	-99
1.82767	-100
1.83133	-100
1.83500	-101
1.83867	-101
1.84233	-101
1.84600	-100
1.84967	-100
1.85333	-99
1.85700	-99
1.86067	-99
1.86433	-99
1.86800	-99
1.87167	-99
1.87533	-99
1.87900	-98
1.88267	-98
1.88633	-98
1.89000	-98
1.89367	-98
1.89733	-98
1.90100	-98
1.90467	-98
1.90833	-97
1.91200	-97
1.91567	-96
1.91933	-96
1.92300	-96
1.92667	-96
1.93033	-96
1.93400	-96
1.93767	-95
1.94133	-95
1.94500	-94
1.94867	-94
1.95233	-93
1.95600	-93
1.95967	-92
1.96333	-92
1.96700	-92
1.97067	-93
1.97433	-93
1.97800	-93
1.98167	-93
1.98533	-93
1.98900	-93
1.99267	-93
1.99633	-94
2.00000	-94
2.00367	-94
2.00733	-93
2.01100	-93
2.01467	-93
2.01833	-92
2.02200	-91
2.02567	-91
2.02933	-90
2.03300	-89
2.03667	-89
2.04033	-88
2.04400	-88
2.04767	-88
2.05133	-87
2.05500	-87
2.05867	-86
2.06233	-86
2.06600	-85
2.06967	-85
2.07333	-85
2.07700	-85
2.08067	-85
2.08433	-85
2.08800	-86
2.09167	-86
2.09533	-86
2.09900	-86
2.10267	-86
2.10633	-85
2.11000	-84
2.11367	-84
2.11733	-83
2.12100	-82
2.12467	-82
2.12833	-82
2.13200	-82
2.13567	-82
2.13933	-81
2.14300	-80
2.14667	-80
2.15033	-79
2.15400	-79
2.15767	-79
2.16133	-79
2.16500	-79
2.16867	-79
2.17233	-79
2.17600	-79
2.17967	-79
2.18333	-79
2.18700	-78
2.19067	-78
2.19433	-77
2.19800	-77
2.20167	-77
2.20533	-77
2.20900	-76
2.21267	-76
2.21633	-76
2.22000	-75
2.22367	-75
2.22733	-74
2.23100	-74
2.23467	-73
2.23833	-73
2.24200	-73
2.24567	-73
2.24933	-72
2.25300	-72
2.25667	-71
2.26033	-70
2.26400	-70
2.26767	-69
2.27133	-69
2.27500	-69
2.27867	-69
2.28233	-69
2.28600	-69
2.28967	-69
2.29333	-70
2.29700	-71
2.30067	-72
2.30433	-72
2.30800	-72
2.31167	-72
2.31533	-71
2.31900	-70
2.32267	-69
2.32633	-69
2.33000	-68
2.33367	-68
2.33733	-68
2.34100	-67
2.34467	-66
2.34833	-65
2.35200	-63
2.35567	-62
2.35933	-60
2.36300	-59
2.36667	-57
2.37033	-55
2.37400	-52
2.37767	-49
2.38133	-46
2.38500	-42
2.38867	-38
2.39233	-34
2.39600	-30
2.39967	-25
2.40333	-21
2.40700	-18
2.41067	-14
2.41433	-11
2.41800	-8
2.42167	-5
2.42533	-3
2.42900	-2
2.43267	-0
2.43633	1
2.44000	3
2.44367	4
2.44733	6
2.45100	7
2.45467	8
2.45833	9
2.46200	10
2.46567	11
2.46933	12
2.47300	13
2.47667	13
2.48033	14
2.48400	14
2.48767	15
2.49133	16
2.49500	17
2.49867	17
2.50233	18
2.50600	18
2.50967	18
2.51333	18
2.51700	18
2.52067	18
2.52433	18
2.52800	19
2.53167	19
2.53533	19
2.53900	19
2.54267	18
2.54633	18
2.55000	17
2.55367	16
2.55733	16
2.56100	15
2.56467	14
2.56833	14
2.57200	13
2.57567	13
2.57933	13
2.58300	13
2.58667	13
2.59033	14
2.59400	14
2.59767	15
2.60133	15
2.60500	15
2.60867	16
2.61233	16
2.61600	16
2.61967	16
2.62333	17
2.62700	18
2.63067	18
2.63433	19
2.63800	19
2.64167	19
2.64533	20
2.64900	20
2.65267	20
2.65633	21
2.66000	21
2.66367	22
2.66733	22
2.67100	23
2.67467	23
2.67833	23
2.68200	23
2.68567	22
2.68933	22
2.69300	23
2.69667	23
2.70033	24
2.70400	24
2.70767	25
2.71133	26
2.71500	27
2.71867	28
2.72233	28
2.72600	29
2.72967	29
2.73333	30
2.73700	30
2.74067	30
2.74433	30
2.74800	31
2.75167	30
2.75533	30
2.75900	29
2.76267	29
2.76633	28
2.77000	27
2.77367	27
2.77733	27
2.78100	26
2.78467	26
2.78833	26
2.79200	26
2.79567	27
2.79933	27
2.80300	27
2.80667	27
2.81033	28
2.81400	28
2.81767	28
2.82133	29
2.82500	29
2.82867	29
2.83233	29
2.83600	29
2.83967	29
2.84333	29
2.84700	29
2.85067	29
2.85433	29
2.85800	29
2.86167	27
2.86533	25
2.86900	21
2.87267	15
2.87633	7
2.88000	-3
2.88367	-15
2.88733	-28
2.89100	-43
2.89467	-59
2.89833	-74
2.90200	-88
2.90567	-99
2.90933	-108
2.91300	-111
2.91667	-109
2.92033	-100
2.92400	-83
2.92767	-56
2.93133	-18
2.93500	34
2.93867	103
2.94233	192
2.94600	298
2.94967	410
2.95333	507
2.95700	577
2.96067	615
2.96433	624
2.96800	611
2.97167	583
2.97533	546
2.97900	504
2.98267	460
2.98633	417
2.99000	375
2.99367	337
2.99733	301
3.00100	269
3.00467	240
3.00833	214
3.01200	191
3.01567	171
3.01933	153
3.02300	137
3.02667	124
3.03033	112
3.03400	102
3.03767	93
3.04133	85
3.04500	78
3.04867	73
3.05233	67
3.05600	63
3.05967	59
3.06333	56
3.06700	53
3.07067	50
3.07433	48
3.07800	46
3.08167	44
3.08533	43
3.08900	41
3.09267	40
3.09633	39
3.10000	39
3.10367	38
3.10733	38
3.11100	37
3.11467	37
3.11833	37
3.12200	36
3.12567	36
3.12933	36
3.13300	36
3.13667	35
3.14033	35
3.14400	35
3.14767	35
3.15133	34
3.15500	34
3.15867	34
3.16233	34
3.16600	34
3.16967	33
3.17333	33
3.17700	33
3.18067	32
3.18433	32
3.18800	32
3.19167	32
3.19533	32
3.19900	32
3.20267	32
3.20633	32
3.21000	32
3.21367	32
3.21733	32
3.22100	32
3.22467	32
3.22833	32
3.23200	32
3.23567	32
3.23933	32
3.24300	32
3.24667	33
3.25033	33
3.25400	33
3.25767	33
3.26133	33
3.26500	33
3.26867	33
3.27233	33
3.27600	33
3.27967	33
3.28333	33
3.28700	33
3.29067	33
3.29433	33
3.29800	33
3.30167	33
3.30533	33
3.30900	33
3.31267	33
3.31633	33
3.32000	33
3.32367	33
3.32733	33
3.33100	32
3.33467	32
3.33833	32
3.34200	31
3.34567	31
3.34933	31
3.35300	31
3.35667	31
3.36033	31
3.36400	31
3.36767	31
3.37133	31
3.37500	31
3.37867	31
3.38233	31
3.38600	31
3.38967	32
3.39333	32
3.39700	31
3.40067	31
3.40433	31
3.40800	31
3.41167	31
3.41533	30
3.41900	31
3.42267	31
3.42633	31
3.43000	31
3.43367	31
3.43733	31
3.44100	31
3.44467	31
3.44833	31
3.45200	31
3.45567	31
3.45933	31
3.46300	31
3.46667	31
3.47033	31
3.47400	31
3.47767	31
3.48133	31
3.48500	31
3.48867	30
3.49233	30
3.49600	30
3.49967	30
3.50333	30
3.50700	30
3.51067	31
3.51433	31
3.51800	31
3.52167	31
3.52533	31
3.52900	31
3.53267	31
3.53633	31
3.54000	30
3.54367	30
3.54733	30
3.55100	30
3.55467	30
3.55833	30
3.56200	30
3.56567	30
3.56933	30
3.57300	30
3.57667	30
3.58033	30
3.58400	30
3.58767	30
3.59133	30
3.59500	30
3.59867	30
3.60233	30
3.60600	30
3.60967	30
3.61333	30
3.61700	30
3.62067	30
3.62433	30
3.62800	30
3.63167	30
3.63533	30
3.63900	30
3.64267	30
3.64633	30
3.65000	30
3.65367	29
3.65733	29
3.66100	29
3.66467	29
3.66833	29
3.67200	29
3.67567	29
3.67933	29
3.68300	29
3.68667	29
3.69033	30
3.69400	30
3.69767	30
3.70133	30
3.70500	30
3.70867	30
3.71233	30
3.71600	30
3.71967	30
3.72333	30
3.72700	30
3.73067	30
3.73433	30
3.73800	30
3.74167	30
3.74533	30
3.74900	30
3.75267	30
3.75633	30
3.76000	30
3.76367	31
3.76733	30
3.77100	30
3.77467	30
3.77833	30
3.78200	30
3.78567	30
3.78933	30
3.79300	30
3.79667	30
3.80033	29
3.80400	29
3.80767	29
3.81133	29
3.81500	29
3.81867	29
3.82233	29
3.82600	29
3.82967	29
3.83333	29
3.83700	29
3.84067	29
3.84433	29
3.84800	29
3.85167	29
3.85533	29
3.85900	29
3.86267	30
3.86633	30
3.87000	30
3.87367	30
3.87733	30
3.88100	30
3.88467	30
3.88833	30
3.89200	30
3.89567	30
3.89933	30
3.90300	30
3.90667	30
3.91033	30
3.91400	30
3.91767	30
3.92133	30
3.92500	30
3.92867	30
3.93233	30
3.93600	30
3.93967	30
3.94333	29
3.94700	29
3.95067	29
3.95433	30
3.95800	29
3.96167	30
3.96533	30
3.96900	30
3.97267	30
3.97633	30
3.98000	30
3.98367	30
3.98733	30
3.99100	30
3.99467	30
3.99833	30

[Chromatogram (Ch3)]
Interval(msec)	220
# of Points	1091
Start Time(min)	0.002
End Time(min)	3.998
R.Time (min)	Intensity
0.00167	-0
0.00533	-1
0.00900	-3
0.01267	-4
0.01633	-2
0.02000	-0
0.02367	-1
0.02733	-1
0.03100	-1
0.03467	-3
0.03833	-4
0.04200	-5
0.04567	-2
0.04933	-1
0.05300	1
0.05667	0
0.06033	-1
0.06400	-1
0.06767	-4
0.07133	-7
0.07500	-8
0.07867	-7
0.08233	-4
0.08600	-3
0.08967	-1
0.09333	2
0.09700	-1
0.10067	-1
0.10433	1
0.10800	1
0.11167	-3
0.11533	-4
0.11900	-6
0.12267	-8
0.12633	-11
0.13000	-13
0.13367	-12
0.13733	-12
0.14100	-9
0.14467	-6
0.14833	-6
0.15200	-6
0.15567	-6
0.15933	-4
0.16300	-1
0.16667	-0
0.17033	1
0.17400	-0
0.17767	1
0.18133	-1
0.18500	-6
0.18867	-7
0.19233	-7
0.19600	-6
0.19967	-6
0.20333	-5
0.20700	-5
0.21067	-4
0.21433	-4
0.21800	-6
0.22167	-5
0.22533	-5
0.22900	-5
0.23267	-7
0.23633	-10
0.24000	-9
0.24367	-7
0.24733	-4
0.25100	-5
0.25467	-6
0.25833	-6
0.26200	-3
0.26567	-3
0.26933	-4
0.27300	-5
0.27667	-2
0.28033	2
0.28400	4
0.28767	5
0.29133	5
0.29500	2
0.29867	-4
0.30233	-6
0.30600	-6
0.30967	-4
0.31333	-3
0.31700	-2
0.32067	-4
0.32433	-4
0.32800	-2
0.33167	0
0.33533	3
0.33900	2
0.34267	1
0.34633	0
0.35000	-0
0.35367	-1
0.35733	-2
0.36100	-1
0.36467	-5
0.36833	-6
0.37200	-5
0.37567	-7
0.37933	-8
0.38300	-7
0.38667	-4
0.39033	-3
0.39400	-3
0.39767	-3
0.40133	-5
0.40500	-6
0.40867	-7
0.41233	-8
0.41600	-7
0.41967	-5
0.42333	-2
0.42700	1
0.43067	-0
0.43433	-2
0.43800	-3
0.44167	-3
0.44533	-2
0.44900	-1
0.45267	-1
0.45633	-2
0.46000	-3
0.46367	-1
0.46733	-2
0.47100	-4
0.47467	-4
0.47833	-2
0.48200	-0
0.48567	4
0.48933	5
0.49300	6
0.49667	4
0.50033	3
0.50400	5
0.50767	9
0.51133	9
0.51500	7
0.51867	6
0.52233	5
0.52600	5
0.52967	5
0.53333	4
0.53700	4
0.54067	1
0.54433	-1
0.54800	-3
0.55167	-5
0.55533	-6
0.55900	-5
0.56267	-4
0.56633	-3
0.57000	-4
0.57367	-1
0.57733	2
0.58100	2
0.58467	2
0.58833	2
0.59200	2
0.59567	2
0.59933	-1
0.60300	-3
0.60667	-2
0.61033	-1
0.61400	-2
0.61767	-3
0.62133	-1
0.62500	-1
0.62867	-2
0.63233	-0
0.63600	-1
0.63967	-3
0.64333	-2
0.64700	2
0.65067	2
0.65433	3
0.65800	3
0.66167	6
0.66533	8
0.66900	6
0.67267	3
0.67633	0
0.68000	-3
0.68367	-2
0.68733	1
0.69100	-0
0.69467	-2
0.69833	-1
0.70200	-1
0.70567	0
0.70933	4
0.71300	5
0.71667	5
0.72033	4
0.72400	2
0.72767	1
0.73133	1
0.73500	1
0.73867	-1
0.74233	-2
0.74600	2
0.74967	6
0.75333	7
0.75700	6
0.76067	8
0.76433	7
0.76800	7
0.77167	8
0.77533	9
0.77900	7
0.78267	7
0.78633	7
0.79000	6
0.79367	5
0.79733	4
0.80100	4
0.80467	1
0.80833	-2
0.81200	-3
0.81567	-2
0.81933	-2
0.82300	-3
0.82667	-4
0.83033	-4
0.83400	-2
0.83767	1
0.84133	5
0.84500	4
0.84867	2
0.85233	0
0.85600	-0
0.85967	1
0.86333	0
0.86700	-1
0.87067	-1
0.87433	2
0.87800	2
0.88167	1
0.88533	1
0.88900	4
0.89267	5
0.89633	6
0.90000	8
0.90367	11
0.90733	11
0.91100	12
0.91467	12
0.91833	11
0.92200	9
0.92567	8
0.92933	9
0.93300	9
0.93667	7
0.94033	6
0.94400	5
0.94767	7
0.95133	7
0.95500	5
0.95867	4
0.96233	5
0.96600	7
0.96967	9
0.97333	7
0.97700	7
0.98067	7
0.98433	8
0.98800	8
0.99167	8
0.99533	8
0.99900	10
1.00267	11
1.00633	9
1.01000	6
1.01367	6
1.01733	7
1.02100	6
1.02467	7
1.02833	8
1.03200	7
1.03567	4
1.03933	1
1.04300	1
1.04667	2
1.05033	3
1.05400	3
1.05767	4
1.06133	5
1.06500	9
1.06867	11
1.07233	9
1.07600	8
1.07967	4
1.08333	3
1.08700	6
1.09067	10
1.09433	12
1.09800	13
1.10167	13
1.10533	12
1.10900	14
1.11267	14
1.11633	14
1.12000	14
1.12367	14
1.12733	13
1.13100	12
1.13467	11
1.13833	8
1.14200	7
1.14567	8
1.14933	12
1.15300	13
1.15667	13
1.16033	11
1.16400	10
1.16767	10
1.17133	11
1.17500	9
1.17867	8
1.18233	7
1.18600	6
1.18967	5
1.19333	5
1.19700	5
1.20067	6
1.20433	4
1.20800	3
1.21167	3
1.21533	4
1.21900	6
1.22267	11
1.22633	13
1.23000	10
1.23367	8
1.23733	5
1.24100	3
1.24467	4
1.24833	9
1.25200	13
1.25567	15
1.25933	13
1.26300	9
1.26667	6
1.27033	5
1.27400	4
1.27767	5
1.28133	4
1.28500	5
1.28867	6
1.29233	7
1.29600	8
1.29967	8
1.30333	8
1.30700	11
1.31067	14
1.31433	15
1.31800	13
1.32167	11
1.32533	10
1.32900	9
1.33267	9
1.33633	10
1.34000	9
1.34367	10
1.34733	10
1.35100	9
1.35467	10
1.35833	12
1.36200	13
1.36567	12
1.36933	11
1.37300	11
1.37667	11
1.38033	12
1.38400	13
1.38767	13
1.39133	12
1.39500	11
1.39867	11
1.40233	9
1.40600	9
1.40967	10
1.41333	12
1.41700	15
1.42067	13
1.42433	12
1.42800	11
1.43167	11
1.43533	10
1.43900	11
1.44267	9
1.44633	9
1.45000	9
1.45367	7
1.45733	6
1.46100	4
1.46467	4
1.46833	3
1.47200	3
1.47567	3
1.47933	4
1.48300	5
1.48667	6
1.49033	9
1.49400	12
1.49767	13
1.50133	11
1.50500	7
1.50867	5
1.51233	5
1.51600	7
1.51967	9
1.52333	11
1.52700	10
1.53067	7
1.53433	6
1.53800	4
1.54167	7
1.54533	9
1.54900	9
1.55267	9
1.55633	11
1.56000	11
1.56367	12
1.56733	12
1.57100	12
1.57467	14
1.57833	15
1.58200	15
1.58567	14
1.58933	14
1.59300	14
1.59667	14
1.60033	14
1.60400	12
1.60767	11
1.61133	12
1.61500	14
1.61867	15
1.62233	14
1.62600	11
1.62967	11
1.63333	11
1.63700	8
1.64067	7
1.64433	8
1.64800	10
1.65167	11
1.65533	12
1.65900	14
1.66267	16
1.66633	16
1.67000	12
1.67367	13
1.67733	15
1.68100	15
1.68467	13
1.68833	14
1.69200	16
1.69567	17
1.69933	15
1.70300	15
1.70667	16
1.71033	15
1.71400	13
1.71767	14
1.72133	15
1.72500	15
1.72867	14
1.73233	13
1.73600	13
1.73967	13
1.74333	14
1.74700	14
1.75067	13
1.75433	13
1.75800	15
1.76167	17
1.76533	20
1.76900	21
1.77267	21
1.77633	19
1.78000	20
1.78367	21
1.78733	20
1.79100	19
1.79467	19
1.79833	16
1.80200	13
1.80567	12
1.80933	12
1.81300	13
1.81667	17
1.82033	20
1.82400	22
1.82767	23
1.83133	22
1.83500	20
1.83867	17
1.84233	20
1.84600	23
1.84967	26
1.85333	26
1.85700	26
1.86067	25
1.86433	29
1.86800	30
1.87167	28
1.87533	25
1.87900	26
1.88267	28
1.88633	30
1.89000	33
1.89367	35
1.89733	37
1.90100	38
1.90467	37
1.90833	35
1.91200	33
1.91567	30
1.91933	29
1.92300	29
1.92667	28
1.93033	28
1.93400	28
1.93767	28
1.94133	30
1.94500	32
1.94867	31
1.95233	30
1.95600	30
1.95967	30
1.96333	29
1.96700	28
1.97067	29
1.97433	32
1.97800	35
1.98167	36
1.98533	35
1.98900	33
1.99267	33
1.99633	35
2.00000	37
2.00367	38
2.00733	40
2.01100	39
2.01467	38
2.01833	41
2.02200	44
2.02567	44
2.02933	45
2.03300	46
2.03667	47
2.04033	46
2.04400	46
2.04767	46
2.05133	48
2.05500	49
2.05867	47
2.06233	47
2.06600	48
2.06967	47
2.07333	46
2.07700	47
2.08067	48
2.08433	48
2.08800	49
2.09167	50
2.09533	51
2.09900	52
2.10267	51
2.10633	50
2.11000	49
2.11367	51
2.11733	54
2.12100	57
2.12467	58
2.12833	58
2.13200	58
2.13567	58
2.13933	58
2.14300	59
2.14667	64
2.15033	65
2.15400	66
2.15767	68
2.16133	70
2.16500	70
2.16867	70
2.17233	72
2.17600	72
2.17967	72
2.18333	70
2.18700	69
2.19067	67
2.19433	68
2.19800	70
2.20167	70
2.20533	69
2.20900	70
2.21267	71
2.21633	72
2.22000	73
2.22367	76
2.22733	79
2.23100	81
2.23467	81
2.23833	81
2.24200	83
2.24567	85
2.24933	87
2.25300	88
2.25667	89
2.26033	85
2.26400	80
2.26767	81
2.27133	82
2.27500	86
2.27867	90
2.28233	90
2.28600	90
2.28967	90
2.29333	89
2.29700	88
2.30067	88
2.30433	88
2.30800	86
2.31167	84
2.31533	85
2.31900	87
2.32267	89
2.32633	91
2.33000	93
2.33367	93
2.33733	93
2.34100	93
2.34467	94
2.34833	97
2.35200	98
2.35567	99
2.35933	98
2.36300	98
2.36667	99
2.37033	97
2.37400	94
2.37767	92
2.38133	92
2.38500	92
2.38867	90
2.39233	92
2.39600	97
2.39967	103
2.40333	108
2.40700	111
2.41067	115
2.41433	118
2.41800	122
2.42167	121
2.42533	120
2.42900	121
2.43267	122
2.43633	120
2.44000	125
2.44367	161
2.44733	223
2.45100	274
2.45467	300
2.45833	300
2.46200	283
2.46567	261
2.46933	247
2.47300	237
2.47667	226
2.48033	209
2.48400	188
2.48767	168
2.49133	151
2.49500	141
2.49867	136
2.50233	137
2.50600	142
2.50967	149
2.51333	152
2.51700	154
2.52067	154
2.52433	150
2.52800	144
2.53167	133
2.53533	117
2.53900	105
2.54267	98
2.54633	96
2.55000	94
2.55367	90
2.55733	87
2.56100	86
2.56467	85
2.56833	85
2.57200	88
2.57567	92
2.57933	99
2.58300	105
2.58667	111
2.59033	118
2.59400	123
2.59767	130
2.60133	137
2.60500	141
2.60867	144
2.61233	148
2.61600	147
2.61967	146
2.62333	140
2.62700	134
2.63067	126
2.63433	119
2.63800	110
2.64167	102
2.64533	95
2.64900	89
2.65267	84
2.65633	78
2.66000	76
2.66367	72
2.66733	68
2.67100	63
2.67467	58
2.67833	55
2.68200	54
2.68567	50
2.68933	46
2.69300	47
2.69667	47
2.70033	47
2.70400	47
2.70767	47
2.71133	48
2.71500	51
2.71867	56
2.72233	61
2.72600	63
2.72967	65
2.73333	69
2.73700	72
2.74067	69
2.74433	69
2.74800	71
2.75167	76
2.75533	80
2.75900	85
2.76267	91
2.76633	96
2.77000	98
2.77367	101
2.77733	101
2.78100	100
2.78467	103
2.78833	106
2.79200	111
2.79567	116
2.79933	120
2.80300	122
2.80667	122
2.81033	122
2.81400	123
2.81767	124
2.82133	127
2.82500	132
2.82867	136
2.83233	144
2.83600	165
2.83967	222
2.84333	349
2.84700	590
2.85067	1004
2.85433	1651
2.85800	2554
2.86167	3713
2.86533	5094
2.86900	6617
2.87267	8179
2.87633	9660
2.88000	10932
2.88367	11913
2.88733	12537
2.89100	12785
2.89467	12686
2.89833	12292
2.90200	11671
2.90567	10899
2.90933	10044
2.91300	9156
2.91667	8271
2.92033	7417
2.92400	6614
2.92767	5872
2.93133	5193
2.93500	4577
2.93867	4025
2.94233	3532
2.94600	3097
2.94967	2712
2.95333	2372
2.95700	2075
2.96067	1815
2.96433	1587
2.96800	1390
2.97167	1218
2.97533	1067
2.97900	938
2.98267	826
2.98633	731
2.99000	647
2.99367	574
2.99733	511
3.00100	455
3.00467	407
3.00833	368
3.01200	333
3.01567	298
3.01933	226
3.02300	95
3.02667	-15
3.03033	-55
3.03400	-25
3.03767	59
3.04133	172
3.04500	296
3.04867	417
3.05233	525
3.05600	624
3.05967	709
3.06333	776
3.06700	829
3.07067	872
3.07433	906
3.07800	932
3.08167	952
3.08533	966
3.08900	978
3.09267	985
3.09633	989
3.10000	995
3.10367	997
3.10733	998
3.11100	1001
3.11467	1002
3.11833	1001
3.12200	998
3.12567	994
3.12933	991
3.13300	987
3.13667	986
3.14033	981
3.14400	977
3.14767	972
3.15133	967
3.15500	961
3.15867	956
3.16233	951
3.16600	947
3.16967	943
3.17333	938
3.17700	935
3.18067	932
3.18433	929
3.18800	924
3.19167	918
3.19533	912
3.19900	906
3.20267	901
3.20633	896
3.21000	894
3.21367	892
3.21733	886
3.22100	883
3.22467	879
3.22833	876
3.23200	872
3.23567	867
3.23933	863
3.24300	857
3.24667	852
3.25033	847
3.25400	842
3.25767	837
3.26133	831
3.26500	826
3.26867	823
3.27233	819
3.27600	813
3.27967	806
3.28333	801
3.28700	797
3.29067	792
3.29433	788
3.29800	785
3.30167	783
3.30533	777
3.30900	771
3.31267	768
3.31633	766
3.32000	764
3.32367	761
3.32733	757
3.33100	753
3.33467	749
3.33833	746
3.34200	745
3.34567	743
3.34933	740
3.35300	742
3.35667	742
3.36033	741
3.36400	741
3.36767	742
3.37133	741
3.37500	739
3.37867	736
3.38233	731
3.38600	729
3.38967	728
3.39333	726
3.39700	722
3.40067	720
3.40433	719
3.40800	719
3.41167	718
3.41533	717
3.41900	717
3.42267	715
3.42633	710
3.43000	707
3.43367	704
3.43733	701
3.44100	696
3.44467	691
3.44833	688
3.45200	683
3.45567	678
3.45933	676
3.46300	674
3.46667	673
3.47033	671
3.47400	669
3.47767	665
3.48133	658
3.48500	652
3.48867	648
3.49233	647
3.49600	644
3.49967	642
3.50333	639
3.50700	633
3.51067	629
3.51433	626
3.51800	623
3.52167	624
3.52533	626
3.52900	624
3.53267	624
3.53633	624
3.54000	621
3.54367	619
3.54733	618
3.55100	617
3.55467	615
3.55833	610
3.56200	607
3.56567	603
3.56933	602
3.57300	602
3.57667	603
3.58033	601
3.58400	599
3.58767	595
3.59133	591
3.59500	587
3.59867	585
3.60233	583
3.60600	580
3.60967	579
3.61333	579
3.61700	576
3.62067	573
3.62433	570
3.62800	568
3.63167	568
3.63533	568
3.63900	567
3.64267	567
3.64633	565
3.65000	565
3.65367	562
3.65733	557
3.66100	554
3.66467	550
3.66833	545
3.67200	543
3.67567	544
3.67933	541
3.68300	538
3.68667	536
3.69033	537
3.69400	539
3.69767	541
3.70133	543
3.70500	543
3.70867	543
3.71233	542
3.71600	541
3.71967	543
3.72333	544
3.72700	543
3.73067	542
3.73433	542
3.73800	542
3.74167	539
3.74533	535
3.74900	533
3.75267	533
3.75633	532
3.76000	534
3.76367	534
3.76733	532
3.77100	529
3.77467	526
3.77833	524
3.78200	523
3.78567	522
3.78933	521
3.79300	519
3.79667	516
3.80033	517
3.80400	518
3.80767	516
3.81133	516
3.81500	514
3.81867	512
3.82233	511
3.82600	511
3.82967	511
3.83333	511
3.83700	511
3.84067	510
3.84433	507
3.84800	504
3.85167	502
3.85533	500
3.85900	501
3.86267	501
3.86633	502
3.87000	501
3.87367	501
3.87733	500
3.88100	499
3.88467	498
3.88833	495
3.89200	493
3.89567	493
3.89933	492
3.90300	490
3.90667	486
3.91033	484
3.91400	484
3.91767	483
3.92133	484
3.92500	485
3.92867	486
3.93233	488
3.93600	489
3.93967	487
3.94333	484
3.94700	482
3.95067	479
3.95433	477
3.95800	478
3.96167	478
3.96533	475
3.96900	474
3.97267	474
3.97633	473
3.98000	474
3.98367	474
3.98733	472
3.99100	471
3.99467	467
3.99833	459

[Status Trace (Column Oven Temperature)]
Interval(msec)	1000
# of Points	240
Start Time(min)	0.008
End Time(min)	3.991
Intensity Units	
Intensity Multiplier	1
R.Time (min)	Intensity
0.00797	35.05
0.02463	35.05
0.04130	35.05
0.05797	35.05
0.07463	35.05
0.09130	35.05
0.10797	35.04
0.12463	35.04
0.14130	35.04
0.15797	35.04
0.17463	35.04
0.19130	35.03
0.20797	35.02
0.22463	35.02
0.24130	35.02
0.25797	35.03
0.27463	35.02
0.29130	35.02
0.30797	35.01
0.32463	35.02
0.34130	35.01
0.35797	35.01
0.37463	35.01
0.39130	35.00
0.40797	35.01
0.42463	35.01
0.44130	35.01
0.45797	35.01
0.47463	35.01
0.49130	35.01
0.50797	35.01
0.52463	35.02
0.54130	35.01
0.55797	35.01
0.57463	35.01
0.59130	35.01
0.60797	35.00
0.62463	35.01
0.64130	35.00
0.65797	34.99
0.67463	34.99
0.69130	34.99
0.70797	34.99
0.72463	34.99
0.74130	34.99
0.75797	34.99
0.77463	34.99
0.79130	35.00
0.80797	34.99
0.82463	35.00
0.84130	35.00
0.85797	35.00
0.87463	35.00
0.89130	35.00
0.90797	35.00
0.92463	34.99
0.94130	34.99
0.95797	34.99
0.97463	35.00
0.99130	34.99
1.00797	35.00
1.02463	35.00
1.04130	35.00
1.05797	34.99
1.07463	35.00
1.09130	35.00
1.10797	34.99
1.12463	34.99
1.14130	34.99
1.15797	34.98
1.17463	35.00
1.19130	35.00
1.20797	34.99
1.22463	34.99
1.24130	34.99
1.25797	34.99
1.27463	34.99
1.29130	35.00
1.30797	34.99
1.32463	34.99
1.34130	34.99
1.35797	34.99
1.37463	34.99
1.39130	35.00
1.40797	34.99
1.42463	34.99
1.44130	34.98
1.45797	34.98
1.47463	34.99
1.49130	34.99
1.50797	34.99
1.52463	35.00
1.54130	35.00
1.55797	35.00
1.57463	35.00
1.59130	35.01
1.60797	35.07
1.62463	35.19
1.64130	35.37
1.65797	35.60
1.67463	35.94
1.69130	36.31
1.70797	36.66
1.72463	37.00
1.74130	37.34
1.75797	37.66
1.77463	37.97
1.79130	38.32
1.80797	38.64
1.82463	38.98
1.84130	39.32
1.85797	39.65
1.87463	39.97
1.89130	40.31
1.90797	40.63
1.92463	40.95
1.94130	41.26
1.95797	41.58
1.97463	41.92
1.99130	42.25
2.00797	42.58
2.02463	42.90
2.04130	43.24
2.05797	43.55
2.07463	43.87
2.09130	44.19
2.10797	44.53
2.12463	44.86
2.14130	45.18
2.15797	45.52
2.17463	45.86
2.19130	46.18
2.20797	46.52
2.22463	46.85
2.24130	47.18
2.25797	47.49
2.27463	47.79
2.29130	48.15
2.30797	48.52
2.32463	48.85
2.34130	49.17
2.35797	49.44
2.37463	49.61
2.39130	49.67
2.40797	49.66
2.42463	49.67
2.44130	49.67
2.45797	49.67
2.47463	49.70
2.49130	49.70
2.50797	49.73
2.52463	49.75
2.54130	49.77
2.55797	49.77
2.57463	49.78
2.59130	49.79
2.60797	49.83
2.62463	49.84
2.64130	49.84
2.65797	49.85
2.67463	49.86
2.69130	49.88
2.70797	49.87
2.72463	49.86
2.74130	49.84
2.75797	49.86
2.77463	49.88
2.79130	49.89
2.80797	49.90
2.82463	49.90
2.84130	49.92
2.85797	49.91
2.87463	49.92
2.89130	49.93
2.90797	49.94
2.92463	49.94
2.94130	49.95
2.95797	49.97
2.97463	49.98
2.99130	50.00
3.00797	50.00
3.02463	50.01
3.04130	50.02
3.05797	50.03
3.07463	50.04
3.09130	50.05
3.10797	50.05
3.12463	50.06
3.14130	50.06
3.15797	50.08
3.17463	50.09
3.19130	50.10
3.20797	50.10
3.22463	50.10
3.24130	50.10
3.25797	50.08
3.27463	50.08
3.29130	50.08
3.30797	50.08
3.32463	50.08
3.34130	50.08
3.35797	50.08
3.37463	50.08
3.39130	50.07
3.40797	50.08
3.42463	50.08
3.44130	50.08
3.45797	50.08
3.47463	50.08
3.49130	50.08
3.50797	50.08
3.52463	50.08
3.54130	50.08
3.55797	50.09
3.57463	50.10
3.59130	50.09
3.60797	50.09
3.62463	50.09
3.64130	50.09
3.65797	50.10
3.67463	50.09
3.69130	50.09
3.70797	50.09
3.72463	50.08
3.74130	50.08
3.75797	50.08
3.77463	50.08
3.79130	50.09
3.80797	50.09
3.82463	50.09
3.84130	50.08
3.85797	50.09
3.87463	50.08
3.89130	50.08
3.90797	50.08
3.92463	50.08
3.94130	50.08
3.95797	50.08
3.97463	50.08
3.99130	50.08

[Status Trace (Injection Unit Temperature)]
Interval(msec)	1000
# of Points	240
Start Time(min)	0.008
End Time(min)	3.991
Intensity Units	
Intensity Multiplier	1
R.Time (min)	Intensity
0.00797	99.97
0.02463	99.98
0.04130	99.98
0.05797	99.98
0.07463	99.98
0.09130	99.98
0.10797	99.98
0.12463	99.98
0.14130	99.98
0.15797	99.98
0.17463	99.98
0.19130	99.98
0.20797	99.98
0.22463	99.98
0.24130	99.98
0.25797	99.98
0.27463	99.98
0.29130	99.98
0.30797	99.98
0.32463	99.98
0.34130	99.98
0.35797	99.98
0.37463	99.98
0.39130	99.99
0.40797	99.98
0.42463	99.98
0.44130	99.98
0.45797	99.98
0.47463	99.98
0.49130	99.98
0.50797	99.98
0.52463	99.98
0.54130	99.98
0.55797	99.98
0.57463	99.98
0.59130	99.98
0.60797	99.98
0.62463	99.98
0.64130	99.98
0.65797	99.98
0.67463	99.98
0.69130	99.98
0.70797	99.98
0.72463	99.98
0.74130	99.98
0.75797	99.98
0.77463	99.98
0.79130	99.98
0.80797	99.98
0.82463	99.98
0.84130	99.98
0.85797	99.98
0.87463	99.98
0.89130	99.98
0.90797	99.98
0.92463	99.98
0.94130	99.98
0.95797	99.98
0.97463	99.98
0.99130	99.98
1.00797	99.98
1.02463	99.98
1.04130	99.98
1.05797	99.98
1.07463	99.98
1.09130	99.98
1.10797	99.98
1.12463	99.98
1.14130	99.98
1.15797	99.98
1.17463	99.98
1.19130	99.98
1.20797	99.98
1.22463	99.98
1.24130	99.98
1.25797	99.98
1.27463	99.98
1.29130	99.98
1.30797	99.98
1.32463	99.98
1.34130	99.98
1.35797	99.98
1.37463	99.98
1.39130	99.98
1.40797	99.98
1.42463	99.98
1.44130	99.98
1.45797	99.98
1.47463	99.98
1.49130	99.98
1.50797	99.98
1.52463	99.98
1.54130	99.98
1.55797	99.98
1.57463	99.98
1.59130	99.98
1.60797	99.98
1.62463	99.98
1.64130	99.98
1.65797	99.98
1.67463	99.98
1.69130	99.98
1.70797	99.98
1.72463	99.98
1.74130	99.98
1.75797	99.98
1.77463	99.98
1.79130	99.98
1.80797	99.98
1.82463	99.98
1.84130	99.98
1.85797	99.98
1.87463	99.98
1.89130	99.98
1.90797	99.98
1.92463	99.97
1.94130	99.97
1.95797	99.97
1.97463	99.97
1.99130	99.97
2.00797	99.97
2.02463	99.97
2.04130	99.97
2.05797	99.97
2.07463	99.96
2.09130	99.97
2.10797	99.97
2.12463	99.97
2.14130	99.97
2.15797	99.97
2.17463	99.97
2.19130	99.96
2.20797	99.96
2.22463	99.96
2.24130	99.96
2.25797	99.96
2.27463	99.96
2.29130	99.96
2.30797	99.96
2.32463	99.96
2.34130	99.96
2.35797	99.96
2.37463	99.96
2.39130	99.96
2.40797	99.96
2.42463	99.96
2.44130	99.96
2.45797	99.96
2.47463	99.96
2.49130	99.96
2.50797	99.97
2.52463	99.96
2.54130	99.96
2.55797	99.97
2.57463	99.96
2.59130	99.97
2.60797	99.97
2.62463	99.97
2.64130	99.97
2.65797	99.97
2.67463	99.97
2.69130	99.98
2.70797	99.98
2.72463	99.98
2.74130	99.98
2.75797	99.98
2.77463	99.98
2.79130	99.99
2.80797	99.98
2.82463	99.99
2.84130	99.98
2.85797	99.99
2.87463	99.99
2.89130	99.99
2.90797	99.99
2.92463	100.00
2.94130	100.00
2.95797	100.00
2.97463	100.00
2.99130	100.01
3.00797	100.01
3.02463	100.00
3.04130	100.01
3.05797	100.01
3.07463	100.01
3.09130	100.01
3.10797	100.01
3.12463	100.01
3.14130	100.01
3.15797	100.02
3.17463	100.02
3.19130	100.02
3.20797	100.02
3.22463	100.02
3.24130	100.02
3.25797	100.02
3.27463	100.02
3.29130	100.02
3.30797	100.02
3.32463	100.02
3.34130	100.03
3.35797	100.03
3.37463	100.02
3.39130	100.03
3.40797	100.03
3.42463	100.03
3.44130	100.03
3.45797	100.03
3.47463	100.03
3.49130	100.03
3.50797	100.03
3.52463	100.03
3.54130	100.03
3.55797	100.03
3.57463	100.03
3.59130	100.03
3.60797	100.04
3.62463	100.03
3.64130	100.03
3.65797	100.04
3.67463	100.04
3.69130	100.03
3.70797	100.04
3.72463	100.04
3.74130	100.03
3.75797	100.04
3.77463	100.04
3.79130	100.04
3.80797	100.04
3.82463	100.04
3.84130	100.04
3.85797	100.04
3.87463	100.04
3.89130	100.04
3.90797	100.04
3.92463	100.04
3.94130	100.04
3.95797	100.04
3.97463	100.04
3.99130	100.04

[Status Trace (Carrier Gas Pressure)]
Interval(msec)	1000
# of Points	240
Start Time(min)	0.008
End Time(min)	3.991
Intensity Units	
Intensity Multiplier	1
R.Time (min)	Intensity
0.00797	58.00
0.02463	55.32
0.04130	57.01
0.05797	59.20
0.07463	59.47
0.09130	58.10
0.10797	57.98
0.12463	58.01
0.14130	58.01
0.15797	58.01
0.17463	58.00
0.19130	58.00
0.20797	58.00
0.22463	58.00
0.24130	58.00
0.25797	58.00
0.27463	58.00
0.29130	58.00
0.30797	58.00
0.32463	58.00
0.34130	58.00
0.35797	58.00
0.37463	58.00
0.39130	58.00
0.40797	58.00
0.42463	58.00
0.44130	58.00
0.45797	58.00
0.47463	58.00
0.49130	58.00
0.50797	58.00
0.52463	58.00
0.54130	58.00
0.55797	58.00
0.57463	58.00
0.59130	58.00
0.60797	58.00
0.62463	58.00
0.64130	58.00
0.65797	58.00
0.67463	58.00
0.69130	58.00
0.70797	58.00
0.72463	58.00
0.74130	58.00
0.75797	58.00
0.77463	58.00
0.79130	58.00
0.80797	58.00
0.82463	58.00
0.84130	58.00
0.85797	58.00
0.87463	58.00
0.89130	58.00
0.90797	58.00
0.92463	58.00
0.94130	58.00
0.95797	58.00
0.97463	58.00
0.99130	58.00
1.00797	58.00
1.02463	58.00
1.04130	58.00
1.05797	58.00
1.07463	58.00
1.09130	58.00
1.10797	58.00
1.12463	58.00
1.14130	58.00
1.15797	58.00
1.17463	58.00
1.19130	58.00
1.20797	58.00
1.22463	58.00
1.24130	58.00
1.25797	58.00
1.27463	58.00
1.29130	58.00
1.30797	58.00
1.32463	58.00
1.34130	58.00
1.35797	58.00
1.37463	58.00
1.39130	58.00
1.40797	58.00
1.42463	58.00
1.44130	58.00
1.45797	58.00
1.47463	58.00
1.49130	58.00
1.50797	58.00
1.52463	58.00
1.54130	58.00
1.55797	58.00
1.57463	58.00
1.59130	58.00
1.60797	58.00
1.62463	58.00
1.64130	58.00
1.65797	58.00
1.67463	58.01
1.69130	58.00
1.70797	58.00
1.72463	58.00
1.74130	58.00
1.75797	58.00
1.77463	58.00
1.79130	58.00
1.80797	58.00
1.82463	58.00
1.84130	58.00
1.85797	58.00
1.87463	58.00
1.89130	58.00
1.90797	58.00
1.92463	58.00
1.94130	58.00
1.95797	58.00
1.97463	58.00
1.99130	58.00
2.00797	58.00
2.02463	58.00
2.04130	58.00
2.05797	58.00
2.07463	58.00
2.09130	58.00
2.10797	58.00
2.12463	58.00
2.14130	58.00
2.15797	58.00
2.17463	58.00
2.19130	58.00
2.20797	58.00
2.22463	58.00
2.24130	58.00
2.25797	58.00
2.27463	58.00
2.29130	58.00
2.30797	58.00
2.32463	58.00
2.34130	58.00
2.35797	58.00
2.37463	58.00
2.39130	57.99
2.40797	57.99
2.42463	58.00
2.44130	58.00
2.45797	58.00
2.47463	58.00
2.49130	58.00
2.50797	58.00
2.52463	57.98
2.54130	58.00
2.55797	58.00
2.57463	58.00
2.59130	58.00
2.60797	58.00
2.62463	58.00
2.64130	58.00
2.65797	58.00
2.67463	58.00
2.69130	58.00
2.70797	58.00
2.72463	58.00
2.74130	58.00
2.75797	58.00
2.77463	58.00
2.79130	58.00
2.80797	58.00
2.82463	58.00
2.84130	58.00
2.85797	58.00
2.87463	58.00
2.89130	58.00
2.90797	58.00
2.92463	58.00
2.94130	58.00
2.95797	58.00
2.97463	58.00
2.99130	58.00
3.00797	58.00
3.02463	58.00
3.04130	58.00
3.05797	58.00
3.07463	58.00
3.09130	58.00
3.10797	58.00
3.12463	58.00
3.14130	58.00
3.15797	58.00
3.17463	58.00
3.19130	58.00
3.20797	58.00
3.22463	58.00
3.24130	58.00
3.25797	58.00
3.27463	58.00
3.29130	58.00
3.30797	58.00
3.32463	58.00
3.34130	58.00
3.35797	58.00
3.37463	58.00
3.39130	58.00
3.40797	58.00
3.42463	58.00
3.44130	58.00
3.45797	58.00
3.47463	58.00
3.49130	58.00
3.50797	58.00
3.52463	58.00
3.54130	58.00
3.55797	58.00
3.57463	58.00
3.59130	58.00
3.60797	58.00
3.62463	58.00
3.64130	58.00
3.65797	58.00
3.67463	58.00
3.69130	58.00
3.70797	58.00
3.72463	58.00
3.74130	58.00
3.75797	58.00
3.77463	58.00
3.79130	58.00
3.80797	58.00
3.82463	58.00
3.84130	58.00
3.85797	58.00
3.87463	58.00
3.89130	58.00
3.90797	58.00
3.92463	58.00
3.94130	58.00
3.95797	58.00
3.97463	58.00
3.99130	58.00

[Status Trace (Carrier Gas Flow)]
Interval(msec)	1000
# of Points	240
Start Time(min)	0.008
End Time(min)	3.991
Intensity Units	
Intensity Multiplier	1
R.Time (min)	Intensity
0.00797	34.52
0.02463	34.54
0.04130	34.55
0.05797	34.54
0.07463	34.49
0.09130	34.52
0.10797	34.51
0.12463	34.51
0.14130	34.52
0.15797	34.51
0.17463	34.52
0.19130	34.52
0.20797	34.52
0.22463	34.52
0.24130	34.52
0.25797	34.52
0.27463	34.52
0.29130	34.51
0.30797	34.52
0.32463	34.52
0.34130	34.52
0.35797	34.52
0.37463	34.52
0.39130	34.52
0.40797	34.52
0.42463	34.52
0.44130	34.52
0.45797	34.52
0.47463	34.51
0.49130	34.52
0.50797	34.51
0.52463	34.52
0.54130	34.52
0.55797	34.52
0.57463	34.51
0.59130	34.52
0.60797	34.53
0.62463	34.52
0.64130	34.52
0.65797	34.52
0.67463	34.52
0.69130	34.51
0.70797	34.52
0.72463	34.52
0.74130	34.52
0.75797	34.52
0.77463	34.52
0.79130	34.52
0.80797	34.52
0.82463	34.53
0.84130	34.52
0.85797	34.52
0.87463	34.52
0.89130	34.52
0.90797	34.52
0.92463	34.52
0.94130	34.52
0.95797	34.52
0.97463	34.52
0.99130	34.52
1.00797	34.52
1.02463	34.52
1.04130	34.53
1.05797	34.52
1.07463	34.52
1.09130	34.52
1.10797	34.52
1.12463	34.52
1.14130	34.52
1.15797	34.52
1.17463	34.52
1.19130	34.52
1.20797	34.52
1.22463	34.52
1.24130	34.52
1.25797	34.52
1.27463	34.52
1.29130	34.52
1.30797	34.51
1.32463	34.52
1.34130	34.51
1.35797	34.52
1.37463	34.51
1.39130	34.53
1.40797	34.52
1.42463	34.52
1.44130	34.52
1.45797	34.52
1.47463	34.51
1.49130	34.52
1.50797	34.52
1.52463	34.52
1.54130	34.52
1.55797	34.52
1.57463	34.52
1.59130	34.52
1.60797	34.52
1.62463	34.52
1.64130	34.51
1.65797	34.52
1.67463	34.53
1.69130	34.51
1.70797	34.51
1.72463	34.52
1.74130	34.52
1.75797	34.52
1.77463	34.52
1.79130	34.52
1.80797	34.51
1.82463	34.51
1.84130	34.52
1.85797	34.51
1.87463	34.52
1.89130	34.52
1.90797	34.52
1.92463	34.51
1.94130	34.52
1.95797	34.52
1.97463	34.52
1.99130	34.52
2.00797	34.52
2.02463	34.52
2.04130	34.52
2.05797	34.52
2.07463	34.52
2.09130	34.52
2.10797	34.52
2.12463	34.52
2.14130	34.52
2.15797	34.52
2.17463	34.52
2.19130	34.52
2.20797	34.53
2.22463	34.52
2.24130	34.52
2.25797	34.52
2.27463	34.52
2.29130	34.51
2.30797	34.52
2.32463	34.52
2.34130	34.53
2.35797	34.52
2.37463	34.52
2.39130	34.52
2.40797	34.52
2.42463	34.52
2.44130	34.52
2.45797	34.52
2.47463	34.52
2.49130	34.52
2.50797	34.38
2.52463	34.52
2.54130	34.52
2.55797	34.52
2.57463	34.51
2.59130	34.52
2.60797	34.52
2.62463	34.52
2.64130	34.52
2.65797	34.52
2.67463	34.51
2.69130	34.52
2.70797	34.52
2.72463	34.52
2.74130	34.51
2.75797	34.52
2.77463	34.52
2.79130	34.51
2.80797	34.52
2.82463	34.52
2.84130	34.52
2.85797	34.51
2.87463	34.53
2.89130	34.52
2.90797	34.52
2.92463	34.52
2.94130	34.52
2.95797	34.52
2.97463	34.52
2.99130	34.52
3.00797	34.52
3.02463	34.52
3.04130	34.52
3.05797	34.52
3.07463	34.52
3.09130	34.52
3.10797	34.52
3.12463	34.52
3.14130	34.52
3.15797	34.52
3.17463	34.52
3.19130	34.51
3.20797	34.52
3.22463	34.52
3.24130	34.52
3.25797	34.51
3.27463	34.51
3.29130	34.52
3.30797	34.52
3.32463	34.52
3.34130	34.52
3.35797	34.52
3.37463	34.52
3.39130	34.52
3.40797	34.52
3.42463	34.52
3.44130	34.51
3.45797	34.52
3.47463	34.52
3.49130	34.52
3.50797	34.52
3.52463	34.52
3.54130	34.52
3.55797	34.51
3.57463	34.53
3.59130	34.52
3.60797	34.52
3.62463	34.52
3.64130	34.52
3.65797	34.52
3.67463	34.51
3.69130	34.51
3.70797	34.52
3.72463	34.52
3.74130	34.53
3.75797	34.52
3.77463	34.52
3.79130	34.52
3.80797	34.52
3.82463	34.52
3.84130	34.52
3.85797	34.52
3.87463	34.52
3.89130	34.52
3.90797	34.52
3.92463	34.53
3.94130	34.51
3.95797	34.52
3.97463	34.52
3.99130	34.52

[Status Trace (Column Flow)]
Interval(msec)	1000
# of Points	240
Start Time(min)	0.008
End Time(min)	3.991
Intensity Units	
Intensity Multiplier	1
R.Time (min)	Intensity
0.00797	5.51
0.02463	5.20
0.04130	5.39
0.05797	5.65
0.07463	5.68
0.09130	5.52
0.10797	5.50
0.12463	5.51
0.14130	5.51
0.15797	5.51
0.17463	5.51
0.19130	5.51
0.20797	5.51
0.22463	5.51
0.24130	5.51
0.25797	5.51
0.27463	5.51
0.29130	5.51
0.30797	5.51
0.32463	5.51
0.34130	5.51
0.35797	5.51
0.37463	5.51
0.39130	5.51
0.40797	5.51
0.42463	5.51
0.44130	5.51
0.45797	5.51
0.47463	5.51
0.49130	5.51
0.50797	5.51
0.52463	5.51
0.54130	5.51
0.55797	5.51
0.57463	5.51
0.59130	5.51
0.60797	5.51
0.62463	5.51
0.64130	5.51
0.65797	5.51
0.67463	5.51
0.69130	5.51
0.70797	5.51
0.72463	5.51
0.74130	5.51
0.75797	5.51
0.77463	5.51
0.79130	5.51
0.80797	5.51
0.82463	5.51
0.84130	5.51
0.85797	5.51
0.87463	5.51
0.89130	5.51
0.90797	5.51
0.92463	5.51
0.94130	5.51
0.95797	5.51
0.97463	5.51
0.99130	5.51
1.00797	5.51
1.02463	5.51
1.04130	5.51
1.05797	5.51
1.07463	5.51
1.09130	5.51
1.10797	5.51
1.12463	5.51
1.14130	5.51
1.15797	5.51
1.17463	5.51
1.19130	5.51
1.20797	5.51
1.22463	5.51
1.24130	5.51
1.25797	5.51
1.27463	5.51
1.29130	5.51
1.30797	5.51
1.32463	5.51
1.34130	5.51
1.35797	5.51
1.37463	5.51
1.39130	5.51
1.40797	5.51
1.42463	5.51
1.44130	5.51
1.45797	5.51
1.47463	5.51
1.49130	5.51
1.50797	5.51
1.52463	5.51
1.54130	5.51
1.55797	5.51
1.57463	5.51
1.59130	5.51
1.60797	5.50
1.62463	5.50
1.64130	5.50
1.65797	5.49
1.67463	5.48
1.69130	5.47
1.70797	5.46
1.72463	5.44
1.74130	5.43
1.75797	5.42
1.77463	5.41
1.79130	5.40
1.80797	5.39
1.82463	5.38
1.84130	5.37
1.85797	5.36
1.87463	5.35
1.89130	5.34
1.90797	5.33
1.92463	5.32
1.94130	5.32
1.95797	5.31
1.97463	5.30
1.99130	5.29
2.00797	5.28
2.02463	5.27
2.04130	5.26
2.05797	5.25
2.07463	5.24
2.09130	5.23
2.10797	5.22
2.12463	5.21
2.14130	5.20
2.15797	5.19
2.17463	5.18
2.19130	5.17
2.20797	5.16
2.22463	5.15
2.24130	5.14
2.25797	5.13
2.27463	5.13
2.29130	5.12
2.30797	5.11
2.32463	5.10
2.34130	5.09
2.35797	5.08
2.37463	5.08
2.39130	5.07
2.40797	5.07
2.42463	5.07
2.44130	5.07
2.45797	5.07
2.47463	5.07
2.49130	5.07
2.50797	5.07
2.52463	5.07
2.54130	5.07
2.55797	5.07
2.57463	5.07
2.59130	5.07
2.60797	5.07
2.62463	5.07
2.64130	5.07
2.65797	5.07
2.67463	5.07
2.69130	5.07
2.70797	5.07
2.72463	5.07
2.74130	5.07
2.75797	5.07
2.77463	5.07
2.79130	5.07
2.80797	5.07
2.82463	5.07
2.84130	5.07
2.85797	5.07
2.87463	5.07
2.89130	5.07
2.90797	5.07
2.92463	5.07
2.94130	5.07
2.95797	5.07
2.97463	5.07
2.99130	5.06
3.00797	5.06
3.02463	5.06
3.04130	5.06
3.05797	5.06
3.07463	5.06
3.09130	5.06
3.10797	5.06
3.12463	5.06
3.14130	5.06
3.15797	5.06
3.17463	5.06
3.19130	5.06
3.20797	5.06
3.22463	5.06
3.24130	5.06
3.25797	5.06
3.27463	5.06
3.29130	5.06
3.30797	5.06
3.32463	5.06
3.34130	5.06
3.35797	5.06
3.37463	5.06
3.39130	5.06
3.40797	5.06
3.42463	5.06
3.44130	5.06
3.45797	5.06
3.47463	5.06
3.49130	5.06
3.50797	5.06
3.52463	5.06
3.54130	5.06
3.55797	5.06
3.57463	5.06
3.59130	5.06
3.60797	5.06
3.62463	5.06
3.64130	5.06
3.65797	5.06
3.67463	5.06
3.69130	5.06
3.70797	5.06
3.72463	5.06
3.74130	5.06
3.75797	5.06
3.77463	5.06
3.79130	5.06
3.80797	5.06
3.82463	5.06
3.84130	5.06
3.85797	5.06
3.87463	5.06
3.89130	5.06
3.90797	5.06
3.92463	5.06
3.94130	5.06
3.95797	5.06
3.97463	5.06
3.99130	5.06

[Status Trace (Linear Velocity)]
Interval(msec)	1000
# of Points	240
Start Time(min)	0.008
End Time(min)	3.991
Intensity Units	
Intensity Multiplier	1
R.Time (min)	Intensity
0.00797	39.01
0.02463	37.25
0.04130	38.36
0.05797	39.79
0.07463	39.97
0.09130	39.07
0.10797	39.00
0.12463	39.02
0.14130	39.02
0.15797	39.01
0.17463	39.01
0.19130	39.01
0.20797	39.01
0.22463	39.01
0.24130	39.01
0.25797	39.01
0.27463	39.01
0.29130	39.01
0.30797	39.01
0.32463	39.01
0.34130	39.01
0.35797	39.01
0.37463	39.01
0.39130	39.01
0.40797	39.01
0.42463	39.01
0.44130	39.01
0.45797	39.01
0.47463	39.01
0.49130	39.01
0.50797	39.01
0.52463	39.01
0.54130	39.01
0.55797	39.01
0.57463	39.01
0.59130	39.01
0.60797	39.01
0.62463	39.01
0.64130	39.01
0.65797	39.01
0.67463	39.01
0.69130	39.01
0.70797	39.01
0.72463	39.01
0.74130	39.01
0.75797	39.01
0.77463	39.01
0.79130	39.01
0.80797	39.01
0.82463	39.01
0.84130	39.01
0.85797	39.01
0.87463	39.01
0.89130	39.01
0.90797	39.01
0.92463	39.01
0.94130	39.01
0.95797	39.01
0.97463	39.01
0.99130	39.01
1.00797	39.01
1.02463	39.01
1.04130	39.01
1.05797	39.01
1.07463	39.01
1.09130	39.01
1.10797	39.01
1.12463	39.01
1.14130	39.01
1.15797	39.02
1.17463	39.01
1.19130	39.01
1.20797	39.01
1.22463	39.01
1.24130	39.01
1.25797	39.01
1.27463	39.01
1.29130	39.01
1.30797	39.01
1.32463	39.01
1.34130	39.01
1.35797	39.01
1.37463	39.01
1.39130	39.01
1.40797	39.01
1.42463	39.01
1.44130	39.01
1.45797	39.02
1.47463	39.01
1.49130	39.01
1.50797	39.01
1.52463	39.01
1.54130	39.01
1.55797	39.01
1.57463	39.01
1.59130	39.01
1.60797	39.01
1.62463	39.00
1.64130	38.98
1.65797	38.96
1.67463	38.93
1.69130	38.89
1.70797	38.85
1.72463	38.82
1.74130	38.79
1.75797	38.76
1.77463	38.73
1.79130	38.70
1.80797	38.67
1.82463	38.63
1.84130	38.60
1.85797	38.57
1.87463	38.54
1.89130	38.51
1.90797	38.48
1.92463	38.45
1.94130	38.42
1.95797	38.39
1.97463	38.36
1.99130	38.33
2.00797	38.30
2.02463	38.27
2.04130	38.24
2.05797	38.21
2.07463	38.18
2.09130	38.15
2.10797	38.12
2.12463	38.09
2.14130	38.06
2.15797	38.03
2.17463	38.00
2.19130	37.97
2.20797	37.94
2.22463	37.91
2.24130	37.88
2.25797	37.85
2.27463	37.83
2.29130	37.79
2.30797	37.76
2.32463	37.73
2.34130	37.70
2.35797	37.68
2.37463	37.66
2.39130	37.65
2.40797	37.66
2.42463	37.66
2.44130	37.66
2.45797	37.66
2.47463	37.66
2.49130	37.65
2.50797	37.65
2.52463	37.64
2.54130	37.65
2.55797	37.65
2.57463	37.65
2.59130	37.65
2.60797	37.64
2.62463	37.64
2.64130	37.64
2.65797	37.64
2.67463	37.64
2.69130	37.64
2.70797	37.64
2.72463	37.64
2.74130	37.64
2.75797	37.64
2.77463	37.64
2.79130	37.64
2.80797	37.64
2.82463	37.64
2.84130	37.64
2.85797	37.64
2.87463	37.64
2.89130	37.64
2.90797	37.63
2.92463	37.63
2.94130	37.63
2.95797	37.63
2.97463	37.63
2.99130	37.63
3.00797	37.63
3.02463	37.63
3.04130	37.63
3.05797	37.63
3.07463	37.63
3.09130	37.63
3.10797	37.62
3.12463	37.62
3.14130	37.62
3.15797	37.62
3.17463	37.62
3.19130	37.62
3.20797	37.62
3.22463	37.62
3.24130	37.62
3.25797	37.62
3.27463	37.62
3.29130	37.62
3.30797	37.62
3.32463	37.62
3.34130	37.62
3.35797	37.62
3.37463	37.62
3.39130	37.62
3.40797	37.62
3.42463	37.62
3.44130	37.62
3.45797	37.62
3.47463	37.62
3.49130	37.62
3.50797	37.62
3.52463	37.62
3.54130	37.62
3.55797	37.62
3.57463	37.62
3.59130	37.62
3.60797	37.62
3.62463	37.62
3.64130	37.62
3.65797	37.62
3.67463	37.62
3.69130	37.62
3.70797	37.62
3.72463	37.62
3.74130	37.62
3.75797	37.62
3.77463	37.62
3.79130	37.62
3.80797	37.62
3.82463	37.62
3.84130	37.62
3.85797	37.62
3.87463	37.62
3.89130	37.62
3.90797	37.62
3.92463	37.62
3.94130	37.62
3.95797	37.62
3.97463	37.62
3.99130	37.62

