[Header]
Application Name	LabSolutions
Version	5.110
Data File Name	C:\Users\User\Desktop\Junior\UIC Prairie Sampling\7.18.23\071823_029.gcd
Output Date	8/29/2023
Output Time	10:40:21 AM

[File Information]
Type	Data File
Generated	8/28/2023 5:25:50 PM
Generated by	System Administrator
Modified	8/28/2023 5:32:28 PM
Modified by	System Administrator

[Sample Information]
Operator Name	System Administrator
Acquired	8/28/2023 5:28:26 PM
Sample Type	0:Unknown
Level	0
Sample Name	029
Sample ID	029
ISTD Amount1	1
ISTD Amount2	1
ISTD Amount3	1
ISTD Amount4	1
ISTD Amount5	1
ISTD Amount6	1
ISTD Amount7	1
ISTD Amount8	1
ISTD Amount9	1
ISTD Amount10	1
ISTD Amount11	1
ISTD Amount12	1
ISTD Amount13	1
ISTD Amount14	1
ISTD Amount15	1
ISTD Amount16	1
ISTD Amount17	1
ISTD Amount18	1
ISTD Amount19	1
ISTD Amount20	1
ISTD Amount21	1
ISTD Amount22	1
ISTD Amount23	1
ISTD Amount24	1
ISTD Amount25	1
ISTD Amount26	1
ISTD Amount27	1
ISTD Amount28	1
ISTD Amount29	1
ISTD Amount30	1
ISTD Amount31	1
ISTD Amount32	1
Sample Amount	1
Dilution Factor	1
Vial#	28
Injection Volume	1
Injection Count	1
Bar Code	

[Original Files]
Data File	C:\Users\User\Desktop\Junior\UIC Prairie Sampling\7.18.23\071823_029.gcd
Method File	C:\LabSolutions\Data\GHG_4min_2022\ghg3_togas_w_acet_4 min_new_int.gcm
Batch File	C:\LabSolutions\Data\BATCH FILES\071823.gcb
Report Format File	c:\LabSolutions\System\DEFAULT.lsr

[File Description]


[Configuration]
Instrument Name	C0B7VH3-Instrument1
Instrument #	1
Line #	1
# of Detectors	3
Detector ID	DET#1	DET#2	DET#3
Detector Name	FID	PTCD	ECD
# of Channels	1	1	1

[Peak Table(Ch1)]
# of Peaks	3
Peak#	R.Time	I.Time	F.Time	Area	Height	A/H	Conc.	Mark	ID#	Name	k'	Plate #	Plate Ht.	Tailing	Resolution	Sep.Factor	Area Ratio	Height Ratio	Conc. %	Norm Conc.
1	1.472	1.432	1.531	9454	4721	2.003	0.000	   	1	CO	0.000	9965	15.053	1.304	0.000	0.000	0	0	0.000	0.000
2	1.564	1.531	1.615	4258	2179	1.954	20.760	 V 	2	CH4	0.062	11490	13.055	1.153	1.563	0.000	0	0	5.893	5.893
3	1.989	1.941	2.499	1720187	826118	2.082	331.512	   	3	CO2	0.351	17710	8.470	1.337	7.201	5.640	0	0	94.107	94.107

[Peak Table(Ch2)]
# of Peaks	0

[Peak Table(Ch3)]
# of Peaks	5
Peak#	R.Time	I.Time	F.Time	Area	Height	A/H	Conc.	Mark	ID#	Name	k'	Plate #	Plate Ht.	Tailing	Resolution	Sep.Factor	Area Ratio	Height Ratio	Conc. %	Norm Conc.
1	2.458	2.312	2.499	901	260	3.470	0.000	   			0.000	10186	14.727	0.000	0.000	0.000	0	0	0.000	0.000
2	2.513	2.499	2.557	392	147	2.671	0.000	 V 			0.022	4092	36.660	0.000	0.432	0.000	0	0	0.000	0.000
3	2.612	2.557	2.693	814	142	5.720	0.000	 V 			0.063	4243	35.352	0.000	0.623	2.800	0	0	0.000	0.000
4	2.891	2.693	3.060	17147	3857	4.446	0.254	 V 	1	N2O	0.176	12712	11.800	2.015	2.119	2.810	0	0	100.000	100.000
5	3.137	3.063	3.995	26773	1064	25.154	0.000	   	2	SF6	0.276	142	1058.561	6.271	0.425	1.568	0	0	0.000	0.000

[Compound Results(Ch1)]
# of IDs	6
ID#	Name	R.Time	Area	Height	Conc.	Curve	3rd	2nd	1st	Constant	Area Ratio	Height Ratio	Conc. %	Norm Conc.
1	CO	1.472	9454	4721	0.000	Linear	0.000000e+00	0.000000e+00	0.000000e+00	0.000000e+00	0	0	0.000	0.000
2	CH4	1.564	4258	2179	20.760	Linear	0.000000e+00	0.000000e+00	2.051179e+002	0.000000e+00	0	0	5.893	5.893
3	CO2	1.989	1720187	826118	331.512	Linear	0.000000e+00	0.000000e+00	5.188919e+003	0.000000e+00	0	0	94.107	94.107
4	Ethylene	0.000	0	0	0.000	Linear	0.000000e+00	0.000000e+00	0.000000e+00	0.000000e+00	0	0	0.000	0.000
5	Acetylene	0.000	0	0	0.000	Linear	0.000000e+00	0.000000e+00	0.000000e+00	0.000000e+00	0	0	0.000	0.000
6	Ethane	0.000	0	0	0.000	Linear	0.000000e+00	0.000000e+00	0.000000e+00	0.000000e+00	0	0	0.000	0.000

[Compound Results(Ch2)]
# of IDs	5
ID#	Name	R.Time	Area	Height	Conc.	Curve	3rd	2nd	1st	Constant	Area Ratio	Height Ratio	Conc. %	Norm Conc.
1	Hydrogen	0.000	0	0	0.000	Linear	0.000000e+00	0.000000e+00	0.000000e+00	0.000000e+00	0	0	0.000	0.000
2	Oxygen	0.000	0	0	0.000	Linear	0.000000e+00	0.000000e+00	0.000000e+00	0.000000e+00	0	0	0.000	0.000
3	Nitrogen	0.000	0	0	0.000	Linear	0.000000e+00	0.000000e+00	0.000000e+00	0.000000e+00	0	0	0.000	0.000
4	Methane	0.000	0	0	0.000	Linear	0.000000e+00	0.000000e+00	0.000000e+00	0.000000e+00	0	0	0.000	0.000
5	Carbon Monoxide	0.000	0	0	0.000	Linear	0.000000e+00	0.000000e+00	0.000000e+00	0.000000e+00	0	0	0.000	0.000

[Compound Results(Ch3)]
# of IDs	2
ID#	Name	R.Time	Area	Height	Conc.	Curve	3rd	2nd	1st	Constant	Area Ratio	Height Ratio	Conc. %	Norm Conc.
1	N2O	2.891	17147	3857	0.254	Linear	0.000000e+00	0.000000e+00	6.759880e+004	0.000000e+00	0	0	100.000	100.000
2	SF6	3.137	26773	1064	0.000	Linear	0.000000e+00	0.000000e+00	0.000000e+00	0.000000e+00	0	0	0.000	0.000

[Group Results(Ch1)]
# of Groups	0

[Group Results(Ch2)]
# of Groups	0

[Group Results(Ch3)]
# of Groups	0

[Chromatogram (Ch1)]
Interval(msec)	220
# of Points	1091
Start Time(min)	0.002
End Time(min)	3.998
R.Time (min)	Intensity
0.00167	-1
0.00533	4
0.00900	5
0.01267	2
0.01633	1
0.02000	-1
0.02367	-6
0.02733	-11
0.03100	-12
0.03467	-10
0.03833	-7
0.04200	-0
0.04567	9
0.04933	18
0.05300	26
0.05667	31
0.06033	33
0.06400	34
0.06767	34
0.07133	30
0.07500	23
0.07867	18
0.08233	16
0.08600	15
0.08967	14
0.09333	13
0.09700	12
0.10067	9
0.10433	6
0.10800	4
0.11167	3
0.11533	1
0.11900	-2
0.12267	-5
0.12633	-6
0.13000	-4
0.13367	-2
0.13733	-3
0.14100	-5
0.14467	-8
0.14833	-10
0.15200	-12
0.15567	-12
0.15933	-6
0.16300	2
0.16667	8
0.17033	10
0.17400	9
0.17767	7
0.18133	4
0.18500	3
0.18867	3
0.19233	4
0.19600	5
0.19967	7
0.20333	8
0.20700	12
0.21067	17
0.21433	24
0.21800	29
0.22167	31
0.22533	32
0.22900	33
0.23267	34
0.23633	34
0.24000	34
0.24367	37
0.24733	40
0.25100	42
0.25467	40
0.25833	36
0.26200	34
0.26567	33
0.26933	32
0.27300	31
0.27667	30
0.28033	30
0.28400	29
0.28767	32
0.29133	37
0.29500	45
0.29867	52
0.30233	58
0.30600	61
0.30967	62
0.31333	60
0.31700	53
0.32067	46
0.32433	45
0.32800	52
0.33167	58
0.33533	62
0.33900	63
0.34267	62
0.34633	58
0.35000	51
0.35367	47
0.35733	44
0.36100	40
0.36467	38
0.36833	39
0.37200	41
0.37567	46
0.37933	51
0.38300	52
0.38667	51
0.39033	48
0.39400	45
0.39767	41
0.40133	35
0.40500	31
0.40867	36
0.41233	45
0.41600	54
0.41967	61
0.42333	63
0.42700	59
0.43067	54
0.43433	47
0.43800	40
0.44167	34
0.44533	29
0.44900	28
0.45267	29
0.45633	29
0.46000	25
0.46367	20
0.46733	19
0.47100	24
0.47467	32
0.47833	36
0.48200	34
0.48567	31
0.48933	27
0.49300	25
0.49667	23
0.50033	23
0.50400	23
0.50767	22
0.51133	21
0.51500	22
0.51867	25
0.52233	27
0.52600	25
0.52967	23
0.53333	20
0.53700	19
0.54067	20
0.54433	23
0.54800	27
0.55167	32
0.55533	36
0.55900	38
0.56267	38
0.56633	34
0.57000	31
0.57367	30
0.57733	32
0.58100	34
0.58467	31
0.58833	27
0.59200	23
0.59567	22
0.59933	22
0.60300	22
0.60667	24
0.61033	25
0.61400	23
0.61767	18
0.62133	14
0.62500	15
0.62867	19
0.63233	25
0.63600	33
0.63967	41
0.64333	45
0.64700	44
0.65067	40
0.65433	36
0.65800	32
0.66167	29
0.66533	26
0.66900	25
0.67267	23
0.67633	19
0.68000	17
0.68367	17
0.68733	19
0.69100	19
0.69467	15
0.69833	9
0.70200	7
0.70567	10
0.70933	18
0.71300	29
0.71667	36
0.72033	39
0.72400	37
0.72767	34
0.73133	32
0.73500	29
0.73867	28
0.74233	28
0.74600	28
0.74967	26
0.75333	20
0.75700	17
0.76067	16
0.76433	17
0.76800	19
0.77167	23
0.77533	27
0.77900	31
0.78267	31
0.78633	30
0.79000	30
0.79367	32
0.79733	34
0.80100	35
0.80467	36
0.80833	37
0.81200	35
0.81567	32
0.81933	27
0.82300	24
0.82667	24
0.83033	25
0.83400	27
0.83767	28
0.84133	27
0.84500	27
0.84867	31
0.85233	36
0.85600	41
0.85967	46
0.86333	52
0.86700	59
0.87067	68
0.87433	72
0.87800	73
0.88167	71
0.88533	63
0.88900	54
0.89267	46
0.89633	42
0.90000	38
0.90367	33
0.90733	29
0.91100	26
0.91467	24
0.91833	23
0.92200	22
0.92567	24
0.92933	28
0.93300	34
0.93667	42
0.94033	48
0.94400	50
0.94767	47
0.95133	42
0.95500	38
0.95867	37
0.96233	36
0.96600	33
0.96967	28
0.97333	23
0.97700	20
0.98067	20
0.98433	23
0.98800	27
0.99167	31
0.99533	33
0.99900	34
1.00267	34
1.00633	30
1.01000	25
1.01367	22
1.01733	19
1.02100	19
1.02467	20
1.02833	24
1.03200	30
1.03567	33
1.03933	32
1.04300	29
1.04667	27
1.05033	27
1.05400	27
1.05767	28
1.06133	32
1.06500	35
1.06867	35
1.07233	33
1.07600	29
1.07967	22
1.08333	15
1.08700	12
1.09067	10
1.09433	11
1.09800	12
1.10167	12
1.10533	14
1.10900	19
1.11267	23
1.11633	28
1.12000	35
1.12367	37
1.12733	37
1.13100	34
1.13467	30
1.13833	28
1.14200	28
1.14567	31
1.14933	33
1.15300	34
1.15667	36
1.16033	36
1.16400	38
1.16767	38
1.17133	35
1.17500	34
1.17867	30
1.18233	26
1.18600	21
1.18967	17
1.19333	17
1.19700	17
1.20067	15
1.20433	13
1.20800	14
1.21167	16
1.21533	20
1.21900	25
1.22267	26
1.22633	27
1.23000	30
1.23367	32
1.23733	34
1.24100	33
1.24467	28
1.24833	23
1.25200	17
1.25567	14
1.25933	14
1.26300	14
1.26667	12
1.27033	9
1.27400	8
1.27767	9
1.28133	10
1.28500	10
1.28867	9
1.29233	9
1.29600	11
1.29967	16
1.30333	21
1.30700	26
1.31067	32
1.31433	37
1.31800	40
1.32167	39
1.32533	35
1.32900	29
1.33267	23
1.33633	19
1.34000	15
1.34367	13
1.34733	12
1.35100	14
1.35467	18
1.35833	24
1.36200	29
1.36567	32
1.36933	31
1.37300	29
1.37667	23
1.38033	16
1.38400	10
1.38767	4
1.39133	-0
1.39500	-4
1.39867	-5
1.40233	-2
1.40600	3
1.40967	7
1.41333	8
1.41700	7
1.42067	5
1.42433	5
1.42800	6
1.43167	12
1.43533	21
1.43900	39
1.44267	74
1.44633	232
1.45000	710
1.45367	1527
1.45733	2485
1.46100	3378
1.46467	4090
1.46833	4561
1.47200	4734
1.47567	4562
1.47933	4074
1.48300	3383
1.48667	2641
1.49033	1968
1.49400	1421
1.49767	1007
1.50133	709
1.50500	501
1.50867	359
1.51233	263
1.51600	197
1.51967	149
1.52333	113
1.52700	86
1.53067	69
1.53433	81
1.53800	175
1.54167	411
1.54533	786
1.54900	1220
1.55267	1620
1.55633	1934
1.56000	2135
1.56367	2195
1.56733	2088
1.57100	1833
1.57467	1494
1.57833	1145
1.58200	837
1.58567	593
1.58933	411
1.59300	277
1.59667	182
1.60033	116
1.60400	73
1.60767	45
1.61133	27
1.61500	17
1.61867	14
1.62233	14
1.62600	19
1.62967	21
1.63333	21
1.63700	16
1.64067	10
1.64433	5
1.64800	2
1.65167	-1
1.65533	-1
1.65900	4
1.66267	14
1.66633	22
1.67000	26
1.67367	28
1.67733	26
1.68100	21
1.68467	17
1.68833	13
1.69200	10
1.69567	9
1.69933	9
1.70300	9
1.70667	7
1.71033	3
1.71400	-4
1.71767	-10
1.72133	-15
1.72500	-16
1.72867	-15
1.73233	-14
1.73600	-8
1.73967	-0
1.74333	4
1.74700	5
1.75067	7
1.75433	10
1.75800	16
1.76167	19
1.76533	18
1.76900	14
1.77267	9
1.77633	5
1.78000	1
1.78367	-2
1.78733	-3
1.79100	-2
1.79467	-0
1.79833	3
1.80200	5
1.80567	7
1.80933	10
1.81300	13
1.81667	12
1.82033	8
1.82400	3
1.82767	2
1.83133	4
1.83500	8
1.83867	12
1.84233	16
1.84600	19
1.84967	18
1.85333	15
1.85700	12
1.86067	9
1.86433	6
1.86800	2
1.87167	0
1.87533	-0
1.87900	3
1.88267	10
1.88633	17
1.89000	24
1.89367	27
1.89733	27
1.90100	25
1.90467	23
1.90833	21
1.91200	19
1.91567	16
1.91933	15
1.92300	15
1.92667	17
1.93033	20
1.93400	18
1.93767	18
1.94133	21
1.94500	32
1.94867	107
1.95233	595
1.95600	3083
1.95967	12554
1.96333	39876
1.96700	100579
1.97067	205691
1.97433	350003
1.97800	511126
1.98167	659643
1.98533	770233
1.98900	826168
1.99267	820980
1.99633	759228
2.00000	655972
2.00367	532646
2.00733	410067
2.01100	302566
2.01467	216443
2.01833	151817
2.02200	105510
2.02567	73349
2.02933	51448
2.03300	36695
2.03667	26796
2.04033	20129
2.04400	15596
2.04767	12466
2.05133	10263
2.05500	8676
2.05867	7503
2.06233	6610
2.06600	5911
2.06967	5347
2.07333	4885
2.07700	4500
2.08067	4170
2.08433	3886
2.08800	3639
2.09167	3423
2.09533	3232
2.09900	3060
2.10267	2902
2.10633	2759
2.11000	2629
2.11367	2513
2.11733	2410
2.12100	2314
2.12467	2223
2.12833	2139
2.13200	2062
2.13567	1987
2.13933	1916
2.14300	1851
2.14667	1789
2.15033	1728
2.15400	1669
2.15767	1614
2.16133	1563
2.16500	1516
2.16867	1471
2.17233	1432
2.17600	1396
2.17967	1362
2.18333	1328
2.18700	1292
2.19067	1256
2.19433	1222
2.19800	1190
2.20167	1162
2.20533	1138
2.20900	1114
2.21267	1089
2.21633	1064
2.22000	1040
2.22367	1015
2.22733	989
2.23100	965
2.23467	944
2.23833	925
2.24200	908
2.24567	892
2.24933	878
2.25300	864
2.25667	849
2.26033	834
2.26400	817
2.26767	800
2.27133	785
2.27500	766
2.27867	750
2.28233	738
2.28600	731
2.28967	724
2.29333	716
2.29700	707
2.30067	697
2.30433	688
2.30800	677
2.31167	664
2.31533	651
2.31900	639
2.32267	630
2.32633	621
2.33000	614
2.33367	606
2.33733	599
2.34100	595
2.34467	594
2.34833	591
2.35200	585
2.35567	573
2.35933	560
2.36300	545
2.36667	532
2.37033	523
2.37400	515
2.37767	511
2.38133	512
2.38500	514
2.38867	512
2.39233	509
2.39600	504
2.39967	498
2.40333	492
2.40700	489
2.41067	486
2.41433	483
2.41800	480
2.42167	474
2.42533	467
2.42900	458
2.43267	446
2.43633	437
2.44000	431
2.44367	424
2.44733	418
2.45100	414
2.45467	411
2.45833	411
2.46200	412
2.46567	414
2.46933	414
2.47300	410
2.47667	402
2.48033	395
2.48400	387
2.48767	378
2.49133	369
2.49500	362
2.49867	358
2.50233	356
2.50600	359
2.50967	364
2.51333	368
2.51700	371
2.52067	373
2.52433	371
2.52800	368
2.53167	365
2.53533	364
2.53900	361
2.54267	356
2.54633	349
2.55000	343
2.55367	337
2.55733	331
2.56100	322
2.56467	312
2.56833	304
2.57200	296
2.57567	290
2.57933	285
2.58300	283
2.58667	284
2.59033	283
2.59400	284
2.59767	284
2.60133	285
2.60500	286
2.60867	287
2.61233	286
2.61600	282
2.61967	278
2.62333	276
2.62700	274
2.63067	270
2.63433	267
2.63800	263
2.64167	257
2.64533	252
2.64900	250
2.65267	250
2.65633	250
2.66000	253
2.66367	257
2.66733	260
2.67100	260
2.67467	256
2.67833	254
2.68200	250
2.68567	245
2.68933	239
2.69300	233
2.69667	231
2.70033	231
2.70400	232
2.70767	235
2.71133	239
2.71500	240
2.71867	236
2.72233	231
2.72600	228
2.72967	228
2.73333	229
2.73700	232
2.74067	232
2.74433	231
2.74800	226
2.75167	221
2.75533	216
2.75900	211
2.76267	209
2.76633	208
2.77000	206
2.77367	207
2.77733	210
2.78100	212
2.78467	210
2.78833	208
2.79200	207
2.79567	206
2.79933	201
2.80300	193
2.80667	184
2.81033	180
2.81400	178
2.81767	176
2.82133	176
2.82500	178
2.82867	178
2.83233	172
2.83600	164
2.83967	156
2.84333	150
2.84700	148
2.85067	149
2.85433	153
2.85800	157
2.86167	160
2.86533	163
2.86900	164
2.87267	165
2.87633	164
2.88000	164
2.88367	165
2.88733	165
2.89100	162
2.89467	158
2.89833	155
2.90200	151
2.90567	149
2.90933	150
2.91300	151
2.91667	153
2.92033	154
2.92400	153
2.92767	151
2.93133	150
2.93500	150
2.93867	151
2.94233	153
2.94600	156
2.94967	160
2.95333	161
2.95700	161
2.96067	159
2.96433	155
2.96800	149
2.97167	145
2.97533	145
2.97900	146
2.98267	147
2.98633	143
2.99000	139
2.99367	136
2.99733	138
3.00100	142
3.00467	146
3.00833	150
3.01200	153
3.01567	152
3.01933	146
3.02300	139
3.02667	133
3.03033	130
3.03400	127
3.03767	124
3.04133	119
3.04500	116
3.04867	114
3.05233	112
3.05600	111
3.05967	109
3.06333	108
3.06700	108
3.07067	109
3.07433	109
3.07800	109
3.08167	109
3.08533	108
3.08900	106
3.09267	105
3.09633	104
3.10000	103
3.10367	100
3.10733	97
3.11100	94
3.11467	92
3.11833	94
3.12200	95
3.12567	96
3.12933	97
3.13300	96
3.13667	95
3.14033	95
3.14400	93
3.14767	88
3.15133	80
3.15500	71
3.15867	65
3.16233	63
3.16600	63
3.16967	67
3.17333	71
3.17700	74
3.18067	73
3.18433	71
3.18800	73
3.19167	76
3.19533	80
3.19900	84
3.20267	87
3.20633	88
3.21000	87
3.21367	85
3.21733	81
3.22100	79
3.22467	76
3.22833	72
3.23200	69
3.23567	69
3.23933	70
3.24300	68
3.24667	67
3.25033	64
3.25400	62
3.25767	63
3.26133	66
3.26500	68
3.26867	68
3.27233	65
3.27600	64
3.27967	66
3.28333	68
3.28700	68
3.29067	66
3.29433	64
3.29800	61
3.30167	59
3.30533	59
3.30900	63
3.31267	72
3.31633	81
3.32000	88
3.32367	91
3.32733	88
3.33100	85
3.33467	82
3.33833	80
3.34200	76
3.34567	71
3.34933	67
3.35300	64
3.35667	60
3.36033	58
3.36400	58
3.36767	61
3.37133	64
3.37500	68
3.37867	71
3.38233	73
3.38600	72
3.38967	67
3.39333	61
3.39700	57
3.40067	56
3.40433	57
3.40800	57
3.41167	56
3.41533	55
3.41900	58
3.42267	62
3.42633	65
3.43000	62
3.43367	58
3.43733	53
3.44100	50
3.44467	49
3.44833	49
3.45200	52
3.45567	54
3.45933	57
3.46300	63
3.46667	71
3.47033	76
3.47400	80
3.47767	83
3.48133	86
3.48500	85
3.48867	79
3.49233	70
3.49600	61
3.49967	52
3.50333	45
3.50700	40
3.51067	39
3.51433	41
3.51800	45
3.52167	47
3.52533	50
3.52900	53
3.53267	54
3.53633	49
3.54000	42
3.54367	38
3.54733	37
3.55100	38
3.55467	41
3.55833	45
3.56200	48
3.56567	49
3.56933	46
3.57300	41
3.57667	36
3.58033	33
3.58400	33
3.58767	35
3.59133	38
3.59500	39
3.59867	38
3.60233	40
3.60600	43
3.60967	42
3.61333	39
3.61700	36
3.62067	34
3.62433	35
3.62800	38
3.63167	40
3.63533	42
3.63900	44
3.64267	46
3.64633	49
3.65000	46
3.65367	36
3.65733	28
3.66100	27
3.66467	32
3.66833	40
3.67200	50
3.67567	58
3.67933	60
3.68300	57
3.68667	51
3.69033	47
3.69400	42
3.69767	39
3.70133	38
3.70500	34
3.70867	30
3.71233	28
3.71600	25
3.71967	23
3.72333	23
3.72700	22
3.73067	20
3.73433	18
3.73800	17
3.74167	15
3.74533	11
3.74900	10
3.75267	13
3.75633	17
3.76000	19
3.76367	21
3.76733	23
3.77100	26
3.77467	26
3.77833	26
3.78200	26
3.78567	24
3.78933	23
3.79300	22
3.79667	23
3.80033	25
3.80400	26
3.80767	27
3.81133	25
3.81500	23
3.81867	22
3.82233	20
3.82600	19
3.82967	19
3.83333	20
3.83700	22
3.84067	21
3.84433	16
3.84800	13
3.85167	12
3.85533	13
3.85900	15
3.86267	18
3.86633	20
3.87000	20
3.87367	20
3.87733	21
3.88100	21
3.88467	22
3.88833	24
3.89200	25
3.89567	26
3.89933	29
3.90300	29
3.90667	25
3.91033	20
3.91400	15
3.91767	13
3.92133	14
3.92500	17
3.92867	17
3.93233	17
3.93600	16
3.93967	16
3.94333	19
3.94700	21
3.95067	20
3.95433	17
3.95800	13
3.96167	8
3.96533	3
3.96900	-0
3.97267	-1
3.97633	-1
3.98000	1
3.98367	2
3.98733	1
3.99100	1
3.99467	4
3.99833	7

[Chromatogram (Ch2)]
Interval(msec)	220
# of Points	1091
Start Time(min)	0.002
End Time(min)	3.998
R.Time (min)	Intensity
0.00167	0
0.00533	-0
0.00900	0
0.01267	0
0.01633	0
0.02000	0
0.02367	0
0.02733	0
0.03100	-0
0.03467	-0
0.03833	-0
0.04200	-0
0.04567	-0
0.04933	0
0.05300	0
0.05667	0
0.06033	0
0.06400	0
0.06767	0
0.07133	0
0.07500	0
0.07867	0
0.08233	-0
0.08600	-0
0.08967	0
0.09333	0
0.09700	0
0.10067	0
0.10433	0
0.10800	0
0.11167	1
0.11533	1
0.11900	1
0.12267	1
0.12633	1
0.13000	1
0.13367	2
0.13733	2
0.14100	2
0.14467	2
0.14833	2
0.15200	2
0.15567	1
0.15933	1
0.16300	1
0.16667	2
0.17033	2
0.17400	2
0.17767	2
0.18133	2
0.18500	2
0.18867	1
0.19233	1
0.19600	1
0.19967	1
0.20333	1
0.20700	1
0.21067	1
0.21433	1
0.21800	1
0.22167	0
0.22533	0
0.22900	-0
0.23267	-0
0.23633	-0
0.24000	-0
0.24367	-0
0.24733	-0
0.25100	-0
0.25467	-0
0.25833	0
0.26200	0
0.26567	0
0.26933	0
0.27300	-0
0.27667	-0
0.28033	-0
0.28400	-0
0.28767	-0
0.29133	-0
0.29500	-0
0.29867	0
0.30233	0
0.30600	0
0.30967	0
0.31333	1
0.31700	1
0.32067	1
0.32433	1
0.32800	1
0.33167	1
0.33533	1
0.33900	1
0.34267	1
0.34633	1
0.35000	1
0.35367	1
0.35733	1
0.36100	1
0.36467	1
0.36833	1
0.37200	1
0.37567	1
0.37933	1
0.38300	1
0.38667	1
0.39033	1
0.39400	1
0.39767	0
0.40133	0
0.40500	0
0.40867	1
0.41233	1
0.41600	1
0.41967	1
0.42333	1
0.42700	0
0.43067	0
0.43433	0
0.43800	0
0.44167	0
0.44533	0
0.44900	0
0.45267	-0
0.45633	-0
0.46000	-0
0.46367	-1
0.46733	-1
0.47100	-1
0.47467	-0
0.47833	-0
0.48200	-0
0.48567	0
0.48933	0
0.49300	0
0.49667	1
0.50033	1
0.50400	0
0.50767	0
0.51133	0
0.51500	-0
0.51867	-0
0.52233	0
0.52600	0
0.52967	0
0.53333	0
0.53700	-0
0.54067	-0
0.54433	0
0.54800	0
0.55167	0
0.55533	0
0.55900	0
0.56267	0
0.56633	-0
0.57000	-0
0.57367	-0
0.57733	-0
0.58100	-1
0.58467	-1
0.58833	-1
0.59200	-1
0.59567	-1
0.59933	-1
0.60300	-1
0.60667	-1
0.61033	-1
0.61400	-0
0.61767	-0
0.62133	-0
0.62500	0
0.62867	0
0.63233	0
0.63600	0
0.63967	1
0.64333	0
0.64700	0
0.65067	0
0.65433	0
0.65800	0
0.66167	-0
0.66533	-0
0.66900	-0
0.67267	-0
0.67633	-0
0.68000	-0
0.68367	-0
0.68733	-0
0.69100	-0
0.69467	-0
0.69833	-0
0.70200	-0
0.70567	-0
0.70933	-0
0.71300	-0
0.71667	-0
0.72033	-0
0.72400	-0
0.72767	-0
0.73133	-0
0.73500	-0
0.73867	-1
0.74233	-1
0.74600	-1
0.74967	-1
0.75333	-1
0.75700	-1
0.76067	-1
0.76433	-1
0.76800	-1
0.77167	-1
0.77533	-1
0.77900	-1
0.78267	-1
0.78633	-0
0.79000	-0
0.79367	-0
0.79733	-0
0.80100	-1
0.80467	-1
0.80833	-1
0.81200	-2
0.81567	-2
0.81933	-2
0.82300	-2
0.82667	-1
0.83033	-1
0.83400	-1
0.83767	-1
0.84133	-1
0.84500	-1
0.84867	-1
0.85233	-1
0.85600	-1
0.85967	-2
0.86333	-2
0.86700	-2
0.87067	-2
0.87433	-2
0.87800	-2
0.88167	-2
0.88533	-2
0.88900	-2
0.89267	-2
0.89633	-2
0.90000	-2
0.90367	-2
0.90733	-2
0.91100	-2
0.91467	-2
0.91833	-2
0.92200	-2
0.92567	-2
0.92933	-1
0.93300	-1
0.93667	-1
0.94033	-1
0.94400	-1
0.94767	-1
0.95133	-1
0.95500	-1
0.95867	-1
0.96233	-1
0.96600	-1
0.96967	-1
0.97333	-1
0.97700	-1
0.98067	-2
0.98433	-2
0.98800	-1
0.99167	-1
0.99533	-2
0.99900	-2
1.00267	-2
1.00633	-2
1.01000	-2
1.01367	-1
1.01733	-1
1.02100	-1
1.02467	-1
1.02833	-1
1.03200	-1
1.03567	-2
1.03933	-2
1.04300	-2
1.04667	-2
1.05033	-2
1.05400	-2
1.05767	-2
1.06133	-2
1.06500	-2
1.06867	-2
1.07233	-2
1.07600	-2
1.07967	-2
1.08333	-2
1.08700	-1
1.09067	-1
1.09433	-1
1.09800	-1
1.10167	-1
1.10533	-1
1.10900	-1
1.11267	-1
1.11633	-1
1.12000	-1
1.12367	-1
1.12733	-1
1.13100	-1
1.13467	-1
1.13833	-1
1.14200	-2
1.14567	-2
1.14933	-2
1.15300	-2
1.15667	-2
1.16033	-2
1.16400	-2
1.16767	-2
1.17133	-2
1.17500	-2
1.17867	-2
1.18233	-2
1.18600	-3
1.18967	-3
1.19333	-3
1.19700	-3
1.20067	-3
1.20433	-3
1.20800	-3
1.21167	-2
1.21533	-2
1.21900	-2
1.22267	-2
1.22633	-2
1.23000	-1
1.23367	-1
1.23733	-1
1.24100	-1
1.24467	-1
1.24833	-2
1.25200	-2
1.25567	-2
1.25933	-2
1.26300	-2
1.26667	-2
1.27033	-2
1.27400	-2
1.27767	-2
1.28133	-2
1.28500	-1
1.28867	-1
1.29233	-1
1.29600	-1
1.29967	-1
1.30333	-1
1.30700	-1
1.31067	-1
1.31433	-1
1.31800	-1
1.32167	-2
1.32533	-2
1.32900	-2
1.33267	-2
1.33633	-2
1.34000	-3
1.34367	-3
1.34733	-3
1.35100	-3
1.35467	-3
1.35833	-3
1.36200	-3
1.36567	-2
1.36933	-2
1.37300	-2
1.37667	-3
1.38033	-3
1.38400	-3
1.38767	-3
1.39133	-3
1.39500	-3
1.39867	-3
1.40233	-3
1.40600	-3
1.40967	-3
1.41333	-3
1.41700	-2
1.42067	-2
1.42433	-2
1.42800	-2
1.43167	-2
1.43533	-2
1.43900	-1
1.44267	-1
1.44633	-1
1.45000	-1
1.45367	-2
1.45733	-2
1.46100	-2
1.46467	-2
1.46833	-2
1.47200	-2
1.47567	-2
1.47933	-2
1.48300	-2
1.48667	-2
1.49033	-2
1.49400	-2
1.49767	-2
1.50133	-2
1.50500	-2
1.50867	-3
1.51233	-2
1.51600	-3
1.51967	-3
1.52333	-3
1.52700	-3
1.53067	-3
1.53433	-3
1.53800	-3
1.54167	-3
1.54533	-3
1.54900	-3
1.55267	-3
1.55633	-3
1.56000	-3
1.56367	-3
1.56733	-3
1.57100	-3
1.57467	-3
1.57833	-3
1.58200	-3
1.58567	-3
1.58933	-3
1.59300	-3
1.59667	-4
1.60033	-5
1.60400	-5
1.60767	-7
1.61133	-8
1.61500	-10
1.61867	-12
1.62233	-14
1.62600	-17
1.62967	-20
1.63333	-23
1.63700	-26
1.64067	-29
1.64433	-32
1.64800	-35
1.65167	-39
1.65533	-42
1.65900	-46
1.66267	-49
1.66633	-53
1.67000	-57
1.67367	-62
1.67733	-67
1.68100	-71
1.68467	-76
1.68833	-79
1.69200	-82
1.69567	-85
1.69933	-87
1.70300	-88
1.70667	-90
1.71033	-91
1.71400	-92
1.71767	-93
1.72133	-94
1.72500	-95
1.72867	-95
1.73233	-96
1.73600	-96
1.73967	-97
1.74333	-97
1.74700	-97
1.75067	-97
1.75433	-97
1.75800	-97
1.76167	-97
1.76533	-98
1.76900	-98
1.77267	-99
1.77633	-99
1.78000	-99
1.78367	-100
1.78733	-101
1.79100	-101
1.79467	-102
1.79833	-102
1.80200	-102
1.80567	-102
1.80933	-101
1.81300	-101
1.81667	-100
1.82033	-100
1.82400	-99
1.82767	-98
1.83133	-98
1.83500	-97
1.83867	-97
1.84233	-97
1.84600	-97
1.84967	-98
1.85333	-98
1.85700	-98
1.86067	-98
1.86433	-98
1.86800	-98
1.87167	-98
1.87533	-98
1.87900	-98
1.88267	-99
1.88633	-99
1.89000	-99
1.89367	-98
1.89733	-98
1.90100	-97
1.90467	-97
1.90833	-96
1.91200	-96
1.91567	-96
1.91933	-97
1.92300	-97
1.92667	-97
1.93033	-96
1.93400	-96
1.93767	-95
1.94133	-94
1.94500	-93
1.94867	-93
1.95233	-93
1.95600	-93
1.95967	-93
1.96333	-94
1.96700	-95
1.97067	-95
1.97433	-95
1.97800	-95
1.98167	-95
1.98533	-95
1.98900	-94
1.99267	-94
1.99633	-94
2.00000	-93
2.00367	-93
2.00733	-94
2.01100	-93
2.01467	-93
2.01833	-93
2.02200	-92
2.02567	-92
2.02933	-92
2.03300	-91
2.03667	-91
2.04033	-90
2.04400	-90
2.04767	-89
2.05133	-89
2.05500	-88
2.05867	-88
2.06233	-87
2.06600	-87
2.06967	-86
2.07333	-86
2.07700	-85
2.08067	-85
2.08433	-85
2.08800	-84
2.09167	-84
2.09533	-83
2.09900	-83
2.10267	-83
2.10633	-84
2.11000	-84
2.11367	-84
2.11733	-84
2.12100	-85
2.12467	-85
2.12833	-85
2.13200	-85
2.13567	-84
2.13933	-84
2.14300	-83
2.14667	-83
2.15033	-82
2.15400	-81
2.15767	-80
2.16133	-80
2.16500	-79
2.16867	-78
2.17233	-77
2.17600	-76
2.17967	-76
2.18333	-76
2.18700	-76
2.19067	-76
2.19433	-77
2.19800	-77
2.20167	-78
2.20533	-77
2.20900	-77
2.21267	-76
2.21633	-76
2.22000	-76
2.22367	-76
2.22733	-76
2.23100	-76
2.23467	-77
2.23833	-78
2.24200	-78
2.24567	-79
2.24933	-78
2.25300	-78
2.25667	-77
2.26033	-76
2.26400	-75
2.26767	-74
2.27133	-74
2.27500	-73
2.27867	-73
2.28233	-73
2.28600	-72
2.28967	-72
2.29333	-72
2.29700	-72
2.30067	-72
2.30433	-71
2.30800	-70
2.31167	-69
2.31533	-69
2.31900	-68
2.32267	-67
2.32633	-66
2.33000	-66
2.33367	-65
2.33733	-65
2.34100	-65
2.34467	-64
2.34833	-63
2.35200	-63
2.35567	-62
2.35933	-61
2.36300	-61
2.36667	-60
2.37033	-58
2.37400	-57
2.37767	-54
2.38133	-52
2.38500	-48
2.38867	-45
2.39233	-41
2.39600	-37
2.39967	-33
2.40333	-28
2.40700	-24
2.41067	-21
2.41433	-17
2.41800	-14
2.42167	-11
2.42533	-8
2.42900	-6
2.43267	-3
2.43633	-1
2.44000	1
2.44367	2
2.44733	4
2.45100	5
2.45467	6
2.45833	7
2.46200	8
2.46567	8
2.46933	9
2.47300	10
2.47667	11
2.48033	12
2.48400	13
2.48767	14
2.49133	15
2.49500	15
2.49867	16
2.50233	16
2.50600	16
2.50967	17
2.51333	17
2.51700	18
2.52067	19
2.52433	19
2.52800	19
2.53167	18
2.53533	17
2.53900	16
2.54267	16
2.54633	15
2.55000	15
2.55367	15
2.55733	15
2.56100	15
2.56467	14
2.56833	14
2.57200	14
2.57567	15
2.57933	15
2.58300	14
2.58667	14
2.59033	14
2.59400	14
2.59767	15
2.60133	15
2.60500	16
2.60867	16
2.61233	17
2.61600	17
2.61967	18
2.62333	18
2.62700	19
2.63067	19
2.63433	20
2.63800	20
2.64167	20
2.64533	20
2.64900	20
2.65267	20
2.65633	21
2.66000	21
2.66367	21
2.66733	21
2.67100	22
2.67467	22
2.67833	22
2.68200	22
2.68567	23
2.68933	23
2.69300	23
2.69667	24
2.70033	25
2.70400	25
2.70767	26
2.71133	27
2.71500	28
2.71867	28
2.72233	28
2.72600	29
2.72967	29
2.73333	28
2.73700	28
2.74067	27
2.74433	27
2.74800	26
2.75167	26
2.75533	25
2.75900	25
2.76267	26
2.76633	26
2.77000	26
2.77367	27
2.77733	27
2.78100	27
2.78467	28
2.78833	28
2.79200	29
2.79567	29
2.79933	29
2.80300	29
2.80667	29
2.81033	29
2.81400	29
2.81767	29
2.82133	29
2.82500	29
2.82867	29
2.83233	29
2.83600	29
2.83967	29
2.84333	29
2.84700	29
2.85067	29
2.85433	29
2.85800	28
2.86167	25
2.86533	21
2.86900	14
2.87267	3
2.87633	-11
2.88000	-30
2.88367	-54
2.88733	-83
2.89100	-118
2.89467	-158
2.89833	-203
2.90200	-253
2.90567	-308
2.90933	-365
2.91300	-426
2.91667	-489
2.92033	-553
2.92400	-618
2.92767	-683
2.93133	-746
2.93500	-807
2.93867	-864
2.94233	-919
2.94600	-974
2.94967	-1030
2.95333	-1079
2.95700	-1113
2.96067	-1124
2.96433	-1109
2.96800	-1071
2.97167	-1014
2.97533	-944
2.97900	-865
2.98267	-783
2.98633	-701
2.99000	-622
2.99367	-548
2.99733	-479
3.00100	-416
3.00467	-360
3.00833	-310
3.01200	-265
3.01567	-226
3.01933	-192
3.02300	-163
3.02667	-138
3.03033	-116
3.03400	-97
3.03767	-81
3.04133	-67
3.04500	-55
3.04867	-44
3.05233	-35
3.05600	-28
3.05967	-22
3.06333	-16
3.06700	-11
3.07067	-7
3.07433	-3
3.07800	-1
3.08167	2
3.08533	4
3.08900	6
3.09267	8
3.09633	9
3.10000	10
3.10367	11
3.10733	12
3.11100	13
3.11467	14
3.11833	14
3.12200	15
3.12567	16
3.12933	17
3.13300	17
3.13667	18
3.14033	18
3.14400	18
3.14767	19
3.15133	19
3.15500	19
3.15867	19
3.16233	19
3.16600	20
3.16967	20
3.17333	20
3.17700	20
3.18067	21
3.18433	21
3.18800	21
3.19167	21
3.19533	21
3.19900	21
3.20267	22
3.20633	22
3.21000	22
3.21367	22
3.21733	22
3.22100	22
3.22467	23
3.22833	23
3.23200	23
3.23567	23
3.23933	23
3.24300	23
3.24667	23
3.25033	23
3.25400	23
3.25767	24
3.26133	24
3.26500	24
3.26867	24
3.27233	24
3.27600	24
3.27967	24
3.28333	24
3.28700	24
3.29067	24
3.29433	24
3.29800	25
3.30167	25
3.30533	25
3.30900	26
3.31267	26
3.31633	27
3.32000	27
3.32367	27
3.32733	27
3.33100	28
3.33467	28
3.33833	28
3.34200	28
3.34567	28
3.34933	28
3.35300	29
3.35667	29
3.36033	29
3.36400	29
3.36767	29
3.37133	29
3.37500	29
3.37867	29
3.38233	29
3.38600	29
3.38967	29
3.39333	29
3.39700	29
3.40067	29
3.40433	29
3.40800	29
3.41167	29
3.41533	29
3.41900	29
3.42267	29
3.42633	29
3.43000	29
3.43367	29
3.43733	29
3.44100	29
3.44467	29
3.44833	29
3.45200	29
3.45567	29
3.45933	29
3.46300	29
3.46667	29
3.47033	29
3.47400	29
3.47767	28
3.48133	28
3.48500	28
3.48867	28
3.49233	28
3.49600	28
3.49967	28
3.50333	28
3.50700	29
3.51067	29
3.51433	29
3.51800	29
3.52167	29
3.52533	29
3.52900	29
3.53267	29
3.53633	29
3.54000	29
3.54367	29
3.54733	29
3.55100	29
3.55467	29
3.55833	29
3.56200	29
3.56567	30
3.56933	30
3.57300	30
3.57667	30
3.58033	30
3.58400	30
3.58767	30
3.59133	30
3.59500	29
3.59867	29
3.60233	29
3.60600	29
3.60967	29
3.61333	29
3.61700	29
3.62067	29
3.62433	30
3.62800	30
3.63167	30
3.63533	29
3.63900	29
3.64267	29
3.64633	29
3.65000	29
3.65367	28
3.65733	28
3.66100	28
3.66467	28
3.66833	28
3.67200	28
3.67567	28
3.67933	28
3.68300	28
3.68667	28
3.69033	28
3.69400	28
3.69767	28
3.70133	28
3.70500	28
3.70867	28
3.71233	29
3.71600	29
3.71967	29
3.72333	29
3.72700	29
3.73067	29
3.73433	29
3.73800	29
3.74167	29
3.74533	29
3.74900	29
3.75267	29
3.75633	29
3.76000	29
3.76367	29
3.76733	29
3.77100	29
3.77467	29
3.77833	29
3.78200	29
3.78567	29
3.78933	29
3.79300	29
3.79667	29
3.80033	29
3.80400	29
3.80767	29
3.81133	29
3.81500	29
3.81867	29
3.82233	29
3.82600	29
3.82967	29
3.83333	29
3.83700	29
3.84067	29
3.84433	29
3.84800	29
3.85167	29
3.85533	29
3.85900	29
3.86267	29
3.86633	29
3.87000	29
3.87367	29
3.87733	29
3.88100	29
3.88467	29
3.88833	29
3.89200	29
3.89567	29
3.89933	29
3.90300	30
3.90667	30
3.91033	30
3.91400	30
3.91767	30
3.92133	30
3.92500	30
3.92867	30
3.93233	30
3.93600	30
3.93967	30
3.94333	30
3.94700	30
3.95067	30
3.95433	30
3.95800	30
3.96167	29
3.96533	29
3.96900	29
3.97267	29
3.97633	30
3.98000	30
3.98367	30
3.98733	30
3.99100	30
3.99467	30
3.99833	29

[Chromatogram (Ch3)]
Interval(msec)	220
# of Points	1091
Start Time(min)	0.002
End Time(min)	3.998
R.Time (min)	Intensity
0.00167	1
0.00533	3
0.00900	5
0.01267	5
0.01633	6
0.02000	6
0.02367	4
0.02733	2
0.03100	3
0.03467	2
0.03833	1
0.04200	1
0.04567	-0
0.04933	-0
0.05300	2
0.05667	5
0.06033	6
0.06400	6
0.06767	5
0.07133	4
0.07500	2
0.07867	-1
0.08233	-2
0.08600	-1
0.08967	1
0.09333	-1
0.09700	-2
0.10067	-2
0.10433	-1
0.10800	1
0.11167	2
0.11533	2
0.11900	2
0.12267	2
0.12633	3
0.13000	1
0.13367	-4
0.13733	-7
0.14100	-8
0.14467	-7
0.14833	-5
0.15200	-3
0.15567	-1
0.15933	-4
0.16300	-6
0.16667	-6
0.17033	-5
0.17400	-3
0.17767	-2
0.18133	-0
0.18500	-1
0.18867	-2
0.19233	-1
0.19600	2
0.19967	5
0.20333	4
0.20700	5
0.21067	5
0.21433	4
0.21800	3
0.22167	-1
0.22533	-1
0.22900	-1
0.23267	-2
0.23633	-1
0.24000	1
0.24367	3
0.24733	5
0.25100	3
0.25467	3
0.25833	5
0.26200	8
0.26567	7
0.26933	5
0.27300	4
0.27667	0
0.28033	-2
0.28400	-2
0.28767	-0
0.29133	0
0.29500	2
0.29867	4
0.30233	4
0.30600	5
0.30967	3
0.31333	0
0.31700	-2
0.32067	-0
0.32433	1
0.32800	0
0.33167	0
0.33533	-2
0.33900	-6
0.34267	-8
0.34633	-5
0.35000	-3
0.35367	-2
0.35733	-2
0.36100	-1
0.36467	1
0.36833	1
0.37200	2
0.37567	3
0.37933	3
0.38300	2
0.38667	2
0.39033	1
0.39400	-1
0.39767	-0
0.40133	-1
0.40500	-1
0.40867	-1
0.41233	1
0.41600	1
0.41967	-3
0.42333	-5
0.42700	-3
0.43067	-4
0.43433	-5
0.43800	-3
0.44167	-0
0.44533	1
0.44900	-0
0.45267	-0
0.45633	1
0.46000	-0
0.46367	-2
0.46733	-3
0.47100	-6
0.47467	-6
0.47833	-7
0.48200	-6
0.48567	-7
0.48933	-4
0.49300	1
0.49667	2
0.50033	0
0.50400	-2
0.50767	-2
0.51133	-1
0.51500	1
0.51867	4
0.52233	4
0.52600	4
0.52967	4
0.53333	4
0.53700	4
0.54067	4
0.54433	4
0.54800	3
0.55167	3
0.55533	3
0.55900	3
0.56267	8
0.56633	10
0.57000	9
0.57367	5
0.57733	3
0.58100	1
0.58467	-3
0.58833	-6
0.59200	-8
0.59567	-7
0.59933	-4
0.60300	-5
0.60667	-6
0.61033	-1
0.61400	1
0.61767	-0
0.62133	2
0.62500	2
0.62867	1
0.63233	2
0.63600	1
0.63967	1
0.64333	2
0.64700	1
0.65067	-2
0.65433	-3
0.65800	-5
0.66167	-4
0.66533	-0
0.66900	3
0.67267	4
0.67633	5
0.68000	4
0.68367	4
0.68733	5
0.69100	6
0.69467	7
0.69833	5
0.70200	4
0.70567	3
0.70933	2
0.71300	1
0.71667	2
0.72033	2
0.72400	3
0.72767	3
0.73133	2
0.73500	-1
0.73867	-6
0.74233	-8
0.74600	-7
0.74967	-7
0.75333	-6
0.75700	-2
0.76067	1
0.76433	-1
0.76800	1
0.77167	2
0.77533	2
0.77900	3
0.78267	4
0.78633	5
0.79000	5
0.79367	2
0.79733	-1
0.80100	1
0.80467	2
0.80833	2
0.81200	1
0.81567	1
0.81933	2
0.82300	5
0.82667	8
0.83033	7
0.83400	7
0.83767	5
0.84133	2
0.84500	2
0.84867	3
0.85233	5
0.85600	5
0.85967	4
0.86333	7
0.86700	9
0.87067	8
0.87433	6
0.87800	2
0.88167	1
0.88533	1
0.88900	2
0.89267	2
0.89633	4
0.90000	6
0.90367	6
0.90733	5
0.91100	4
0.91467	4
0.91833	3
0.92200	4
0.92567	3
0.92933	0
0.93300	-2
0.93667	1
0.94033	0
0.94400	2
0.94767	3
0.95133	4
0.95500	4
0.95867	4
0.96233	3
0.96600	0
0.96967	-1
0.97333	-2
0.97700	-2
0.98067	-2
0.98433	-1
0.98800	1
0.99167	4
0.99533	5
0.99900	6
1.00267	6
1.00633	5
1.01000	4
1.01367	4
1.01733	3
1.02100	5
1.02467	7
1.02833	7
1.03200	6
1.03567	5
1.03933	3
1.04300	2
1.04667	2
1.05033	3
1.05400	5
1.05767	9
1.06133	9
1.06500	8
1.06867	9
1.07233	5
1.07600	-1
1.07967	-1
1.08333	1
1.08700	4
1.09067	6
1.09433	8
1.09800	9
1.10167	11
1.10533	12
1.10900	12
1.11267	11
1.11633	9
1.12000	8
1.12367	9
1.12733	8
1.13100	4
1.13467	2
1.13833	4
1.14200	6
1.14567	7
1.14933	7
1.15300	5
1.15667	5
1.16033	6
1.16400	6
1.16767	5
1.17133	7
1.17500	6
1.17867	3
1.18233	-1
1.18600	-2
1.18967	2
1.19333	5
1.19700	6
1.20067	6
1.20433	7
1.20800	9
1.21167	9
1.21533	8
1.21900	8
1.22267	11
1.22633	14
1.23000	15
1.23367	14
1.23733	12
1.24100	7
1.24467	5
1.24833	2
1.25200	2
1.25567	2
1.25933	3
1.26300	7
1.26667	8
1.27033	9
1.27400	6
1.27767	5
1.28133	6
1.28500	4
1.28867	6
1.29233	8
1.29600	8
1.29967	11
1.30333	12
1.30700	12
1.31067	11
1.31433	8
1.31800	6
1.32167	4
1.32533	6
1.32900	6
1.33267	7
1.33633	9
1.34000	9
1.34367	8
1.34733	9
1.35100	10
1.35467	12
1.35833	13
1.36200	12
1.36567	11
1.36933	10
1.37300	9
1.37667	10
1.38033	13
1.38400	14
1.38767	15
1.39133	16
1.39500	19
1.39867	19
1.40233	17
1.40600	13
1.40967	10
1.41333	7
1.41700	7
1.42067	8
1.42433	8
1.42800	5
1.43167	4
1.43533	7
1.43900	7
1.44267	8
1.44633	11
1.45000	12
1.45367	10
1.45733	10
1.46100	9
1.46467	10
1.46833	13
1.47200	13
1.47567	13
1.47933	14
1.48300	13
1.48667	10
1.49033	7
1.49400	6
1.49767	5
1.50133	5
1.50500	6
1.50867	5
1.51233	4
1.51600	1
1.51967	-0
1.52333	1
1.52700	2
1.53067	5
1.53433	8
1.53800	8
1.54167	5
1.54533	3
1.54900	2
1.55267	1
1.55633	1
1.56000	1
1.56367	3
1.56733	4
1.57100	6
1.57467	8
1.57833	10
1.58200	9
1.58567	8
1.58933	10
1.59300	12
1.59667	9
1.60033	6
1.60400	10
1.60767	12
1.61133	11
1.61500	10
1.61867	8
1.62233	8
1.62600	9
1.62967	12
1.63333	13
1.63700	12
1.64067	13
1.64433	15
1.64800	17
1.65167	17
1.65533	16
1.65900	17
1.66267	17
1.66633	16
1.67000	13
1.67367	9
1.67733	9
1.68100	9
1.68467	8
1.68833	10
1.69200	10
1.69567	10
1.69933	10
1.70300	11
1.70667	14
1.71033	16
1.71400	18
1.71767	16
1.72133	11
1.72500	10
1.72867	10
1.73233	12
1.73600	14
1.73967	15
1.74333	17
1.74700	20
1.75067	20
1.75433	21
1.75800	20
1.76167	18
1.76533	16
1.76900	17
1.77267	19
1.77633	22
1.78000	24
1.78367	24
1.78733	22
1.79100	21
1.79467	21
1.79833	22
1.80200	19
1.80567	18
1.80933	17
1.81300	16
1.81667	16
1.82033	15
1.82400	16
1.82767	15
1.83133	19
1.83500	21
1.83867	21
1.84233	18
1.84600	17
1.84967	17
1.85333	18
1.85700	20
1.86067	23
1.86433	23
1.86800	24
1.87167	24
1.87533	25
1.87900	26
1.88267	28
1.88633	31
1.89000	31
1.89367	28
1.89733	23
1.90100	21
1.90467	21
1.90833	21
1.91200	21
1.91567	20
1.91933	23
1.92300	26
1.92667	27
1.93033	29
1.93400	32
1.93767	34
1.94133	34
1.94500	34
1.94867	32
1.95233	31
1.95600	33
1.95967	34
1.96333	37
1.96700	38
1.97067	34
1.97433	33
1.97800	33
1.98167	34
1.98533	33
1.98900	34
1.99267	35
1.99633	37
2.00000	38
2.00367	39
2.00733	41
2.01100	41
2.01467	40
2.01833	38
2.02200	35
2.02567	33
2.02933	33
2.03300	35
2.03667	34
2.04033	38
2.04400	41
2.04767	43
2.05133	44
2.05500	45
2.05867	44
2.06233	43
2.06600	46
2.06967	48
2.07333	47
2.07700	47
2.08067	47
2.08433	48
2.08800	53
2.09167	58
2.09533	58
2.09900	56
2.10267	54
2.10633	52
2.11000	53
2.11367	55
2.11733	56
2.12100	55
2.12467	53
2.12833	50
2.13200	49
2.13567	50
2.13933	49
2.14300	50
2.14667	52
2.15033	55
2.15400	61
2.15767	63
2.16133	60
2.16500	56
2.16867	57
2.17233	57
2.17600	59
2.17967	58
2.18333	59
2.18700	62
2.19067	65
2.19433	68
2.19800	69
2.20167	68
2.20533	66
2.20900	65
2.21267	67
2.21633	70
2.22000	74
2.22367	75
2.22733	74
2.23100	74
2.23467	77
2.23833	81
2.24200	83
2.24567	80
2.24933	75
2.25300	72
2.25667	75
2.26033	79
2.26400	78
2.26767	80
2.27133	81
2.27500	83
2.27867	82
2.28233	82
2.28600	82
2.28967	80
2.29333	78
2.29700	78
2.30067	80
2.30433	82
2.30800	82
2.31167	83
2.31533	84
2.31900	84
2.32267	83
2.32633	83
2.33000	81
2.33367	81
2.33733	81
2.34100	81
2.34467	79
2.34833	78
2.35200	78
2.35567	82
2.35933	83
2.36300	83
2.36667	85
2.37033	90
2.37400	92
2.37767	91
2.38133	88
2.38500	87
2.38867	83
2.39233	81
2.39600	85
2.39967	93
2.40333	104
2.40700	114
2.41067	120
2.41433	124
2.41800	127
2.42167	128
2.42533	127
2.42900	125
2.43267	124
2.43633	124
2.44000	127
2.44367	161
2.44733	220
2.45100	271
2.45467	300
2.45833	301
2.46200	285
2.46567	272
2.46933	265
2.47300	257
2.47667	242
2.48033	223
2.48400	201
2.48767	182
2.49133	165
2.49500	157
2.49867	155
2.50233	158
2.50600	163
2.50967	169
2.51333	172
2.51700	169
2.52067	162
2.52433	152
2.52800	140
2.53167	127
2.53533	114
2.53900	106
2.54267	99
2.54633	94
2.55000	91
2.55367	88
2.55733	84
2.56100	83
2.56467	84
2.56833	88
2.57200	91
2.57567	97
2.57933	102
2.58300	109
2.58667	117
2.59033	126
2.59400	132
2.59767	136
2.60133	140
2.60500	142
2.60867	141
2.61233	140
2.61600	138
2.61967	133
2.62333	128
2.62700	121
2.63067	112
2.63433	102
2.63800	92
2.64167	86
2.64533	80
2.64900	72
2.65267	64
2.65633	56
2.66000	54
2.66367	56
2.66733	59
2.67100	59
2.67467	57
2.67833	56
2.68200	56
2.68567	53
2.68933	50
2.69300	46
2.69667	42
2.70033	45
2.70400	46
2.70767	47
2.71133	48
2.71500	49
2.71867	51
2.72233	52
2.72600	50
2.72967	51
2.73333	55
2.73700	58
2.74067	59
2.74433	61
2.74800	63
2.75167	67
2.75533	71
2.75900	74
2.76267	78
2.76633	83
2.77000	89
2.77367	94
2.77733	96
2.78100	99
2.78467	103
2.78833	107
2.79200	111
2.79567	115
2.79933	116
2.80300	118
2.80667	118
2.81033	118
2.81400	119
2.81767	116
2.82133	114
2.82500	112
2.82867	113
2.83233	115
2.83600	120
2.83967	131
2.84333	160
2.84700	222
2.85067	330
2.85433	502
2.85800	751
2.86167	1080
2.86533	1481
2.86900	1932
2.87267	2400
2.87633	2844
2.88000	3227
2.88367	3520
2.88733	3704
2.89100	3775
2.89467	3741
2.89833	3617
2.90200	3425
2.90567	3186
2.90933	2924
2.91300	2654
2.91667	2385
2.92033	2126
2.92400	1884
2.92767	1667
2.93133	1472
2.93500	1297
2.93867	1140
2.94233	998
2.94600	875
2.94967	768
2.95333	677
2.95700	597
2.96067	528
2.96433	470
2.96800	421
2.97167	376
2.97533	336
2.97900	300
2.98267	271
2.98633	246
2.99000	224
2.99367	208
2.99733	194
3.00100	182
3.00467	175
3.00833	170
3.01200	162
3.01567	153
3.01933	144
3.02300	138
3.02667	133
3.03033	127
3.03400	122
3.03767	115
3.04133	111
3.04500	107
3.04867	103
3.05233	48
3.05600	-54
3.05967	-130
3.06333	-142
3.06700	-92
3.07067	3
3.07433	124
3.07800	249
3.08167	370
3.08533	481
3.08900	575
3.09267	655
3.09633	724
3.10000	782
3.10367	828
3.10733	864
3.11100	892
3.11467	913
3.11833	929
3.12200	940
3.12567	952
3.12933	961
3.13300	966
3.13667	969
3.14033	968
3.14400	969
3.14767	971
3.15133	970
3.15500	967
3.15867	966
3.16233	963
3.16600	960
3.16967	960
3.17333	959
3.17700	957
3.18067	952
3.18433	945
3.18800	937
3.19167	930
3.19533	928
3.19900	924
3.20267	920
3.20633	915
3.21000	906
3.21367	900
3.21733	898
3.22100	894
3.22467	887
3.22833	886
3.23200	882
3.23567	877
3.23933	872
3.24300	863
3.24667	855
3.25033	850
3.25400	847
3.25767	844
3.26133	838
3.26500	832
3.26867	827
3.27233	821
3.27600	815
3.27967	810
3.28333	804
3.28700	799
3.29067	796
3.29433	793
3.29800	788
3.30167	781
3.30533	774
3.30900	769
3.31267	768
3.31633	766
3.32000	762
3.32367	757
3.32733	753
3.33100	748
3.33467	743
3.33833	740
3.34200	738
3.34567	736
3.34933	734
3.35300	731
3.35667	726
3.36033	725
3.36400	724
3.36767	723
3.37133	720
3.37500	721
3.37867	723
3.38233	723
3.38600	719
3.38967	717
3.39333	715
3.39700	717
3.40067	717
3.40433	716
3.40800	712
3.41167	709
3.41533	706
3.41900	704
3.42267	705
3.42633	706
3.43000	705
3.43367	701
3.43733	695
3.44100	686
3.44467	681
3.44833	679
3.45200	680
3.45567	679
3.45933	673
3.46300	668
3.46667	663
3.47033	657
3.47400	651
3.47767	645
3.48133	640
3.48500	637
3.48867	633
3.49233	629
3.49600	624
3.49967	621
3.50333	619
3.50700	617
3.51067	614
3.51433	610
3.51800	605
3.52167	598
3.52533	592
3.52900	591
3.53267	592
3.53633	592
3.54000	590
3.54367	589
3.54733	588
3.55100	587
3.55467	585
3.55833	583
3.56200	578
3.56567	573
3.56933	569
3.57300	566
3.57667	566
3.58033	568
3.58400	571
3.58767	573
3.59133	573
3.59500	570
3.59867	566
3.60233	563
3.60600	560
3.60967	557
3.61333	552
3.61700	548
3.62067	545
3.62433	542
3.62800	540
3.63167	538
3.63533	538
3.63900	538
3.64267	538
3.64633	538
3.65000	536
3.65367	537
3.65733	533
3.66100	530
3.66467	528
3.66833	527
3.67200	525
3.67567	521
3.67933	516
3.68300	518
3.68667	519
3.69033	518
3.69400	515
3.69767	516
3.70133	519
3.70500	520
3.70867	518
3.71233	515
3.71600	517
3.71967	519
3.72333	519
3.72700	517
3.73067	515
3.73433	514
3.73800	514
3.74167	513
3.74533	513
3.74900	511
3.75267	510
3.75633	510
3.76000	508
3.76367	507
3.76733	503
3.77100	501
3.77467	501
3.77833	502
3.78200	505
3.78567	507
3.78933	505
3.79300	504
3.79667	503
3.80033	500
3.80400	497
3.80767	495
3.81133	495
3.81500	492
3.81867	490
3.82233	487
3.82600	486
3.82967	487
3.83333	486
3.83700	486
3.84067	486
3.84433	486
3.84800	487
3.85167	486
3.85533	483
3.85900	482
3.86267	482
3.86633	484
3.87000	483
3.87367	482
3.87733	481
3.88100	480
3.88467	478
3.88833	478
3.89200	482
3.89567	482
3.89933	479
3.90300	478
3.90667	477
3.91033	477
3.91400	480
3.91767	478
3.92133	475
3.92500	473
3.92867	472
3.93233	469
3.93600	467
3.93967	466
3.94333	468
3.94700	469
3.95067	468
3.95433	466
3.95800	462
3.96167	460
3.96533	457
3.96900	455
3.97267	456
3.97633	459
3.98000	456
3.98367	452
3.98733	451
3.99100	450
3.99467	449
3.99833	444

[Status Trace (Column Oven Temperature)]
Interval(msec)	1000
# of Points	240
Start Time(min)	0.008
End Time(min)	3.992
Intensity Units	
Intensity Multiplier	1
R.Time (min)	Intensity
0.00835	35.01
0.02502	35.02
0.04168	35.02
0.05835	35.02
0.07502	35.01
0.09168	35.02
0.10835	35.02
0.12502	35.02
0.14168	35.02
0.15835	35.02
0.17502	35.03
0.19168	35.02
0.20835	35.02
0.22502	35.02
0.24168	35.02
0.25835	35.02
0.27502	35.01
0.29168	35.01
0.30835	35.01
0.32502	35.00
0.34168	35.00
0.35835	35.00
0.37502	35.01
0.39168	35.01
0.40835	35.01
0.42502	35.01
0.44168	35.01
0.45835	35.00
0.47502	35.00
0.49168	35.00
0.50835	35.00
0.52502	35.00
0.54168	35.00
0.55835	35.00
0.57502	35.00
0.59168	35.00
0.60835	35.01
0.62502	35.01
0.64168	35.00
0.65835	35.00
0.67502	35.00
0.69168	35.00
0.70835	35.00
0.72502	35.00
0.74168	34.99
0.75835	34.99
0.77502	35.00
0.79168	35.00
0.80835	34.99
0.82502	34.99
0.84168	34.99
0.85835	34.99
0.87502	34.98
0.89168	34.99
0.90835	34.99
0.92502	34.99
0.94168	34.99
0.95835	34.99
0.97502	34.99
0.99168	34.99
1.00835	34.99
1.02502	34.99
1.04168	34.99
1.05835	35.00
1.07502	35.00
1.09168	35.01
1.10835	35.00
1.12502	35.00
1.14168	35.00
1.15835	34.99
1.17502	34.99
1.19168	34.99
1.20835	34.99
1.22502	34.99
1.24168	34.99
1.25835	34.99
1.27502	34.99
1.29168	34.99
1.30835	34.99
1.32502	34.99
1.34168	35.00
1.35835	35.00
1.37502	35.00
1.39168	35.01
1.40835	35.01
1.42502	35.01
1.44168	35.01
1.45835	35.00
1.47502	35.00
1.49168	35.00
1.50835	34.99
1.52502	34.99
1.54168	35.00
1.55835	35.00
1.57502	35.00
1.59168	35.00
1.60835	35.06
1.62502	35.17
1.64168	35.36
1.65835	35.60
1.67502	35.95
1.69168	36.31
1.70835	36.65
1.72502	37.00
1.74168	37.33
1.75835	37.66
1.77502	37.99
1.79168	38.35
1.80835	38.67
1.82502	38.98
1.84168	39.31
1.85835	39.64
1.87502	39.97
1.89168	40.29
1.90835	40.63
1.92502	40.97
1.94168	41.27
1.95835	41.60
1.97502	41.94
1.99168	42.25
2.00835	42.58
2.02502	42.92
2.04168	43.24
2.05835	43.57
2.07502	43.87
2.09168	44.20
2.10835	44.53
2.12502	44.86
2.14168	45.18
2.15835	45.51
2.17502	45.82
2.19168	46.16
2.20835	46.47
2.22502	46.81
2.24168	47.21
2.25835	47.51
2.27502	47.84
2.29168	48.17
2.30835	48.51
2.32502	48.82
2.34168	49.13
2.35835	49.40
2.37502	49.63
2.39168	49.72
2.40835	49.72
2.42502	49.73
2.44168	49.72
2.45835	49.75
2.47502	49.78
2.49168	49.78
2.50835	49.79
2.52502	49.80
2.54168	49.81
2.55835	49.81
2.57502	49.80
2.59168	49.82
2.60835	49.83
2.62502	49.83
2.64168	49.84
2.65835	49.84
2.67502	49.85
2.69168	49.87
2.70835	49.85
2.72502	49.85
2.74168	49.88
2.75835	49.90
2.77502	49.90
2.79168	49.89
2.80835	49.88
2.82502	49.89
2.84168	49.89
2.85835	49.91
2.87502	49.91
2.89168	49.91
2.90835	49.92
2.92502	49.94
2.94168	49.96
2.95835	49.96
2.97502	49.96
2.99168	49.97
3.00835	49.99
3.02502	50.00
3.04168	50.01
3.05835	50.01
3.07502	50.03
3.09168	50.04
3.10835	50.05
3.12502	50.05
3.14168	50.07
3.15835	50.07
3.17502	50.07
3.19168	50.08
3.20835	50.08
3.22502	50.09
3.24168	50.09
3.25835	50.09
3.27502	50.10
3.29168	50.10
3.30835	50.10
3.32502	50.09
3.34168	50.09
3.35835	50.08
3.37502	50.07
3.39168	50.07
3.40835	50.06
3.42502	50.07
3.44168	50.06
3.45835	50.07
3.47502	50.07
3.49168	50.07
3.50835	50.07
3.52502	50.07
3.54168	50.07
3.55835	50.07
3.57502	50.08
3.59168	50.07
3.60835	50.06
3.62502	50.06
3.64168	50.07
3.65835	50.07
3.67502	50.08
3.69168	50.09
3.70835	50.08
3.72502	50.08
3.74168	50.07
3.75835	50.07
3.77502	50.07
3.79168	50.07
3.80835	50.07
3.82502	50.07
3.84168	50.08
3.85835	50.07
3.87502	50.07
3.89168	50.07
3.90835	50.07
3.92502	50.07
3.94168	50.07
3.95835	50.07
3.97502	50.07
3.99168	50.06

[Status Trace (Injection Unit Temperature)]
Interval(msec)	1000
# of Points	240
Start Time(min)	0.008
End Time(min)	3.992
Intensity Units	
Intensity Multiplier	1
R.Time (min)	Intensity
0.00835	99.98
0.02502	99.97
0.04168	99.98
0.05835	99.97
0.07502	99.98
0.09168	99.98
0.10835	99.98
0.12502	99.98
0.14168	99.97
0.15835	99.98
0.17502	99.98
0.19168	99.98
0.20835	99.98
0.22502	99.98
0.24168	99.98
0.25835	99.98
0.27502	99.98
0.29168	99.98
0.30835	99.98
0.32502	99.98
0.34168	99.98
0.35835	99.98
0.37502	99.98
0.39168	99.98
0.40835	99.98
0.42502	99.98
0.44168	99.98
0.45835	99.98
0.47502	99.98
0.49168	99.98
0.50835	99.98
0.52502	99.98
0.54168	99.98
0.55835	99.98
0.57502	99.98
0.59168	99.98
0.60835	99.98
0.62502	99.98
0.64168	99.98
0.65835	99.98
0.67502	99.98
0.69168	99.98
0.70835	99.98
0.72502	99.98
0.74168	99.98
0.75835	99.98
0.77502	99.98
0.79168	99.98
0.80835	99.98
0.82502	99.98
0.84168	99.98
0.85835	99.98
0.87502	99.98
0.89168	99.98
0.90835	99.98
0.92502	99.98
0.94168	99.98
0.95835	99.98
0.97502	99.98
0.99168	99.98
1.00835	99.98
1.02502	99.98
1.04168	99.98
1.05835	99.98
1.07502	99.98
1.09168	99.98
1.10835	99.98
1.12502	99.98
1.14168	99.98
1.15835	99.98
1.17502	99.98
1.19168	99.98
1.20835	99.98
1.22502	99.98
1.24168	99.98
1.25835	99.98
1.27502	99.98
1.29168	99.98
1.30835	99.98
1.32502	99.98
1.34168	99.98
1.35835	99.98
1.37502	99.98
1.39168	99.98
1.40835	99.98
1.42502	99.98
1.44168	99.98
1.45835	99.98
1.47502	99.98
1.49168	99.98
1.50835	99.98
1.52502	99.98
1.54168	99.98
1.55835	99.98
1.57502	99.98
1.59168	99.98
1.60835	99.98
1.62502	99.98
1.64168	99.98
1.65835	99.98
1.67502	99.98
1.69168	99.98
1.70835	99.98
1.72502	99.98
1.74168	99.98
1.75835	99.98
1.77502	99.98
1.79168	99.98
1.80835	99.98
1.82502	99.98
1.84168	99.98
1.85835	99.98
1.87502	99.98
1.89168	99.98
1.90835	99.98
1.92502	99.98
1.94168	99.98
1.95835	99.97
1.97502	99.97
1.99168	99.97
2.00835	99.97
2.02502	99.97
2.04168	99.97
2.05835	99.97
2.07502	99.97
2.09168	99.97
2.10835	99.97
2.12502	99.97
2.14168	99.97
2.15835	99.97
2.17502	99.97
2.19168	99.97
2.20835	99.96
2.22502	99.97
2.24168	99.97
2.25835	99.96
2.27502	99.97
2.29168	99.97
2.30835	99.96
2.32502	99.96
2.34168	99.96
2.35835	99.97
2.37502	99.96
2.39168	99.97
2.40835	99.96
2.42502	99.97
2.44168	99.97
2.45835	99.97
2.47502	99.97
2.49168	99.97
2.50835	99.96
2.52502	99.97
2.54168	99.97
2.55835	99.97
2.57502	99.97
2.59168	99.97
2.60835	99.97
2.62502	99.97
2.64168	99.98
2.65835	99.98
2.67502	99.97
2.69168	99.98
2.70835	99.98
2.72502	99.98
2.74168	99.98
2.75835	99.98
2.77502	99.98
2.79168	99.98
2.80835	99.99
2.82502	99.99
2.84168	99.99
2.85835	99.99
2.87502	99.99
2.89168	99.99
2.90835	99.99
2.92502	99.99
2.94168	99.99
2.95835	100.00
2.97502	100.00
2.99168	100.00
3.00835	100.00
3.02502	100.00
3.04168	100.00
3.05835	100.01
3.07502	100.00
3.09168	100.01
3.10835	100.01
3.12502	100.01
3.14168	100.01
3.15835	100.01
3.17502	100.01
3.19168	100.02
3.20835	100.02
3.22502	100.02
3.24168	100.02
3.25835	100.02
3.27502	100.02
3.29168	100.02
3.30835	100.03
3.32502	100.02
3.34168	100.02
3.35835	100.03
3.37502	100.02
3.39168	100.02
3.40835	100.03
3.42502	100.02
3.44168	100.03
3.45835	100.03
3.47502	100.03
3.49168	100.03
3.50835	100.03
3.52502	100.03
3.54168	100.03
3.55835	100.03
3.57502	100.04
3.59168	100.03
3.60835	100.03
3.62502	100.04
3.64168	100.04
3.65835	100.04
3.67502	100.04
3.69168	100.04
3.70835	100.04
3.72502	100.04
3.74168	100.04
3.75835	100.04
3.77502	100.04
3.79168	100.04
3.80835	100.04
3.82502	100.04
3.84168	100.04
3.85835	100.04
3.87502	100.04
3.89168	100.04
3.90835	100.04
3.92502	100.04
3.94168	100.04
3.95835	100.05
3.97502	100.05
3.99168	100.05

[Status Trace (Carrier Gas Pressure)]
Interval(msec)	1000
# of Points	240
Start Time(min)	0.008
End Time(min)	3.992
Intensity Units	
Intensity Multiplier	1
R.Time (min)	Intensity
0.00835	58.00
0.02502	55.28
0.04168	57.06
0.05835	59.23
0.07502	59.44
0.09168	58.09
0.10835	57.98
0.12502	58.01
0.14168	58.01
0.15835	58.01
0.17502	58.00
0.19168	58.00
0.20835	58.00
0.22502	58.00
0.24168	58.00
0.25835	58.00
0.27502	58.00
0.29168	58.00
0.30835	58.00
0.32502	58.00
0.34168	58.00
0.35835	58.00
0.37502	58.00
0.39168	58.00
0.40835	58.00
0.42502	58.00
0.44168	58.00
0.45835	58.00
0.47502	58.00
0.49168	58.00
0.50835	58.00
0.52502	58.00
0.54168	58.00
0.55835	58.00
0.57502	58.00
0.59168	58.00
0.60835	58.00
0.62502	58.00
0.64168	58.00
0.65835	58.00
0.67502	58.00
0.69168	58.00
0.70835	58.00
0.72502	58.00
0.74168	58.00
0.75835	58.00
0.77502	58.00
0.79168	58.00
0.80835	58.00
0.82502	58.00
0.84168	58.00
0.85835	58.00
0.87502	58.00
0.89168	58.00
0.90835	58.00
0.92502	58.00
0.94168	58.00
0.95835	58.00
0.97502	58.00
0.99168	58.00
1.00835	58.00
1.02502	58.00
1.04168	58.00
1.05835	58.00
1.07502	58.00
1.09168	58.00
1.10835	58.00
1.12502	58.00
1.14168	58.00
1.15835	58.00
1.17502	58.00
1.19168	58.00
1.20835	58.00
1.22502	58.00
1.24168	58.00
1.25835	58.00
1.27502	58.00
1.29168	58.00
1.30835	58.00
1.32502	58.00
1.34168	58.00
1.35835	58.00
1.37502	58.00
1.39168	58.00
1.40835	58.00
1.42502	58.00
1.44168	58.00
1.45835	58.00
1.47502	58.00
1.49168	58.00
1.50835	58.00
1.52502	58.00
1.54168	58.00
1.55835	58.00
1.57502	58.00
1.59168	58.00
1.60835	58.00
1.62502	58.00
1.64168	58.00
1.65835	58.00
1.67502	58.01
1.69168	58.00
1.70835	58.00
1.72502	58.00
1.74168	58.00
1.75835	58.00
1.77502	58.00
1.79168	58.00
1.80835	58.00
1.82502	58.00
1.84168	58.00
1.85835	58.00
1.87502	58.00
1.89168	58.00
1.90835	58.00
1.92502	58.00
1.94168	58.00
1.95835	58.00
1.97502	58.00
1.99168	58.00
2.00835	58.00
2.02502	58.00
2.04168	58.00
2.05835	58.00
2.07502	58.00
2.09168	58.00
2.10835	58.00
2.12502	58.00
2.14168	58.00
2.15835	58.00
2.17502	58.00
2.19168	58.00
2.20835	58.00
2.22502	58.00
2.24168	58.00
2.25835	58.00
2.27502	58.00
2.29168	58.00
2.30835	58.00
2.32502	58.00
2.34168	58.00
2.35835	58.00
2.37502	58.00
2.39168	57.99
2.40835	58.00
2.42502	58.00
2.44168	58.00
2.45835	58.00
2.47502	58.00
2.49168	58.00
2.50835	58.00
2.52502	57.98
2.54168	58.00
2.55835	58.00
2.57502	58.00
2.59168	58.00
2.60835	58.00
2.62502	58.00
2.64168	58.00
2.65835	58.00
2.67502	58.00
2.69168	58.00
2.70835	58.00
2.72502	58.00
2.74168	58.00
2.75835	58.00
2.77502	58.00
2.79168	58.00
2.80835	58.00
2.82502	58.00
2.84168	58.00
2.85835	58.00
2.87502	58.00
2.89168	58.00
2.90835	58.00
2.92502	58.00
2.94168	58.00
2.95835	58.00
2.97502	58.00
2.99168	58.00
3.00835	58.00
3.02502	58.00
3.04168	58.00
3.05835	58.00
3.07502	58.00
3.09168	58.00
3.10835	58.00
3.12502	58.00
3.14168	58.00
3.15835	58.00
3.17502	58.00
3.19168	58.00
3.20835	58.00
3.22502	58.00
3.24168	58.00
3.25835	58.00
3.27502	58.00
3.29168	58.00
3.30835	58.00
3.32502	58.00
3.34168	58.00
3.35835	58.00
3.37502	58.00
3.39168	58.00
3.40835	58.00
3.42502	58.00
3.44168	58.00
3.45835	58.00
3.47502	58.00
3.49168	58.00
3.50835	58.00
3.52502	58.00
3.54168	58.00
3.55835	58.00
3.57502	58.00
3.59168	58.00
3.60835	58.00
3.62502	58.00
3.64168	58.00
3.65835	58.00
3.67502	58.00
3.69168	58.00
3.70835	58.00
3.72502	58.00
3.74168	58.00
3.75835	58.00
3.77502	58.00
3.79168	58.00
3.80835	58.00
3.82502	58.00
3.84168	58.00
3.85835	58.00
3.87502	58.00
3.89168	58.00
3.90835	58.00
3.92502	58.00
3.94168	58.00
3.95835	58.00
3.97502	58.00
3.99168	58.00

[Status Trace (Carrier Gas Flow)]
Interval(msec)	1000
# of Points	240
Start Time(min)	0.008
End Time(min)	3.992
Intensity Units	
Intensity Multiplier	1
R.Time (min)	Intensity
0.00835	34.52
0.02502	34.54
0.04168	34.55
0.05835	34.54
0.07502	34.50
0.09168	34.52
0.10835	34.52
0.12502	34.51
0.14168	34.52
0.15835	34.52
0.17502	34.51
0.19168	34.52
0.20835	34.52
0.22502	34.52
0.24168	34.52
0.25835	34.52
0.27502	34.52
0.29168	34.52
0.30835	34.52
0.32502	34.52
0.34168	34.52
0.35835	34.51
0.37502	34.52
0.39168	34.52
0.40835	34.51
0.42502	34.51
0.44168	34.51
0.45835	34.52
0.47502	34.52
0.49168	34.52
0.50835	34.52
0.52502	34.52
0.54168	34.52
0.55835	34.52
0.57502	34.52
0.59168	34.52
0.60835	34.52
0.62502	34.52
0.64168	34.52
0.65835	34.51
0.67502	34.52
0.69168	34.52
0.70835	34.52
0.72502	34.51
0.74168	34.52
0.75835	34.52
0.77502	34.52
0.79168	34.52
0.80835	34.52
0.82502	34.52
0.84168	34.52
0.85835	34.52
0.87502	34.52
0.89168	34.51
0.90835	34.52
0.92502	34.52
0.94168	34.53
0.95835	34.52
0.97502	34.52
0.99168	34.52
1.00835	34.52
1.02502	34.51
1.04168	34.52
1.05835	34.52
1.07502	34.52
1.09168	34.51
1.10835	34.53
1.12502	34.52
1.14168	34.52
1.15835	34.52
1.17502	34.52
1.19168	34.51
1.20835	34.52
1.22502	34.52
1.24168	34.52
1.25835	34.52
1.27502	34.52
1.29168	34.52
1.30835	34.52
1.32502	34.52
1.34168	34.52
1.35835	34.52
1.37502	34.52
1.39168	34.52
1.40835	34.52
1.42502	34.52
1.44168	34.52
1.45835	34.52
1.47502	34.52
1.49168	34.52
1.50835	34.51
1.52502	34.52
1.54168	34.52
1.55835	34.52
1.57502	34.52
1.59168	34.52
1.60835	34.52
1.62502	34.52
1.64168	34.52
1.65835	34.52
1.67502	34.52
1.69168	34.52
1.70835	34.52
1.72502	34.52
1.74168	34.52
1.75835	34.52
1.77502	34.52
1.79168	34.51
1.80835	34.52
1.82502	34.52
1.84168	34.52
1.85835	34.51
1.87502	34.52
1.89168	34.51
1.90835	34.52
1.92502	34.52
1.94168	34.52
1.95835	34.52
1.97502	34.52
1.99168	34.52
2.00835	34.52
2.02502	34.52
2.04168	34.52
2.05835	34.52
2.07502	34.52
2.09168	34.52
2.10835	34.52
2.12502	34.52
2.14168	34.52
2.15835	34.52
2.17502	34.52
2.19168	34.52
2.20835	34.52
2.22502	34.52
2.24168	34.52
2.25835	34.52
2.27502	34.52
2.29168	34.52
2.30835	34.52
2.32502	34.52
2.34168	34.52
2.35835	34.52
2.37502	34.53
2.39168	34.51
2.40835	34.52
2.42502	34.52
2.44168	34.52
2.45835	34.52
2.47502	34.52
2.49168	34.52
2.50835	34.41
2.52502	34.52
2.54168	34.52
2.55835	34.52
2.57502	34.52
2.59168	34.52
2.60835	34.52
2.62502	34.52
2.64168	34.52
2.65835	34.52
2.67502	34.52
2.69168	34.52
2.70835	34.52
2.72502	34.51
2.74168	34.52
2.75835	34.51
2.77502	34.51
2.79168	34.51
2.80835	34.52
2.82502	34.51
2.84168	34.52
2.85835	34.51
2.87502	34.51
2.89168	34.51
2.90835	34.52
2.92502	34.52
2.94168	34.52
2.95835	34.52
2.97502	34.52
2.99168	34.52
3.00835	34.52
3.02502	34.52
3.04168	34.53
3.05835	34.52
3.07502	34.51
3.09168	34.52
3.10835	34.52
3.12502	34.52
3.14168	34.52
3.15835	34.52
3.17502	34.51
3.19168	34.52
3.20835	34.52
3.22502	34.52
3.24168	34.52
3.25835	34.52
3.27502	34.52
3.29168	34.52
3.30835	34.52
3.32502	34.52
3.34168	34.52
3.35835	34.52
3.37502	34.52
3.39168	34.52
3.40835	34.52
3.42502	34.52
3.44168	34.52
3.45835	34.52
3.47502	34.52
3.49168	34.52
3.50835	34.52
3.52502	34.52
3.54168	34.52
3.55835	34.52
3.57502	34.52
3.59168	34.52
3.60835	34.51
3.62502	34.52
3.64168	34.52
3.65835	34.51
3.67502	34.52
3.69168	34.52
3.70835	34.52
3.72502	34.52
3.74168	34.52
3.75835	34.52
3.77502	34.52
3.79168	34.52
3.80835	34.52
3.82502	34.52
3.84168	34.51
3.85835	34.52
3.87502	34.51
3.89168	34.52
3.90835	34.52
3.92502	34.52
3.94168	34.52
3.95835	34.52
3.97502	34.52
3.99168	34.52

[Status Trace (Column Flow)]
Interval(msec)	1000
# of Points	240
Start Time(min)	0.008
End Time(min)	3.992
Intensity Units	
Intensity Multiplier	1
R.Time (min)	Intensity
0.00835	5.51
0.02502	5.19
0.04168	5.40
0.05835	5.65
0.07502	5.67
0.09168	5.52
0.10835	5.50
0.12502	5.51
0.14168	5.51
0.15835	5.51
0.17502	5.51
0.19168	5.51
0.20835	5.51
0.22502	5.51
0.24168	5.51
0.25835	5.51
0.27502	5.51
0.29168	5.51
0.30835	5.51
0.32502	5.51
0.34168	5.51
0.35835	5.51
0.37502	5.51
0.39168	5.51
0.40835	5.51
0.42502	5.51
0.44168	5.51
0.45835	5.51
0.47502	5.51
0.49168	5.51
0.50835	5.51
0.52502	5.51
0.54168	5.51
0.55835	5.51
0.57502	5.51
0.59168	5.51
0.60835	5.51
0.62502	5.51
0.64168	5.51
0.65835	5.51
0.67502	5.51
0.69168	5.51
0.70835	5.51
0.72502	5.51
0.74168	5.51
0.75835	5.51
0.77502	5.51
0.79168	5.51
0.80835	5.51
0.82502	5.51
0.84168	5.51
0.85835	5.51
0.87502	5.51
0.89168	5.51
0.90835	5.51
0.92502	5.51
0.94168	5.51
0.95835	5.51
0.97502	5.51
0.99168	5.51
1.00835	5.51
1.02502	5.51
1.04168	5.51
1.05835	5.51
1.07502	5.51
1.09168	5.51
1.10835	5.51
1.12502	5.51
1.14168	5.51
1.15835	5.51
1.17502	5.51
1.19168	5.51
1.20835	5.51
1.22502	5.51
1.24168	5.51
1.25835	5.51
1.27502	5.51
1.29168	5.51
1.30835	5.51
1.32502	5.51
1.34168	5.51
1.35835	5.51
1.37502	5.51
1.39168	5.51
1.40835	5.51
1.42502	5.51
1.44168	5.51
1.45835	5.51
1.47502	5.51
1.49168	5.51
1.50835	5.51
1.52502	5.51
1.54168	5.51
1.55835	5.51
1.57502	5.51
1.59168	5.51
1.60835	5.50
1.62502	5.50
1.64168	5.50
1.65835	5.49
1.67502	5.48
1.69168	5.47
1.70835	5.45
1.72502	5.44
1.74168	5.43
1.75835	5.42
1.77502	5.41
1.79168	5.40
1.80835	5.39
1.82502	5.38
1.84168	5.37
1.85835	5.36
1.87502	5.35
1.89168	5.34
1.90835	5.33
1.92502	5.32
1.94168	5.31
1.95835	5.30
1.97502	5.29
1.99168	5.29
2.00835	5.28
2.02502	5.27
2.04168	5.26
2.05835	5.25
2.07502	5.24
2.09168	5.23
2.10835	5.22
2.12502	5.21
2.14168	5.20
2.15835	5.19
2.17502	5.18
2.19168	5.17
2.20835	5.16
2.22502	5.15
2.24168	5.14
2.25835	5.13
2.27502	5.12
2.29168	5.12
2.30835	5.11
2.32502	5.10
2.34168	5.09
2.35835	5.08
2.37502	5.07
2.39168	5.07
2.40835	5.07
2.42502	5.07
2.44168	5.07
2.45835	5.07
2.47502	5.07
2.49168	5.07
2.50835	5.07
2.52502	5.07
2.54168	5.07
2.55835	5.07
2.57502	5.07
2.59168	5.07
2.60835	5.07
2.62502	5.07
2.64168	5.07
2.65835	5.07
2.67502	5.07
2.69168	5.07
2.70835	5.07
2.72502	5.07
2.74168	5.07
2.75835	5.07
2.77502	5.07
2.79168	5.07
2.80835	5.07
2.82502	5.07
2.84168	5.07
2.85835	5.07
2.87502	5.07
2.89168	5.07
2.90835	5.07
2.92502	5.07
2.94168	5.07
2.95835	5.07
2.97502	5.07
2.99168	5.07
3.00835	5.06
3.02502	5.06
3.04168	5.06
3.05835	5.06
3.07502	5.06
3.09168	5.06
3.10835	5.06
3.12502	5.06
3.14168	5.06
3.15835	5.06
3.17502	5.06
3.19168	5.06
3.20835	5.06
3.22502	5.06
3.24168	5.06
3.25835	5.06
3.27502	5.06
3.29168	5.06
3.30835	5.06
3.32502	5.06
3.34168	5.06
3.35835	5.06
3.37502	5.06
3.39168	5.06
3.40835	5.06
3.42502	5.06
3.44168	5.06
3.45835	5.06
3.47502	5.06
3.49168	5.06
3.50835	5.06
3.52502	5.06
3.54168	5.06
3.55835	5.06
3.57502	5.06
3.59168	5.06
3.60835	5.06
3.62502	5.06
3.64168	5.06
3.65835	5.06
3.67502	5.06
3.69168	5.06
3.70835	5.06
3.72502	5.06
3.74168	5.06
3.75835	5.06
3.77502	5.06
3.79168	5.06
3.80835	5.06
3.82502	5.06
3.84168	5.06
3.85835	5.06
3.87502	5.06
3.89168	5.06
3.90835	5.06
3.92502	5.06
3.94168	5.06
3.95835	5.06
3.97502	5.06
3.99168	5.06

[Status Trace (Linear Velocity)]
Interval(msec)	1000
# of Points	240
Start Time(min)	0.008
End Time(min)	3.992
Intensity Units	
Intensity Multiplier	1
R.Time (min)	Intensity
0.00835	39.01
0.02502	37.23
0.04168	38.39
0.05835	39.82
0.07502	39.96
0.09168	39.07
0.10835	39.00
0.12502	39.02
0.14168	39.02
0.15835	39.01
0.17502	39.01
0.19168	39.01
0.20835	39.01
0.22502	39.01
0.24168	39.01
0.25835	39.01
0.27502	39.01
0.29168	39.01
0.30835	39.01
0.32502	39.01
0.34168	39.01
0.35835	39.01
0.37502	39.01
0.39168	39.01
0.40835	39.01
0.42502	39.01
0.44168	39.01
0.45835	39.01
0.47502	39.01
0.49168	39.01
0.50835	39.01
0.52502	39.01
0.54168	39.01
0.55835	39.01
0.57502	39.01
0.59168	39.01
0.60835	39.01
0.62502	39.01
0.64168	39.01
0.65835	39.01
0.67502	39.01
0.69168	39.01
0.70835	39.01
0.72502	39.01
0.74168	39.01
0.75835	39.01
0.77502	39.01
0.79168	39.01
0.80835	39.01
0.82502	39.01
0.84168	39.01
0.85835	39.01
0.87502	39.01
0.89168	39.01
0.90835	39.01
0.92502	39.01
0.94168	39.01
0.95835	39.01
0.97502	39.01
0.99168	39.01
1.00835	39.01
1.02502	39.01
1.04168	39.01
1.05835	39.01
1.07502	39.01
1.09168	39.01
1.10835	39.01
1.12502	39.01
1.14168	39.01
1.15835	39.01
1.17502	39.01
1.19168	39.01
1.20835	39.01
1.22502	39.01
1.24168	39.01
1.25835	39.01
1.27502	39.01
1.29168	39.01
1.30835	39.01
1.32502	39.01
1.34168	39.01
1.35835	39.01
1.37502	39.01
1.39168	39.01
1.40835	39.01
1.42502	39.01
1.44168	39.01
1.45835	39.01
1.47502	39.01
1.49168	39.01
1.50835	39.01
1.52502	39.01
1.54168	39.01
1.55835	39.01
1.57502	39.01
1.59168	39.01
1.60835	39.01
1.62502	39.00
1.64168	38.98
1.65835	38.96
1.67502	38.93
1.69168	38.89
1.70835	38.86
1.72502	38.82
1.74168	38.79
1.75835	38.76
1.77502	38.73
1.79168	38.69
1.80835	38.66
1.82502	38.63
1.84168	38.60
1.85835	38.57
1.87502	38.54
1.89168	38.51
1.90835	38.48
1.92502	38.45
1.94168	38.42
1.95835	38.39
1.97502	38.36
1.99168	38.33
2.00835	38.30
2.02502	38.27
2.04168	38.24
2.05835	38.21
2.07502	38.18
2.09168	38.15
2.10835	38.12
2.12502	38.09
2.14168	38.06
2.15835	38.03
2.17502	38.00
2.19168	37.97
2.20835	37.94
2.22502	37.91
2.24168	37.88
2.25835	37.85
2.27502	37.82
2.29168	37.79
2.30835	37.76
2.32502	37.73
2.34168	37.71
2.35835	37.68
2.37502	37.66
2.39168	37.65
2.40835	37.65
2.42502	37.65
2.44168	37.65
2.45835	37.65
2.47502	37.65
2.49168	37.65
2.50835	37.64
2.52502	37.64
2.54168	37.65
2.55835	37.65
2.57502	37.65
2.59168	37.65
2.60835	37.64
2.62502	37.64
2.64168	37.64
2.65835	37.64
2.67502	37.64
2.69168	37.64
2.70835	37.64
2.72502	37.64
2.74168	37.64
2.75835	37.64
2.77502	37.64
2.79168	37.64
2.80835	37.64
2.82502	37.64
2.84168	37.64
2.85835	37.64
2.87502	37.64
2.89168	37.64
2.90835	37.64
2.92502	37.63
2.94168	37.63
2.95835	37.63
2.97502	37.63
2.99168	37.63
3.00835	37.63
3.02502	37.63
3.04168	37.63
3.05835	37.63
3.07502	37.63
3.09168	37.63
3.10835	37.63
3.12502	37.62
3.14168	37.62
3.15835	37.62
3.17502	37.62
3.19168	37.62
3.20835	37.62
3.22502	37.62
3.24168	37.62
3.25835	37.62
3.27502	37.62
3.29168	37.62
3.30835	37.62
3.32502	37.62
3.34168	37.62
3.35835	37.62
3.37502	37.62
3.39168	37.62
3.40835	37.62
3.42502	37.62
3.44168	37.62
3.45835	37.62
3.47502	37.62
3.49168	37.62
3.50835	37.62
3.52502	37.62
3.54168	37.62
3.55835	37.62
3.57502	37.62
3.59168	37.62
3.60835	37.62
3.62502	37.62
3.64168	37.62
3.65835	37.62
3.67502	37.62
3.69168	37.62
3.70835	37.62
3.72502	37.62
3.74168	37.62
3.75835	37.62
3.77502	37.62
3.79168	37.62
3.80835	37.62
3.82502	37.62
3.84168	37.62
3.85835	37.62
3.87502	37.62
3.89168	37.62
3.90835	37.62
3.92502	37.62
3.94168	37.62
3.95835	37.62
3.97502	37.62
3.99168	37.62

