[Header]
Application Name	LabSolutions
Version	5.110
Data File Name	C:\Users\User\Desktop\Junior\UIC Prairie Sampling\7.18.23\071823_030.gcd
Output Date	8/29/2023
Output Time	10:40:21 AM

[File Information]
Type	Data File
Generated	8/28/2023 5:32:33 PM
Generated by	System Administrator
Modified	8/28/2023 5:39:09 PM
Modified by	System Administrator

[Sample Information]
Operator Name	System Administrator
Acquired	8/28/2023 5:35:08 PM
Sample Type	0:Unknown
Level	0
Sample Name	030
Sample ID	030
ISTD Amount1	1
ISTD Amount2	1
ISTD Amount3	1
ISTD Amount4	1
ISTD Amount5	1
ISTD Amount6	1
ISTD Amount7	1
ISTD Amount8	1
ISTD Amount9	1
ISTD Amount10	1
ISTD Amount11	1
ISTD Amount12	1
ISTD Amount13	1
ISTD Amount14	1
ISTD Amount15	1
ISTD Amount16	1
ISTD Amount17	1
ISTD Amount18	1
ISTD Amount19	1
ISTD Amount20	1
ISTD Amount21	1
ISTD Amount22	1
ISTD Amount23	1
ISTD Amount24	1
ISTD Amount25	1
ISTD Amount26	1
ISTD Amount27	1
ISTD Amount28	1
ISTD Amount29	1
ISTD Amount30	1
ISTD Amount31	1
ISTD Amount32	1
Sample Amount	1
Dilution Factor	1
Vial#	29
Injection Volume	1
Injection Count	1
Bar Code	

[Original Files]
Data File	C:\Users\User\Desktop\Junior\UIC Prairie Sampling\7.18.23\071823_030.gcd
Method File	C:\LabSolutions\Data\GHG_4min_2022\ghg3_togas_w_acet_4 min_new_int.gcm
Batch File	C:\LabSolutions\Data\BATCH FILES\071823.gcb
Report Format File	c:\LabSolutions\System\DEFAULT.lsr

[File Description]


[Configuration]
Instrument Name	C0B7VH3-Instrument1
Instrument #	1
Line #	1
# of Detectors	3
Detector ID	DET#1	DET#2	DET#3
Detector Name	FID	PTCD	ECD
# of Channels	1	1	1

[Peak Table(Ch1)]
# of Peaks	3
Peak#	R.Time	I.Time	F.Time	Area	Height	A/H	Conc.	Mark	ID#	Name	k'	Plate #	Plate Ht.	Tailing	Resolution	Sep.Factor	Area Ratio	Height Ratio	Conc. %	Norm Conc.
1	1.472	1.435	1.531	17915	8965	1.998	0.000	   	1	CO	0.000	10027	14.959	1.286	0.000	0.000	0	0	0.000	0.000
2	1.564	1.531	1.619	4475	2274	1.968	21.819	 V 	2	CH4	0.062	11392	13.167	1.115	1.562	0.000	0	0	7.265	7.265
3	1.989	1.941	2.499	1445086	693351	2.084	278.495	   	3	CO2	0.351	17730	8.460	1.339	7.188	5.640	0	0	92.735	92.735

[Peak Table(Ch2)]
# of Peaks	0

[Peak Table(Ch3)]
# of Peaks	4
Peak#	R.Time	I.Time	F.Time	Area	Height	A/H	Conc.	Mark	ID#	Name	k'	Plate #	Plate Ht.	Tailing	Resolution	Sep.Factor	Area Ratio	Height Ratio	Conc. %	Norm Conc.
1	2.458	2.440	2.546	513	181	2.834	0.000	   			0.000	22243	6.744	2.871	0.000	0.000	0	0	0.000	0.000
2	2.616	2.565	2.671	239	76	3.124	0.000	   			0.064	14378	10.433	1.030	2.058	0.000	0	0	0.000	0.000
3	2.891	2.697	2.994	14901	3799	3.922	0.220	   	1	N2O	0.176	13161	11.397	1.531	2.924	2.744	0	0	100.000	100.000
4	3.067	2.997	3.995	27116	1025	26.466	0.000	   	2	SF6	0.248	268	558.999	7.033	0.414	1.407	0	0	0.000	0.000

[Compound Results(Ch1)]
# of IDs	6
ID#	Name	R.Time	Area	Height	Conc.	Curve	3rd	2nd	1st	Constant	Area Ratio	Height Ratio	Conc. %	Norm Conc.
1	CO	1.472	17915	8965	0.000	Linear	0.000000e+00	0.000000e+00	0.000000e+00	0.000000e+00	0	0	0.000	0.000
2	CH4	1.564	4475	2274	21.819	Linear	0.000000e+00	0.000000e+00	2.051179e+002	0.000000e+00	0	0	7.265	7.265
3	CO2	1.989	1445086	693351	278.495	Linear	0.000000e+00	0.000000e+00	5.188919e+003	0.000000e+00	0	0	92.735	92.735
4	Ethylene	0.000	0	0	0.000	Linear	0.000000e+00	0.000000e+00	0.000000e+00	0.000000e+00	0	0	0.000	0.000
5	Acetylene	0.000	0	0	0.000	Linear	0.000000e+00	0.000000e+00	0.000000e+00	0.000000e+00	0	0	0.000	0.000
6	Ethane	0.000	0	0	0.000	Linear	0.000000e+00	0.000000e+00	0.000000e+00	0.000000e+00	0	0	0.000	0.000

[Compound Results(Ch2)]
# of IDs	5
ID#	Name	R.Time	Area	Height	Conc.	Curve	3rd	2nd	1st	Constant	Area Ratio	Height Ratio	Conc. %	Norm Conc.
1	Hydrogen	0.000	0	0	0.000	Linear	0.000000e+00	0.000000e+00	0.000000e+00	0.000000e+00	0	0	0.000	0.000
2	Oxygen	0.000	0	0	0.000	Linear	0.000000e+00	0.000000e+00	0.000000e+00	0.000000e+00	0	0	0.000	0.000
3	Nitrogen	0.000	0	0	0.000	Linear	0.000000e+00	0.000000e+00	0.000000e+00	0.000000e+00	0	0	0.000	0.000
4	Methane	0.000	0	0	0.000	Linear	0.000000e+00	0.000000e+00	0.000000e+00	0.000000e+00	0	0	0.000	0.000
5	Carbon Monoxide	0.000	0	0	0.000	Linear	0.000000e+00	0.000000e+00	0.000000e+00	0.000000e+00	0	0	0.000	0.000

[Compound Results(Ch3)]
# of IDs	2
ID#	Name	R.Time	Area	Height	Conc.	Curve	3rd	2nd	1st	Constant	Area Ratio	Height Ratio	Conc. %	Norm Conc.
1	N2O	2.891	14901	3799	0.220	Linear	0.000000e+00	0.000000e+00	6.759880e+004	0.000000e+00	0	0	100.000	100.000
2	SF6	3.067	27116	1025	0.000	Linear	0.000000e+00	0.000000e+00	0.000000e+00	0.000000e+00	0	0	0.000	0.000

[Group Results(Ch1)]
# of Groups	0

[Group Results(Ch2)]
# of Groups	0

[Group Results(Ch3)]
# of Groups	0

[Chromatogram (Ch1)]
Interval(msec)	220
# of Points	1091
Start Time(min)	0.002
End Time(min)	3.998
R.Time (min)	Intensity
0.00167	11
0.00533	7
0.00900	5
0.01267	6
0.01633	8
0.02000	7
0.02367	5
0.02733	3
0.03100	-0
0.03467	-1
0.03833	-1
0.04200	0
0.04567	-0
0.04933	1
0.05300	5
0.05667	7
0.06033	7
0.06400	7
0.06767	7
0.07133	7
0.07500	8
0.07867	7
0.08233	7
0.08600	10
0.08967	13
0.09333	18
0.09700	23
0.10067	25
0.10433	22
0.10800	16
0.11167	12
0.11533	11
0.11900	8
0.12267	5
0.12633	1
0.13000	-7
0.13367	-13
0.13733	-17
0.14100	-18
0.14467	-13
0.14833	-4
0.15200	4
0.15567	10
0.15933	13
0.16300	14
0.16667	16
0.17033	17
0.17400	15
0.17767	12
0.18133	10
0.18500	10
0.18867	11
0.19233	10
0.19600	8
0.19967	8
0.20333	8
0.20700	7
0.21067	4
0.21433	-2
0.21800	-9
0.22167	-14
0.22533	-17
0.22900	-14
0.23267	-5
0.23633	5
0.24000	15
0.24367	24
0.24733	30
0.25100	31
0.25467	29
0.25833	26
0.26200	24
0.26567	20
0.26933	14
0.27300	7
0.27667	4
0.28033	5
0.28400	7
0.28767	12
0.29133	20
0.29500	28
0.29867	35
0.30233	40
0.30600	43
0.30967	47
0.31333	47
0.31700	43
0.32067	36
0.32433	27
0.32800	21
0.33167	20
0.33533	25
0.33900	31
0.34267	35
0.34633	37
0.35000	36
0.35367	34
0.35733	29
0.36100	25
0.36467	22
0.36833	21
0.37200	19
0.37567	18
0.37933	18
0.38300	19
0.38667	21
0.39033	23
0.39400	23
0.39767	22
0.40133	19
0.40500	16
0.40867	13
0.41233	13
0.41600	15
0.41967	14
0.42333	12
0.42700	11
0.43067	7
0.43433	3
0.43800	2
0.44167	5
0.44533	9
0.44900	12
0.45267	16
0.45633	20
0.46000	21
0.46367	20
0.46733	20
0.47100	19
0.47467	17
0.47833	12
0.48200	9
0.48567	12
0.48933	19
0.49300	20
0.49667	20
0.50033	18
0.50400	16
0.50767	15
0.51133	15
0.51500	16
0.51867	15
0.52233	11
0.52600	9
0.52967	8
0.53333	10
0.53700	12
0.54067	14
0.54433	14
0.54800	14
0.55167	15
0.55533	15
0.55900	14
0.56267	14
0.56633	14
0.57000	8
0.57367	1
0.57733	1
0.58100	7
0.58467	14
0.58833	21
0.59200	25
0.59567	25
0.59933	22
0.60300	15
0.60667	11
0.61033	10
0.61400	10
0.61767	11
0.62133	10
0.62500	7
0.62867	5
0.63233	4
0.63600	1
0.63967	-4
0.64333	-6
0.64700	-3
0.65067	2
0.65433	7
0.65800	10
0.66167	11
0.66533	10
0.66900	6
0.67267	1
0.67633	-6
0.68000	-12
0.68367	-12
0.68733	-9
0.69100	-7
0.69467	-8
0.69833	-6
0.70200	-2
0.70567	2
0.70933	4
0.71300	5
0.71667	4
0.72033	6
0.72400	10
0.72767	11
0.73133	11
0.73500	10
0.73867	10
0.74233	11
0.74600	8
0.74967	-0
0.75333	-10
0.75700	-17
0.76067	-20
0.76433	-21
0.76800	-18
0.77167	-14
0.77533	-10
0.77900	-5
0.78267	-3
0.78633	-5
0.79000	-6
0.79367	-6
0.79733	-7
0.80100	-9
0.80467	-12
0.80833	-13
0.81200	-12
0.81567	-9
0.81933	-8
0.82300	-10
0.82667	-13
0.83033	-15
0.83400	-16
0.83767	-14
0.84133	-11
0.84500	-8
0.84867	-4
0.85233	-1
0.85600	-3
0.85967	-10
0.86333	-16
0.86700	-17
0.87067	-14
0.87433	-8
0.87800	-2
0.88167	1
0.88533	1
0.88900	4
0.89267	8
0.89633	10
0.90000	10
0.90367	6
0.90733	3
0.91100	4
0.91467	7
0.91833	9
0.92200	9
0.92567	8
0.92933	8
0.93300	5
0.93667	-0
0.94033	-5
0.94400	-8
0.94767	-9
0.95133	-10
0.95500	-8
0.95867	-5
0.96233	-4
0.96600	-5
0.96967	-5
0.97333	-5
0.97700	-7
0.98067	-12
0.98433	-14
0.98800	-13
0.99167	-13
0.99533	-12
0.99900	-10
1.00267	-8
1.00633	-6
1.01000	-5
1.01367	-8
1.01733	-12
1.02100	-15
1.02467	-18
1.02833	-18
1.03200	-15
1.03567	-10
1.03933	-6
1.04300	-4
1.04667	-2
1.05033	-1
1.05400	0
1.05767	-1
1.06133	-2
1.06500	-5
1.06867	-9
1.07233	-12
1.07600	-14
1.07967	-15
1.08333	-14
1.08700	-14
1.09067	-15
1.09433	-16
1.09800	-18
1.10167	-20
1.10533	-19
1.10900	-20
1.11267	-23
1.11633	-23
1.12000	-17
1.12367	-10
1.12733	-3
1.13100	1
1.13467	0
1.13833	-3
1.14200	-7
1.14567	-10
1.14933	-13
1.15300	-14
1.15667	-13
1.16033	-11
1.16400	-12
1.16767	-13
1.17133	-13
1.17500	-12
1.17867	-11
1.18233	-9
1.18600	-7
1.18967	-6
1.19333	-6
1.19700	-6
1.20067	-7
1.20433	-7
1.20800	-9
1.21167	-10
1.21533	-11
1.21900	-11
1.22267	-11
1.22633	-14
1.23000	-19
1.23367	-19
1.23733	-17
1.24100	-16
1.24467	-17
1.24833	-18
1.25200	-20
1.25567	-20
1.25933	-19
1.26300	-19
1.26667	-21
1.27033	-23
1.27400	-21
1.27767	-18
1.28133	-14
1.28500	-8
1.28867	-3
1.29233	-3
1.29600	-7
1.29967	-15
1.30333	-23
1.30700	-29
1.31067	-30
1.31433	-29
1.31800	-26
1.32167	-21
1.32533	-15
1.32900	-11
1.33267	-11
1.33633	-14
1.34000	-15
1.34367	-13
1.34733	-11
1.35100	-7
1.35467	-0
1.35833	5
1.36200	6
1.36567	5
1.36933	3
1.37300	4
1.37667	1
1.38033	-9
1.38400	-21
1.38767	-27
1.39133	-24
1.39500	-17
1.39867	-8
1.40233	-2
1.40600	-1
1.40967	-4
1.41333	-8
1.41700	-14
1.42067	-19
1.42433	-20
1.42800	-19
1.43167	-18
1.43533	-16
1.43900	-1
1.44267	70
1.44633	422
1.45000	1403
1.45367	3009
1.45733	4853
1.46100	6545
1.46467	7864
1.46833	8701
1.47200	8951
1.47567	8551
1.47933	7577
1.48300	6249
1.48667	4850
1.49033	3594
1.49400	2578
1.49767	1809
1.50133	1257
1.50500	874
1.50867	614
1.51233	435
1.51600	312
1.51967	229
1.52333	169
1.52700	126
1.53067	99
1.53433	103
1.53800	190
1.54167	422
1.54533	798
1.54900	1240
1.55267	1655
1.55633	1985
1.56000	2199
1.56367	2265
1.56733	2161
1.57100	1900
1.57467	1544
1.57833	1172
1.58200	845
1.58567	587
1.58933	395
1.59300	261
1.59667	168
1.60033	104
1.60400	56
1.60767	25
1.61133	8
1.61500	-1
1.61867	-7
1.62233	-8
1.62600	-3
1.62967	-1
1.63333	-1
1.63700	-4
1.64067	-8
1.64433	-16
1.64800	-25
1.65167	-31
1.65533	-34
1.65900	-32
1.66267	-27
1.66633	-19
1.67000	-11
1.67367	-6
1.67733	-4
1.68100	-2
1.68467	-1
1.68833	-3
1.69200	-6
1.69567	-12
1.69933	-14
1.70300	-16
1.70667	-16
1.71033	-17
1.71400	-16
1.71767	-17
1.72133	-20
1.72500	-22
1.72867	-21
1.73233	-15
1.73600	-10
1.73967	-6
1.74333	-3
1.74700	0
1.75067	1
1.75433	-4
1.75800	-14
1.76167	-22
1.76533	-26
1.76900	-28
1.77267	-26
1.77633	-23
1.78000	-20
1.78367	-18
1.78733	-19
1.79100	-22
1.79467	-23
1.79833	-20
1.80200	-16
1.80567	-13
1.80933	-10
1.81300	-9
1.81667	-9
1.82033	-8
1.82400	-8
1.82767	-10
1.83133	-10
1.83500	-10
1.83867	-11
1.84233	-15
1.84600	-21
1.84967	-27
1.85333	-31
1.85700	-34
1.86067	-34
1.86433	-29
1.86800	-20
1.87167	-13
1.87533	-12
1.87900	-14
1.88267	-18
1.88633	-20
1.89000	-19
1.89367	-18
1.89733	-16
1.90100	-17
1.90467	-19
1.90833	-21
1.91200	-22
1.91567	-18
1.91933	-14
1.92300	-14
1.92667	-17
1.93033	-17
1.93400	-12
1.93767	-7
1.94133	-3
1.94500	10
1.94867	81
1.95233	501
1.95600	2606
1.95967	10592
1.96333	33481
1.96700	84122
1.97067	171572
1.97433	291586
1.97800	425842
1.98167	550505
1.98533	644510
1.98900	693375
1.99267	690624
1.99633	639638
2.00000	553049
2.00367	449148
2.00733	345749
2.01100	255083
2.01467	182490
2.01833	128040
2.02200	89030
2.02567	61939
2.02933	43494
2.03300	31063
2.03667	22711
2.04033	17079
2.04400	13242
2.04767	10593
2.05133	8728
2.05500	7383
2.05867	6384
2.06233	5619
2.06600	5015
2.06967	4530
2.07333	4135
2.07700	3810
2.08067	3538
2.08433	3305
2.08800	3104
2.09167	2925
2.09533	2763
2.09900	2618
2.10267	2490
2.10633	2374
2.11000	2266
2.11367	2167
2.11733	2074
2.12100	1986
2.12467	1907
2.12833	1831
2.13200	1755
2.13567	1684
2.13933	1621
2.14300	1569
2.14667	1524
2.15033	1480
2.15400	1435
2.15767	1392
2.16133	1353
2.16500	1317
2.16867	1281
2.17233	1245
2.17600	1207
2.17967	1169
2.18333	1132
2.18700	1097
2.19067	1064
2.19433	1037
2.19800	1015
2.20167	992
2.20533	971
2.20900	952
2.21267	933
2.21633	915
2.22000	896
2.22367	874
2.22733	850
2.23100	828
2.23467	808
2.23833	789
2.24200	769
2.24567	753
2.24933	744
2.25300	733
2.25667	715
2.26033	694
2.26400	676
2.26767	661
2.27133	649
2.27500	639
2.27867	631
2.28233	622
2.28600	613
2.28967	604
2.29333	598
2.29700	593
2.30067	586
2.30433	576
2.30800	566
2.31167	560
2.31533	557
2.31900	551
2.32267	541
2.32633	529
2.33000	517
2.33367	508
2.33733	502
2.34100	497
2.34467	491
2.34833	485
2.35200	479
2.35567	472
2.35933	463
2.36300	458
2.36667	453
2.37033	449
2.37400	443
2.37767	437
2.38133	430
2.38500	422
2.38867	414
2.39233	404
2.39600	395
2.39967	391
2.40333	390
2.40700	388
2.41067	383
2.41433	377
2.41800	373
2.42167	371
2.42533	368
2.42900	369
2.43267	375
2.43633	379
2.44000	378
2.44367	377
2.44733	371
2.45100	361
2.45467	352
2.45833	345
2.46200	340
2.46567	337
2.46933	337
2.47300	333
2.47667	326
2.48033	321
2.48400	315
2.48767	311
2.49133	308
2.49500	304
2.49867	304
2.50233	308
2.50600	312
2.50967	313
2.51333	312
2.51700	312
2.52067	315
2.52433	316
2.52800	313
2.53167	309
2.53533	306
2.53900	302
2.54267	295
2.54633	286
2.55000	277
2.55367	270
2.55733	265
2.56100	262
2.56467	261
2.56833	258
2.57200	255
2.57567	255
2.57933	254
2.58300	248
2.58667	241
2.59033	237
2.59400	239
2.59767	240
2.60133	238
2.60500	237
2.60867	237
2.61233	240
2.61600	241
2.61967	239
2.62333	234
2.62700	230
2.63067	225
2.63433	221
2.63800	220
2.64167	222
2.64533	222
2.64900	220
2.65267	217
2.65633	211
2.66000	205
2.66367	199
2.66733	197
2.67100	200
2.67467	203
2.67833	202
2.68200	194
2.68567	187
2.68933	184
2.69300	185
2.69667	191
2.70033	199
2.70400	205
2.70767	207
2.71133	207
2.71500	205
2.71867	199
2.72233	191
2.72600	182
2.72967	176
2.73333	171
2.73700	162
2.74067	153
2.74433	150
2.74800	152
2.75167	154
2.75533	161
2.75900	169
2.76267	175
2.76633	178
2.77000	181
2.77367	184
2.77733	181
2.78100	177
2.78467	173
2.78833	167
2.79200	165
2.79567	165
2.79933	164
2.80300	164
2.80667	165
2.81033	165
2.81400	164
2.81767	162
2.82133	161
2.82500	160
2.82867	157
2.83233	153
2.83600	147
2.83967	144
2.84333	143
2.84700	143
2.85067	145
2.85433	146
2.85800	144
2.86167	143
2.86533	141
2.86900	136
2.87267	133
2.87633	131
2.88000	132
2.88367	135
2.88733	137
2.89100	137
2.89467	134
2.89833	129
2.90200	125
2.90567	124
2.90933	121
2.91300	121
2.91667	123
2.92033	123
2.92400	124
2.92767	122
2.93133	121
2.93500	118
2.93867	113
2.94233	108
2.94600	108
2.94967	114
2.95333	123
2.95700	129
2.96067	129
2.96433	124
2.96800	118
2.97167	110
2.97533	105
2.97900	104
2.98267	105
2.98633	103
2.99000	99
2.99367	96
2.99733	95
3.00100	96
3.00467	96
3.00833	96
3.01200	101
3.01567	108
3.01933	115
3.02300	117
3.02667	113
3.03033	106
3.03400	98
3.03767	93
3.04133	90
3.04500	90
3.04867	93
3.05233	96
3.05600	100
3.05967	101
3.06333	98
3.06700	95
3.07067	93
3.07433	96
3.07800	99
3.08167	97
3.08533	90
3.08900	85
3.09267	85
3.09633	87
3.10000	86
3.10367	79
3.10733	68
3.11100	58
3.11467	53
3.11833	52
3.12200	53
3.12567	56
3.12933	59
3.13300	64
3.13667	69
3.14033	77
3.14400	82
3.14767	83
3.15133	82
3.15500	80
3.15867	76
3.16233	71
3.16600	64
3.16967	61
3.17333	62
3.17700	62
3.18067	61
3.18433	62
3.18800	66
3.19167	69
3.19533	70
3.19900	68
3.20267	66
3.20633	63
3.21000	61
3.21367	60
3.21733	58
3.22100	58
3.22467	62
3.22833	67
3.23200	69
3.23567	68
3.23933	66
3.24300	67
3.24667	67
3.25033	65
3.25400	61
3.25767	59
3.26133	58
3.26500	58
3.26867	57
3.27233	54
3.27600	51
3.27967	47
3.28333	46
3.28700	45
3.29067	47
3.29433	50
3.29800	53
3.30167	56
3.30533	60
3.30900	63
3.31267	65
3.31633	64
3.32000	61
3.32367	57
3.32733	53
3.33100	49
3.33467	46
3.33833	44
3.34200	40
3.34567	36
3.34933	34
3.35300	35
3.35667	36
3.36033	34
3.36400	32
3.36767	31
3.37133	30
3.37500	29
3.37867	30
3.38233	34
3.38600	41
3.38967	47
3.39333	49
3.39700	52
3.40067	55
3.40433	55
3.40800	56
3.41167	57
3.41533	58
3.41900	59
3.42267	61
3.42633	60
3.43000	55
3.43367	49
3.43733	41
3.44100	39
3.44467	41
3.44833	44
3.45200	46
3.45567	42
3.45933	35
3.46300	30
3.46667	31
3.47033	37
3.47400	48
3.47767	58
3.48133	69
3.48500	73
3.48867	69
3.49233	63
3.49600	57
3.49967	52
3.50333	52
3.50700	54
3.51067	57
3.51433	59
3.51800	59
3.52167	59
3.52533	59
3.52900	58
3.53267	56
3.53633	53
3.54000	49
3.54367	47
3.54733	45
3.55100	46
3.55467	47
3.55833	50
3.56200	55
3.56567	59
3.56933	61
3.57300	60
3.57667	59
3.58033	56
3.58400	51
3.58767	44
3.59133	38
3.59500	33
3.59867	28
3.60233	22
3.60600	24
3.60967	36
3.61333	46
3.61700	49
3.62067	47
3.62433	44
3.62800	39
3.63167	35
3.63533	34
3.63900	34
3.64267	33
3.64633	32
3.65000	32
3.65367	33
3.65733	34
3.66100	36
3.66467	39
3.66833	41
3.67200	42
3.67567	44
3.67933	44
3.68300	44
3.68667	43
3.69033	42
3.69400	40
3.69767	41
3.70133	42
3.70500	40
3.70867	35
3.71233	30
3.71600	32
3.71967	37
3.72333	39
3.72700	37
3.73067	36
3.73433	36
3.73800	36
3.74167	36
3.74533	33
3.74900	26
3.75267	22
3.75633	19
3.76000	17
3.76367	18
3.76733	22
3.77100	30
3.77467	38
3.77833	45
3.78200	45
3.78567	44
3.78933	43
3.79300	41
3.79667	39
3.80033	34
3.80400	27
3.80767	21
3.81133	21
3.81500	23
3.81867	23
3.82233	27
3.82600	31
3.82967	33
3.83333	35
3.83700	35
3.84067	33
3.84433	27
3.84800	21
3.85167	18
3.85533	17
3.85900	18
3.86267	20
3.86633	23
3.87000	26
3.87367	28
3.87733	25
3.88100	22
3.88467	22
3.88833	23
3.89200	25
3.89567	26
3.89933	29
3.90300	32
3.90667	35
3.91033	32
3.91400	27
3.91767	24
3.92133	24
3.92500	24
3.92867	26
3.93233	27
3.93600	24
3.93967	21
3.94333	17
3.94700	16
3.95067	17
3.95433	16
3.95800	14
3.96167	9
3.96533	3
3.96900	0
3.97267	2
3.97633	7
3.98000	11
3.98367	13
3.98733	11
3.99100	7
3.99467	6
3.99833	8

[Chromatogram (Ch2)]
Interval(msec)	220
# of Points	1091
Start Time(min)	0.002
End Time(min)	3.998
R.Time (min)	Intensity
0.00167	0
0.00533	0
0.00900	0
0.01267	-0
0.01633	-0
0.02000	-0
0.02367	-0
0.02733	-0
0.03100	-0
0.03467	-0
0.03833	-0
0.04200	-0
0.04567	-0
0.04933	-1
0.05300	-1
0.05667	-1
0.06033	-1
0.06400	-1
0.06767	-1
0.07133	-1
0.07500	-0
0.07867	-0
0.08233	-0
0.08600	-0
0.08967	-0
0.09333	-0
0.09700	-1
0.10067	-0
0.10433	-0
0.10800	-0
0.11167	-0
0.11533	-0
0.11900	-0
0.12267	-0
0.12633	-1
0.13000	-1
0.13367	-1
0.13733	-1
0.14100	-1
0.14467	-1
0.14833	-1
0.15200	-1
0.15567	-1
0.15933	-2
0.16300	-2
0.16667	-2
0.17033	-2
0.17400	-2
0.17767	-2
0.18133	-2
0.18500	-2
0.18867	-2
0.19233	-2
0.19600	-2
0.19967	-2
0.20333	-1
0.20700	-1
0.21067	-1
0.21433	-1
0.21800	-1
0.22167	-1
0.22533	-1
0.22900	-1
0.23267	-1
0.23633	-1
0.24000	-1
0.24367	-1
0.24733	-1
0.25100	-1
0.25467	-1
0.25833	-1
0.26200	-1
0.26567	-2
0.26933	-2
0.27300	-2
0.27667	-2
0.28033	-2
0.28400	-2
0.28767	-3
0.29133	-3
0.29500	-2
0.29867	-2
0.30233	-2
0.30600	-1
0.30967	-1
0.31333	-1
0.31700	-1
0.32067	-1
0.32433	-2
0.32800	-2
0.33167	-2
0.33533	-2
0.33900	-2
0.34267	-2
0.34633	-2
0.35000	-2
0.35367	-2
0.35733	-2
0.36100	-2
0.36467	-2
0.36833	-2
0.37200	-2
0.37567	-2
0.37933	-2
0.38300	-2
0.38667	-2
0.39033	-2
0.39400	-2
0.39767	-2
0.40133	-2
0.40500	-2
0.40867	-2
0.41233	-2
0.41600	-2
0.41967	-2
0.42333	-2
0.42700	-2
0.43067	-2
0.43433	-2
0.43800	-2
0.44167	-2
0.44533	-2
0.44900	-2
0.45267	-2
0.45633	-2
0.46000	-2
0.46367	-2
0.46733	-2
0.47100	-2
0.47467	-1
0.47833	-1
0.48200	-1
0.48567	-1
0.48933	-1
0.49300	-1
0.49667	-1
0.50033	-1
0.50400	-1
0.50767	-1
0.51133	-1
0.51500	-1
0.51867	-1
0.52233	-1
0.52600	-1
0.52967	-1
0.53333	-1
0.53700	-1
0.54067	-1
0.54433	-1
0.54800	-1
0.55167	-2
0.55533	-2
0.55900	-2
0.56267	-2
0.56633	-2
0.57000	-2
0.57367	-2
0.57733	-3
0.58100	-3
0.58467	-2
0.58833	-2
0.59200	-2
0.59567	-2
0.59933	-2
0.60300	-2
0.60667	-2
0.61033	-1
0.61400	-1
0.61767	-1
0.62133	-1
0.62500	-1
0.62867	-1
0.63233	-1
0.63600	-1
0.63967	-1
0.64333	-1
0.64700	-2
0.65067	-2
0.65433	-2
0.65800	-2
0.66167	-2
0.66533	-3
0.66900	-3
0.67267	-3
0.67633	-3
0.68000	-3
0.68367	-3
0.68733	-3
0.69100	-3
0.69467	-3
0.69833	-3
0.70200	-3
0.70567	-3
0.70933	-3
0.71300	-3
0.71667	-3
0.72033	-2
0.72400	-2
0.72767	-2
0.73133	-2
0.73500	-2
0.73867	-2
0.74233	-2
0.74600	-2
0.74967	-2
0.75333	-2
0.75700	-3
0.76067	-2
0.76433	-2
0.76800	-2
0.77167	-2
0.77533	-3
0.77900	-3
0.78267	-3
0.78633	-3
0.79000	-3
0.79367	-3
0.79733	-3
0.80100	-3
0.80467	-3
0.80833	-2
0.81200	-2
0.81567	-2
0.81933	-2
0.82300	-2
0.82667	-3
0.83033	-2
0.83400	-2
0.83767	-2
0.84133	-2
0.84500	-2
0.84867	-2
0.85233	-2
0.85600	-2
0.85967	-2
0.86333	-3
0.86700	-3
0.87067	-2
0.87433	-2
0.87800	-2
0.88167	-2
0.88533	-2
0.88900	-2
0.89267	-2
0.89633	-3
0.90000	-3
0.90367	-3
0.90733	-3
0.91100	-3
0.91467	-3
0.91833	-3
0.92200	-3
0.92567	-3
0.92933	-3
0.93300	-2
0.93667	-2
0.94033	-2
0.94400	-2
0.94767	-2
0.95133	-2
0.95500	-2
0.95867	-2
0.96233	-2
0.96600	-2
0.96967	-2
0.97333	-3
0.97700	-3
0.98067	-3
0.98433	-2
0.98800	-3
0.99167	-3
0.99533	-3
0.99900	-3
1.00267	-3
1.00633	-3
1.01000	-3
1.01367	-3
1.01733	-3
1.02100	-3
1.02467	-3
1.02833	-3
1.03200	-3
1.03567	-3
1.03933	-2
1.04300	-2
1.04667	-3
1.05033	-2
1.05400	-2
1.05767	-2
1.06133	-2
1.06500	-2
1.06867	-2
1.07233	-2
1.07600	-2
1.07967	-2
1.08333	-2
1.08700	-2
1.09067	-3
1.09433	-3
1.09800	-3
1.10167	-4
1.10533	-4
1.10900	-4
1.11267	-4
1.11633	-4
1.12000	-3
1.12367	-4
1.12733	-4
1.13100	-4
1.13467	-4
1.13833	-4
1.14200	-4
1.14567	-4
1.14933	-4
1.15300	-4
1.15667	-4
1.16033	-4
1.16400	-4
1.16767	-4
1.17133	-3
1.17500	-3
1.17867	-3
1.18233	-3
1.18600	-3
1.18967	-3
1.19333	-3
1.19700	-3
1.20067	-3
1.20433	-3
1.20800	-3
1.21167	-3
1.21533	-2
1.21900	-2
1.22267	-2
1.22633	-2
1.23000	-2
1.23367	-2
1.23733	-2
1.24100	-2
1.24467	-3
1.24833	-3
1.25200	-3
1.25567	-3
1.25933	-3
1.26300	-3
1.26667	-3
1.27033	-3
1.27400	-3
1.27767	-3
1.28133	-3
1.28500	-3
1.28867	-3
1.29233	-3
1.29600	-3
1.29967	-3
1.30333	-3
1.30700	-3
1.31067	-3
1.31433	-2
1.31800	-2
1.32167	-2
1.32533	-2
1.32900	-2
1.33267	-2
1.33633	-2
1.34000	-2
1.34367	-3
1.34733	-3
1.35100	-3
1.35467	-3
1.35833	-3
1.36200	-3
1.36567	-3
1.36933	-3
1.37300	-3
1.37667	-3
1.38033	-3
1.38400	-3
1.38767	-3
1.39133	-3
1.39500	-3
1.39867	-3
1.40233	-3
1.40600	-2
1.40967	-2
1.41333	-2
1.41700	-2
1.42067	-2
1.42433	-3
1.42800	-3
1.43167	-3
1.43533	-3
1.43900	-3
1.44267	-3
1.44633	-3
1.45000	-3
1.45367	-4
1.45733	-4
1.46100	-4
1.46467	-4
1.46833	-4
1.47200	-4
1.47567	-3
1.47933	-3
1.48300	-3
1.48667	-3
1.49033	-3
1.49400	-3
1.49767	-3
1.50133	-3
1.50500	-3
1.50867	-3
1.51233	-3
1.51600	-3
1.51967	-3
1.52333	-3
1.52700	-3
1.53067	-3
1.53433	-3
1.53800	-3
1.54167	-4
1.54533	-4
1.54900	-4
1.55267	-4
1.55633	-4
1.56000	-4
1.56367	-4
1.56733	-4
1.57100	-4
1.57467	-4
1.57833	-4
1.58200	-4
1.58567	-4
1.58933	-4
1.59300	-5
1.59667	-5
1.60033	-6
1.60400	-6
1.60767	-8
1.61133	-9
1.61500	-11
1.61867	-13
1.62233	-16
1.62600	-19
1.62967	-22
1.63333	-25
1.63700	-28
1.64067	-31
1.64433	-34
1.64800	-38
1.65167	-41
1.65533	-44
1.65900	-47
1.66267	-51
1.66633	-55
1.67000	-60
1.67367	-65
1.67733	-70
1.68100	-74
1.68467	-78
1.68833	-82
1.69200	-86
1.69567	-88
1.69933	-91
1.70300	-93
1.70667	-94
1.71033	-95
1.71400	-96
1.71767	-97
1.72133	-97
1.72500	-97
1.72867	-97
1.73233	-97
1.73600	-96
1.73967	-96
1.74333	-95
1.74700	-95
1.75067	-95
1.75433	-95
1.75800	-95
1.76167	-96
1.76533	-97
1.76900	-97
1.77267	-98
1.77633	-99
1.78000	-100
1.78367	-101
1.78733	-101
1.79100	-102
1.79467	-102
1.79833	-102
1.80200	-102
1.80567	-102
1.80933	-102
1.81300	-102
1.81667	-101
1.82033	-100
1.82400	-100
1.82767	-99
1.83133	-98
1.83500	-98
1.83867	-98
1.84233	-98
1.84600	-98
1.84967	-98
1.85333	-99
1.85700	-98
1.86067	-98
1.86433	-98
1.86800	-98
1.87167	-99
1.87533	-99
1.87900	-99
1.88267	-99
1.88633	-99
1.89000	-99
1.89367	-99
1.89733	-99
1.90100	-98
1.90467	-98
1.90833	-98
1.91200	-98
1.91567	-98
1.91933	-98
1.92300	-98
1.92667	-98
1.93033	-98
1.93400	-98
1.93767	-98
1.94133	-98
1.94500	-98
1.94867	-98
1.95233	-97
1.95600	-97
1.95967	-97
1.96333	-96
1.96700	-96
1.97067	-95
1.97433	-95
1.97800	-95
1.98167	-95
1.98533	-95
1.98900	-95
1.99267	-94
1.99633	-94
2.00000	-94
2.00367	-93
2.00733	-93
2.01100	-92
2.01467	-92
2.01833	-91
2.02200	-91
2.02567	-91
2.02933	-91
2.03300	-91
2.03667	-91
2.04033	-91
2.04400	-91
2.04767	-91
2.05133	-91
2.05500	-90
2.05867	-90
2.06233	-90
2.06600	-90
2.06967	-90
2.07333	-90
2.07700	-90
2.08067	-89
2.08433	-89
2.08800	-89
2.09167	-88
2.09533	-88
2.09900	-88
2.10267	-88
2.10633	-87
2.11000	-87
2.11367	-86
2.11733	-85
2.12100	-84
2.12467	-83
2.12833	-82
2.13200	-82
2.13567	-81
2.13933	-80
2.14300	-80
2.14667	-80
2.15033	-80
2.15400	-81
2.15767	-81
2.16133	-81
2.16500	-81
2.16867	-81
2.17233	-81
2.17600	-81
2.17967	-81
2.18333	-81
2.18700	-80
2.19067	-80
2.19433	-80
2.19800	-79
2.20167	-78
2.20533	-77
2.20900	-76
2.21267	-76
2.21633	-75
2.22000	-75
2.22367	-74
2.22733	-74
2.23100	-75
2.23467	-76
2.23833	-77
2.24200	-78
2.24567	-79
2.24933	-80
2.25300	-80
2.25667	-79
2.26033	-78
2.26400	-77
2.26767	-76
2.27133	-75
2.27500	-74
2.27867	-73
2.28233	-73
2.28600	-72
2.28967	-72
2.29333	-72
2.29700	-71
2.30067	-71
2.30433	-70
2.30800	-70
2.31167	-70
2.31533	-70
2.31900	-70
2.32267	-69
2.32633	-69
2.33000	-69
2.33367	-68
2.33733	-68
2.34100	-67
2.34467	-66
2.34833	-65
2.35200	-64
2.35567	-63
2.35933	-63
2.36300	-62
2.36667	-61
2.37033	-59
2.37400	-57
2.37767	-55
2.38133	-52
2.38500	-48
2.38867	-45
2.39233	-41
2.39600	-38
2.39967	-33
2.40333	-29
2.40700	-25
2.41067	-21
2.41433	-17
2.41800	-14
2.42167	-11
2.42533	-8
2.42900	-6
2.43267	-4
2.43633	-2
2.44000	0
2.44367	2
2.44733	4
2.45100	5
2.45467	6
2.45833	7
2.46200	8
2.46567	9
2.46933	9
2.47300	10
2.47667	10
2.48033	11
2.48400	11
2.48767	12
2.49133	12
2.49500	13
2.49867	14
2.50233	15
2.50600	16
2.50967	16
2.51333	16
2.51700	16
2.52067	16
2.52433	15
2.52800	15
2.53167	15
2.53533	15
2.53900	15
2.54267	15
2.54633	15
2.55000	15
2.55367	15
2.55733	14
2.56100	14
2.56467	13
2.56833	13
2.57200	13
2.57567	13
2.57933	13
2.58300	13
2.58667	13
2.59033	13
2.59400	14
2.59767	14
2.60133	15
2.60500	15
2.60867	15
2.61233	16
2.61600	16
2.61967	16
2.62333	17
2.62700	17
2.63067	17
2.63433	17
2.63800	17
2.64167	17
2.64533	17
2.64900	17
2.65267	18
2.65633	18
2.66000	18
2.66367	18
2.66733	19
2.67100	20
2.67467	20
2.67833	21
2.68200	21
2.68567	22
2.68933	23
2.69300	23
2.69667	24
2.70033	24
2.70400	24
2.70767	24
2.71133	24
2.71500	24
2.71867	24
2.72233	24
2.72600	24
2.72967	25
2.73333	25
2.73700	25
2.74067	25
2.74433	26
2.74800	26
2.75167	26
2.75533	26
2.75900	26
2.76267	26
2.76633	26
2.77000	26
2.77367	26
2.77733	26
2.78100	27
2.78467	27
2.78833	27
2.79200	26
2.79567	26
2.79933	26
2.80300	26
2.80667	26
2.81033	26
2.81400	26
2.81767	26
2.82133	26
2.82500	26
2.82867	26
2.83233	26
2.83600	26
2.83967	26
2.84333	25
2.84700	25
2.85067	25
2.85433	24
2.85800	23
2.86167	21
2.86533	16
2.86900	9
2.87267	-1
2.87633	-16
2.88000	-35
2.88367	-59
2.88733	-89
2.89100	-125
2.89467	-165
2.89833	-211
2.90200	-262
2.90567	-317
2.90933	-375
2.91300	-436
2.91667	-499
2.92033	-564
2.92400	-629
2.92767	-694
2.93133	-757
2.93500	-818
2.93867	-875
2.94233	-930
2.94600	-985
2.94967	-1040
2.95333	-1088
2.95700	-1119
2.96067	-1127
2.96433	-1109
2.96800	-1068
2.97167	-1009
2.97533	-937
2.97900	-858
2.98267	-776
2.98633	-694
2.99000	-616
2.99367	-542
2.99733	-474
3.00100	-412
3.00467	-356
3.00833	-306
3.01200	-262
3.01567	-224
3.01933	-190
3.02300	-161
3.02667	-136
3.03033	-114
3.03400	-96
3.03767	-80
3.04133	-66
3.04500	-54
3.04867	-44
3.05233	-36
3.05600	-28
3.05967	-22
3.06333	-17
3.06700	-12
3.07067	-8
3.07433	-5
3.07800	-2
3.08167	1
3.08533	3
3.08900	5
3.09267	7
3.09633	8
3.10000	10
3.10367	11
3.10733	12
3.11100	13
3.11467	14
3.11833	14
3.12200	15
3.12567	15
3.12933	16
3.13300	16
3.13667	17
3.14033	17
3.14400	18
3.14767	18
3.15133	18
3.15500	19
3.15867	19
3.16233	19
3.16600	20
3.16967	20
3.17333	20
3.17700	20
3.18067	20
3.18433	20
3.18800	20
3.19167	21
3.19533	21
3.19900	21
3.20267	22
3.20633	22
3.21000	23
3.21367	23
3.21733	23
3.22100	24
3.22467	24
3.22833	24
3.23200	24
3.23567	25
3.23933	25
3.24300	25
3.24667	25
3.25033	26
3.25400	26
3.25767	26
3.26133	27
3.26500	27
3.26867	27
3.27233	28
3.27600	28
3.27967	28
3.28333	28
3.28700	28
3.29067	28
3.29433	28
3.29800	28
3.30167	28
3.30533	28
3.30900	28
3.31267	28
3.31633	28
3.32000	28
3.32367	28
3.32733	28
3.33100	28
3.33467	28
3.33833	28
3.34200	28
3.34567	28
3.34933	28
3.35300	28
3.35667	28
3.36033	28
3.36400	28
3.36767	28
3.37133	28
3.37500	28
3.37867	28
3.38233	28
3.38600	28
3.38967	28
3.39333	28
3.39700	28
3.40067	28
3.40433	28
3.40800	28
3.41167	28
3.41533	28
3.41900	28
3.42267	28
3.42633	28
3.43000	28
3.43367	28
3.43733	28
3.44100	28
3.44467	28
3.44833	28
3.45200	28
3.45567	28
3.45933	28
3.46300	28
3.46667	27
3.47033	28
3.47400	28
3.47767	28
3.48133	28
3.48500	28
3.48867	28
3.49233	28
3.49600	28
3.49967	28
3.50333	28
3.50700	28
3.51067	28
3.51433	28
3.51800	28
3.52167	28
3.52533	28
3.52900	28
3.53267	28
3.53633	28
3.54000	29
3.54367	29
3.54733	29
3.55100	29
3.55467	29
3.55833	29
3.56200	29
3.56567	29
3.56933	29
3.57300	29
3.57667	29
3.58033	29
3.58400	29
3.58767	29
3.59133	29
3.59500	28
3.59867	28
3.60233	28
3.60600	28
3.60967	28
3.61333	28
3.61700	28
3.62067	29
3.62433	29
3.62800	29
3.63167	29
3.63533	29
3.63900	29
3.64267	29
3.64633	29
3.65000	29
3.65367	29
3.65733	29
3.66100	29
3.66467	29
3.66833	30
3.67200	30
3.67567	30
3.67933	30
3.68300	30
3.68667	29
3.69033	29
3.69400	29
3.69767	29
3.70133	29
3.70500	29
3.70867	29
3.71233	29
3.71600	29
3.71967	29
3.72333	29
3.72700	29
3.73067	29
3.73433	29
3.73800	29
3.74167	29
3.74533	29
3.74900	29
3.75267	29
3.75633	29
3.76000	29
3.76367	29
3.76733	29
3.77100	29
3.77467	29
3.77833	29
3.78200	29
3.78567	29
3.78933	29
3.79300	29
3.79667	29
3.80033	29
3.80400	29
3.80767	28
3.81133	28
3.81500	28
3.81867	28
3.82233	28
3.82600	28
3.82967	28
3.83333	28
3.83700	28
3.84067	28
3.84433	28
3.84800	28
3.85167	28
3.85533	28
3.85900	28
3.86267	28
3.86633	29
3.87000	29
3.87367	29
3.87733	29
3.88100	29
3.88467	29
3.88833	29
3.89200	29
3.89567	29
3.89933	29
3.90300	29
3.90667	28
3.91033	28
3.91400	28
3.91767	28
3.92133	29
3.92500	29
3.92867	29
3.93233	29
3.93600	29
3.93967	29
3.94333	29
3.94700	29
3.95067	29
3.95433	29
3.95800	29
3.96167	29
3.96533	29
3.96900	29
3.97267	29
3.97633	29
3.98000	29
3.98367	29
3.98733	29
3.99100	28
3.99467	28
3.99833	28

[Chromatogram (Ch3)]
Interval(msec)	220
# of Points	1091
Start Time(min)	0.002
End Time(min)	3.998
R.Time (min)	Intensity
0.00167	-1
0.00533	-3
0.00900	-5
0.01267	-6
0.01633	-9
0.02000	-10
0.02367	-11
0.02733	-13
0.03100	-15
0.03467	-14
0.03833	-11
0.04200	-9
0.04567	-9
0.04933	-9
0.05300	-9
0.05667	-8
0.06033	-8
0.06400	-7
0.06767	-7
0.07133	-8
0.07500	-8
0.07867	-4
0.08233	-3
0.08600	-4
0.08967	-4
0.09333	-5
0.09700	-5
0.10067	-7
0.10433	-8
0.10800	-8
0.11167	-9
0.11533	-12
0.11900	-12
0.12267	-10
0.12633	-7
0.13000	-7
0.13367	-6
0.13733	-5
0.14100	-6
0.14467	-7
0.14833	-10
0.15200	-10
0.15567	-9
0.15933	-4
0.16300	1
0.16667	3
0.17033	5
0.17400	5
0.17767	5
0.18133	4
0.18500	5
0.18867	6
0.19233	5
0.19600	7
0.19967	7
0.20333	6
0.20700	2
0.21067	-0
0.21433	-2
0.21800	-3
0.22167	0
0.22533	4
0.22900	5
0.23267	4
0.23633	1
0.24000	-1
0.24367	-2
0.24733	-2
0.25100	-4
0.25467	-5
0.25833	-4
0.26200	-4
0.26567	-2
0.26933	1
0.27300	3
0.27667	6
0.28033	6
0.28400	5
0.28767	3
0.29133	1
0.29500	-2
0.29867	-0
0.30233	2
0.30600	1
0.30967	-1
0.31333	-2
0.31700	1
0.32067	5
0.32433	7
0.32800	8
0.33167	9
0.33533	9
0.33900	5
0.34267	5
0.34633	6
0.35000	5
0.35367	3
0.35733	1
0.36100	1
0.36467	1
0.36833	2
0.37200	4
0.37567	3
0.37933	2
0.38300	1
0.38667	0
0.39033	2
0.39400	2
0.39767	1
0.40133	2
0.40500	3
0.40867	6
0.41233	7
0.41600	5
0.41967	3
0.42333	3
0.42700	3
0.43067	3
0.43433	4
0.43800	1
0.44167	-0
0.44533	-2
0.44900	-1
0.45267	-1
0.45633	-1
0.46000	-0
0.46367	0
0.46733	1
0.47100	2
0.47467	1
0.47833	1
0.48200	2
0.48567	5
0.48933	6
0.49300	6
0.49667	6
0.50033	6
0.50400	6
0.50767	10
0.51133	12
0.51500	11
0.51867	10
0.52233	9
0.52600	8
0.52967	6
0.53333	3
0.53700	-0
0.54067	-3
0.54433	-2
0.54800	-2
0.55167	-3
0.55533	-3
0.55900	-2
0.56267	-0
0.56633	1
0.57000	3
0.57367	5
0.57733	3
0.58100	-0
0.58467	-4
0.58833	-5
0.59200	-4
0.59567	-2
0.59933	-0
0.60300	1
0.60667	1
0.61033	2
0.61400	2
0.61767	2
0.62133	1
0.62500	1
0.62867	1
0.63233	2
0.63600	4
0.63967	7
0.64333	9
0.64700	11
0.65067	11
0.65433	8
0.65800	7
0.66167	7
0.66533	5
0.66900	4
0.67267	6
0.67633	8
0.68000	9
0.68367	8
0.68733	7
0.69100	10
0.69467	9
0.69833	7
0.70200	8
0.70567	10
0.70933	12
0.71300	12
0.71667	10
0.72033	8
0.72400	8
0.72767	8
0.73133	6
0.73500	6
0.73867	6
0.74233	6
0.74600	7
0.74967	7
0.75333	7
0.75700	6
0.76067	6
0.76433	6
0.76800	7
0.77167	7
0.77533	6
0.77900	6
0.78267	6
0.78633	6
0.79000	5
0.79367	6
0.79733	5
0.80100	5
0.80467	7
0.80833	11
0.81200	15
0.81567	16
0.81933	13
0.82300	11
0.82667	12
0.83033	11
0.83400	7
0.83767	3
0.84133	4
0.84500	5
0.84867	5
0.85233	7
0.85600	9
0.85967	10
0.86333	10
0.86700	8
0.87067	9
0.87433	10
0.87800	8
0.88167	6
0.88533	7
0.88900	9
0.89267	9
0.89633	9
0.90000	9
0.90367	8
0.90733	6
0.91100	6
0.91467	5
0.91833	7
0.92200	6
0.92567	6
0.92933	7
0.93300	8
0.93667	10
0.94033	12
0.94400	10
0.94767	8
0.95133	7
0.95500	9
0.95867	10
0.96233	11
0.96600	11
0.96967	11
0.97333	8
0.97700	6
0.98067	6
0.98433	6
0.98800	4
0.99167	4
0.99533	5
0.99900	7
1.00267	9
1.00633	8
1.01000	8
1.01367	9
1.01733	10
1.02100	10
1.02467	9
1.02833	9
1.03200	9
1.03567	10
1.03933	15
1.04300	16
1.04667	13
1.05033	11
1.05400	10
1.05767	7
1.06133	6
1.06500	6
1.06867	7
1.07233	6
1.07600	4
1.07967	4
1.08333	6
1.08700	9
1.09067	11
1.09433	10
1.09800	8
1.10167	5
1.10533	4
1.10900	2
1.11267	-0
1.11633	0
1.12000	2
1.12367	4
1.12733	7
1.13100	9
1.13467	10
1.13833	9
1.14200	8
1.14567	10
1.14933	10
1.15300	9
1.15667	10
1.16033	9
1.16400	9
1.16767	7
1.17133	9
1.17500	9
1.17867	8
1.18233	5
1.18600	5
1.18967	4
1.19333	2
1.19700	4
1.20067	6
1.20433	6
1.20800	7
1.21167	6
1.21533	7
1.21900	7
1.22267	8
1.22633	10
1.23000	13
1.23367	13
1.23733	11
1.24100	12
1.24467	13
1.24833	12
1.25200	12
1.25567	12
1.25933	10
1.26300	9
1.26667	11
1.27033	12
1.27400	9
1.27767	5
1.28133	5
1.28500	7
1.28867	9
1.29233	10
1.29600	8
1.29967	7
1.30333	7
1.30700	8
1.31067	7
1.31433	7
1.31800	7
1.32167	8
1.32533	7
1.32900	8
1.33267	12
1.33633	14
1.34000	15
1.34367	13
1.34733	11
1.35100	9
1.35467	8
1.35833	9
1.36200	10
1.36567	7
1.36933	5
1.37300	5
1.37667	5
1.38033	5
1.38400	6
1.38767	5
1.39133	8
1.39500	10
1.39867	12
1.40233	13
1.40600	13
1.40967	12
1.41333	14
1.41700	14
1.42067	12
1.42433	11
1.42800	11
1.43167	9
1.43533	8
1.43900	6
1.44267	4
1.44633	3
1.45000	4
1.45367	2
1.45733	1
1.46100	2
1.46467	3
1.46833	4
1.47200	5
1.47567	6
1.47933	6
1.48300	7
1.48667	7
1.49033	8
1.49400	9
1.49767	8
1.50133	9
1.50500	10
1.50867	7
1.51233	5
1.51600	5
1.51967	5
1.52333	8
1.52700	8
1.53067	8
1.53433	9
1.53800	8
1.54167	9
1.54533	11
1.54900	12
1.55267	12
1.55633	9
1.56000	8
1.56367	6
1.56733	4
1.57100	4
1.57467	5
1.57833	7
1.58200	10
1.58567	11
1.58933	12
1.59300	12
1.59667	12
1.60033	12
1.60400	14
1.60767	14
1.61133	13
1.61500	14
1.61867	15
1.62233	14
1.62600	12
1.62967	13
1.63333	14
1.63700	18
1.64067	19
1.64433	18
1.64800	16
1.65167	14
1.65533	13
1.65900	14
1.66267	17
1.66633	18
1.67000	16
1.67367	15
1.67733	17
1.68100	19
1.68467	22
1.68833	23
1.69200	21
1.69567	18
1.69933	19
1.70300	20
1.70667	21
1.71033	19
1.71400	19
1.71767	18
1.72133	17
1.72500	16
1.72867	17
1.73233	20
1.73600	17
1.73967	14
1.74333	13
1.74700	12
1.75067	13
1.75433	15
1.75800	16
1.76167	14
1.76533	12
1.76900	10
1.77267	11
1.77633	14
1.78000	18
1.78367	18
1.78733	17
1.79100	17
1.79467	17
1.79833	15
1.80200	13
1.80567	12
1.80933	12
1.81300	14
1.81667	20
1.82033	22
1.82400	22
1.82767	19
1.83133	16
1.83500	17
1.83867	17
1.84233	16
1.84600	17
1.84967	18
1.85333	20
1.85700	21
1.86067	23
1.86433	22
1.86800	25
1.87167	26
1.87533	26
1.87900	29
1.88267	33
1.88633	32
1.89000	29
1.89367	27
1.89733	25
1.90100	23
1.90467	23
1.90833	22
1.91200	24
1.91567	26
1.91933	27
1.92300	26
1.92667	26
1.93033	26
1.93400	28
1.93767	30
1.94133	30
1.94500	30
1.94867	31
1.95233	33
1.95600	35
1.95967	36
1.96333	35
1.96700	33
1.97067	36
1.97433	38
1.97800	40
1.98167	42
1.98533	41
1.98900	39
1.99267	38
1.99633	38
2.00000	38
2.00367	37
2.00733	37
2.01100	38
2.01467	36
2.01833	35
2.02200	36
2.02567	39
2.02933	40
2.03300	41
2.03667	42
2.04033	43
2.04400	43
2.04767	43
2.05133	41
2.05500	39
2.05867	39
2.06233	39
2.06600	41
2.06967	42
2.07333	43
2.07700	45
2.08067	46
2.08433	49
2.08800	51
2.09167	54
2.09533	58
2.09900	60
2.10267	58
2.10633	58
2.11000	58
2.11367	57
2.11733	57
2.12100	55
2.12467	54
2.12833	54
2.13200	53
2.13567	55
2.13933	58
2.14300	57
2.14667	58
2.15033	59
2.15400	60
2.15767	62
2.16133	62
2.16500	62
2.16867	60
2.17233	57
2.17600	58
2.17967	62
2.18333	65
2.18700	64
2.19067	64
2.19433	67
2.19800	71
2.20167	73
2.20533	72
2.20900	71
2.21267	68
2.21633	66
2.22000	65
2.22367	67
2.22733	71
2.23100	76
2.23467	77
2.23833	75
2.24200	73
2.24567	74
2.24933	73
2.25300	72
2.25667	73
2.26033	73
2.26400	75
2.26767	77
2.27133	75
2.27500	73
2.27867	73
2.28233	73
2.28600	75
2.28967	79
2.29333	83
2.29700	85
2.30067	84
2.30433	84
2.30800	85
2.31167	84
2.31533	83
2.31900	83
2.32267	82
2.32633	82
2.33000	82
2.33367	83
2.33733	81
2.34100	80
2.34467	81
2.34833	83
2.35200	84
2.35567	83
2.35933	81
2.36300	84
2.36667	85
2.37033	86
2.37400	87
2.37767	86
2.38133	84
2.38500	80
2.38867	74
2.39233	77
2.39600	86
2.39967	95
2.40333	104
2.40700	109
2.41067	112
2.41433	114
2.41800	119
2.42167	122
2.42533	125
2.42900	127
2.43267	124
2.43633	120
2.44000	122
2.44367	158
2.44733	219
2.45100	270
2.45467	298
2.45833	299
2.46200	284
2.46567	271
2.46933	265
2.47300	257
2.47667	241
2.48033	221
2.48400	201
2.48767	182
2.49133	167
2.49500	159
2.49867	155
2.50233	158
2.50600	161
2.50967	166
2.51333	169
2.51700	168
2.52067	163
2.52433	154
2.52800	141
2.53167	129
2.53533	119
2.53900	110
2.54267	102
2.54633	96
2.55000	90
2.55367	85
2.55733	82
2.56100	83
2.56467	87
2.56833	91
2.57200	94
2.57567	99
2.57933	106
2.58300	113
2.58667	122
2.59033	130
2.59400	134
2.59767	138
2.60133	141
2.60500	145
2.60867	150
2.61233	151
2.61600	151
2.61967	149
2.62333	141
2.62700	134
2.63067	128
2.63433	115
2.63800	102
2.64167	93
2.64533	88
2.64900	83
2.65267	79
2.65633	74
2.66000	72
2.66367	69
2.66733	66
2.67100	61
2.67467	58
2.67833	52
2.68200	51
2.68567	51
2.68933	52
2.69300	53
2.69667	53
2.70033	55
2.70400	58
2.70767	59
2.71133	64
2.71500	70
2.71867	72
2.72233	71
2.72600	70
2.72967	72
2.73333	74
2.73700	78
2.74067	81
2.74433	87
2.74800	94
2.75167	98
2.75533	101
2.75900	103
2.76267	105
2.76633	106
2.77000	107
2.77367	110
2.77733	113
2.78100	116
2.78467	119
2.78833	123
2.79200	127
2.79567	129
2.79933	130
2.80300	134
2.80667	136
2.81033	136
2.81400	134
2.81767	133
2.82133	135
2.82500	136
2.82867	135
2.83233	135
2.83600	143
2.83967	158
2.84333	188
2.84700	245
2.85067	349
2.85433	519
2.85800	767
2.86167	1095
2.86533	1500
2.86900	1957
2.87267	2424
2.87633	2869
2.88000	3255
2.88367	3552
2.88733	3738
2.89100	3806
2.89467	3765
2.89833	3637
2.90200	3445
2.90567	3208
2.90933	2944
2.91300	2672
2.91667	2404
2.92033	2147
2.92400	1907
2.92767	1687
2.93133	1490
2.93500	1310
2.93867	1152
2.94233	1013
2.94600	891
2.94967	784
2.95333	694
2.95700	614
2.96067	545
2.96433	485
2.96800	432
2.97167	389
2.97533	353
2.97900	323
2.98267	285
2.98633	186
2.99000	58
2.99367	-17
2.99733	-15
3.00100	53
3.00467	162
3.00833	289
3.01200	418
3.01567	540
3.01933	647
3.02300	737
3.02667	809
3.03033	865
3.03400	912
3.03767	951
3.04133	980
3.04500	1002
3.04867	1019
3.05233	1031
3.05600	1037
3.05967	1039
3.06333	1042
3.06700	1045
3.07067	1045
3.07433	1041
3.07800	1037
3.08167	1035
3.08533	1031
3.08900	1030
3.09267	1030
3.09633	1029
3.10000	1027
3.10367	1025
3.10733	1021
3.11100	1017
3.11467	1015
3.11833	1013
3.12200	1010
3.12567	1006
3.12933	1001
3.13300	996
3.13667	991
3.14033	986
3.14400	982
3.14767	979
3.15133	974
3.15500	969
3.15867	962
3.16233	957
3.16600	952
3.16967	948
3.17333	942
3.17700	934
3.18067	931
3.18433	931
3.18800	929
3.19167	924
3.19533	919
3.19900	913
3.20267	908
3.20633	905
3.21000	903
3.21367	901
3.21733	893
3.22100	884
3.22467	877
3.22833	871
3.23200	867
3.23567	861
3.23933	857
3.24300	854
3.24667	847
3.25033	839
3.25400	833
3.25767	831
3.26133	829
3.26500	829
3.26867	827
3.27233	824
3.27600	820
3.27967	820
3.28333	819
3.28700	814
3.29067	810
3.29433	804
3.29800	796
3.30167	793
3.30533	792
3.30900	790
3.31267	788
3.31633	784
3.32000	781
3.32367	780
3.32733	776
3.33100	772
3.33467	767
3.33833	762
3.34200	759
3.34567	759
3.34933	759
3.35300	757
3.35667	754
3.36033	752
3.36400	752
3.36767	749
3.37133	748
3.37500	747
3.37867	744
3.38233	740
3.38600	736
3.38967	730
3.39333	727
3.39700	724
3.40067	724
3.40433	722
3.40800	718
3.41167	715
3.41533	715
3.41900	713
3.42267	712
3.42633	710
3.43000	708
3.43367	704
3.43733	702
3.44100	699
3.44467	696
3.44833	692
3.45200	687
3.45567	685
3.45933	683
3.46300	679
3.46667	675
3.47033	673
3.47400	667
3.47767	662
3.48133	659
3.48500	657
3.48867	655
3.49233	653
3.49600	648
3.49967	644
3.50333	641
3.50700	641
3.51067	641
3.51433	639
3.51800	636
3.52167	633
3.52533	631
3.52900	630
3.53267	630
3.53633	629
3.54000	625
3.54367	623
3.54733	621
3.55100	616
3.55467	614
3.55833	613
3.56200	612
3.56567	610
3.56933	612
3.57300	612
3.57667	610
3.58033	608
3.58400	609
3.58767	608
3.59133	605
3.59500	602
3.59867	602
3.60233	602
3.60600	601
3.60967	601
3.61333	599
3.61700	594
3.62067	589
3.62433	587
3.62800	586
3.63167	583
3.63533	580
3.63900	577
3.64267	577
3.64633	577
3.65000	576
3.65367	574
3.65733	571
3.66100	567
3.66467	567
3.66833	567
3.67200	566
3.67567	567
3.67933	567
3.68300	566
3.68667	567
3.69033	568
3.69400	569
3.69767	571
3.70133	575
3.70500	574
3.70867	574
3.71233	573
3.71600	569
3.71967	566
3.72333	563
3.72700	561
3.73067	560
3.73433	560
3.73800	559
3.74167	559
3.74533	559
3.74900	558
3.75267	558
3.75633	557
3.76000	556
3.76367	557
3.76733	557
3.77100	556
3.77467	557
3.77833	556
3.78200	553
3.78567	550
3.78933	548
3.79300	546
3.79667	547
3.80033	549
3.80400	548
3.80767	543
3.81133	540
3.81500	539
3.81867	538
3.82233	538
3.82600	538
3.82967	536
3.83333	535
3.83700	537
3.84067	540
3.84433	539
3.84800	538
3.85167	537
3.85533	536
3.85900	537
3.86267	536
3.86633	534
3.87000	532
3.87367	531
3.87733	529
3.88100	528
3.88467	529
3.88833	529
3.89200	528
3.89567	528
3.89933	527
3.90300	525
3.90667	523
3.91033	522
3.91400	520
3.91767	517
3.92133	516
3.92500	516
3.92867	516
3.93233	519
3.93600	518
3.93967	517
3.94333	514
3.94700	513
3.95067	509
3.95433	503
3.95800	500
3.96167	498
3.96533	497
3.96900	498
3.97267	498
3.97633	498
3.98000	496
3.98367	495
3.98733	494
3.99100	493
3.99467	493
3.99833	488

[Status Trace (Column Oven Temperature)]
Interval(msec)	1000
# of Points	240
Start Time(min)	0.001
End Time(min)	3.985
Intensity Units	
Intensity Multiplier	1
R.Time (min)	Intensity
0.00147	35.03
0.01813	35.03
0.03480	35.03
0.05147	35.03
0.06813	35.02
0.08480	35.03
0.10147	35.03
0.11813	35.03
0.13480	35.03
0.15147	35.02
0.16813	35.01
0.18480	35.02
0.20147	35.02
0.21813	35.02
0.23480	35.02
0.25147	35.01
0.26813	35.01
0.28480	35.00
0.30147	35.00
0.31813	35.01
0.33480	35.01
0.35147	35.02
0.36813	35.02
0.38480	35.02
0.40147	35.01
0.41813	35.00
0.43480	35.01
0.45147	35.01
0.46813	35.01
0.48480	35.01
0.50147	35.01
0.51813	35.00
0.53480	35.01
0.55147	35.01
0.56813	35.00
0.58480	35.00
0.60147	35.01
0.61813	35.00
0.63480	34.99
0.65147	34.99
0.66813	34.99
0.68480	34.99
0.70147	34.99
0.71813	34.99
0.73480	35.00
0.75147	35.00
0.76813	35.00
0.78480	35.00
0.80147	35.00
0.81813	34.99
0.83480	34.99
0.85147	35.00
0.86813	35.00
0.88480	35.00
0.90147	35.00
0.91813	35.00
0.93480	35.00
0.95147	35.00
0.96813	35.00
0.98480	34.99
1.00147	34.99
1.01813	34.99
1.03480	34.99
1.05147	34.99
1.06813	34.99
1.08480	35.00
1.10147	35.00
1.11813	35.00
1.13480	34.99
1.15147	34.99
1.16813	34.99
1.18480	34.99
1.20147	34.99
1.21813	35.00
1.23480	35.00
1.25147	35.00
1.26813	35.00
1.28480	35.00
1.30147	35.00
1.31813	34.99
1.33480	34.99
1.35147	34.99
1.36813	34.99
1.38480	35.00
1.40147	35.00
1.41813	34.99
1.43480	34.99
1.45147	34.98
1.46813	34.99
1.48480	34.99
1.50147	34.99
1.51813	34.99
1.53480	34.99
1.55147	34.99
1.56813	34.99
1.58480	34.99
1.60147	35.02
1.61813	35.11
1.63480	35.28
1.65147	35.49
1.66813	35.79
1.68480	36.17
1.70147	36.54
1.71813	36.88
1.73480	37.20
1.75147	37.51
1.76813	37.86
1.78480	38.20
1.80147	38.54
1.81813	38.85
1.83480	39.17
1.85147	39.50
1.86813	39.83
1.88480	40.17
1.90147	40.50
1.91813	40.82
1.93480	41.16
1.95147	41.49
1.96813	41.81
1.98480	42.14
2.00147	42.47
2.01813	42.78
2.03480	43.11
2.05147	43.44
2.06813	43.77
2.08480	44.10
2.10147	44.43
2.11813	44.75
2.13480	45.05
2.15147	45.38
2.16813	45.71
2.18480	46.04
2.20147	46.36
2.21813	46.66
2.23480	47.04
2.25147	47.39
2.26813	47.71
2.28480	48.02
2.30147	48.36
2.31813	48.70
2.33480	49.02
2.35147	49.31
2.36813	49.58
2.38480	49.73
2.40147	49.76
2.41813	49.76
2.43480	49.76
2.45147	49.76
2.46813	49.77
2.48480	49.79
2.50147	49.77
2.51813	49.81
2.53480	49.83
2.55147	49.82
2.56813	49.83
2.58480	49.83
2.60147	49.83
2.61813	49.84
2.63480	49.84
2.65147	49.86
2.66813	49.86
2.68480	49.85
2.70147	49.85
2.71813	49.86
2.73480	49.87
2.75147	49.87
2.76813	49.87
2.78480	49.86
2.80147	49.87
2.81813	49.87
2.83480	49.89
2.85147	49.90
2.86813	49.91
2.88480	49.94
2.90147	49.96
2.91813	49.98
2.93480	49.99
2.95147	50.01
2.96813	50.02
2.98480	50.02
3.00147	50.03
3.01813	50.05
3.03480	50.05
3.05147	50.06
3.06813	50.07
3.08480	50.07
3.10147	50.08
3.11813	50.08
3.13480	50.08
3.15147	50.09
3.16813	50.10
3.18480	50.10
3.20147	50.11
3.21813	50.10
3.23480	50.08
3.25147	50.08
3.26813	50.07
3.28480	50.06
3.30147	50.06
3.31813	50.06
3.33480	50.06
3.35147	50.06
3.36813	50.05
3.38480	50.05
3.40147	50.05
3.41813	50.06
3.43480	50.06
3.45147	50.05
3.46813	50.06
3.48480	50.06
3.50147	50.07
3.51813	50.07
3.53480	50.07
3.55147	50.07
3.56813	50.07
3.58480	50.08
3.60147	50.08
3.61813	50.08
3.63480	50.08
3.65147	50.08
3.66813	50.08
3.68480	50.08
3.70147	50.08
3.71813	50.08
3.73480	50.07
3.75147	50.07
3.76813	50.08
3.78480	50.08
3.80147	50.08
3.81813	50.08
3.83480	50.08
3.85147	50.08
3.86813	50.08
3.88480	50.07
3.90147	50.08
3.91813	50.08
3.93480	50.08
3.95147	50.07
3.96813	50.07
3.98480	50.07

[Status Trace (Injection Unit Temperature)]
Interval(msec)	1000
# of Points	240
Start Time(min)	0.001
End Time(min)	3.985
Intensity Units	
Intensity Multiplier	1
R.Time (min)	Intensity
0.00147	99.97
0.01813	99.97
0.03480	99.97
0.05147	99.97
0.06813	99.98
0.08480	99.97
0.10147	99.97
0.11813	99.98
0.13480	99.97
0.15147	99.97
0.16813	99.97
0.18480	99.98
0.20147	99.97
0.21813	99.98
0.23480	99.98
0.25147	99.98
0.26813	99.98
0.28480	99.98
0.30147	99.98
0.31813	99.98
0.33480	99.98
0.35147	99.98
0.36813	99.98
0.38480	99.98
0.40147	99.98
0.41813	99.98
0.43480	99.98
0.45147	99.98
0.46813	99.98
0.48480	99.98
0.50147	99.99
0.51813	99.98
0.53480	99.98
0.55147	99.99
0.56813	99.98
0.58480	99.98
0.60147	99.99
0.61813	99.99
0.63480	99.98
0.65147	99.98
0.66813	99.99
0.68480	99.99
0.70147	99.99
0.71813	99.99
0.73480	99.99
0.75147	99.99
0.76813	99.99
0.78480	99.98
0.80147	99.99
0.81813	99.98
0.83480	99.98
0.85147	99.99
0.86813	99.99
0.88480	99.98
0.90147	99.99
0.91813	99.99
0.93480	99.98
0.95147	99.99
0.96813	99.98
0.98480	99.98
1.00147	99.98
1.01813	99.98
1.03480	99.98
1.05147	99.98
1.06813	99.98
1.08480	99.98
1.10147	99.98
1.11813	99.98
1.13480	99.98
1.15147	99.98
1.16813	99.98
1.18480	99.98
1.20147	99.98
1.21813	99.98
1.23480	99.98
1.25147	99.98
1.26813	99.98
1.28480	99.97
1.30147	99.97
1.31813	99.98
1.33480	99.98
1.35147	99.97
1.36813	99.98
1.38480	99.97
1.40147	99.97
1.41813	99.97
1.43480	99.97
1.45147	99.97
1.46813	99.97
1.48480	99.98
1.50147	99.98
1.51813	99.98
1.53480	99.98
1.55147	99.98
1.56813	99.98
1.58480	99.98
1.60147	99.98
1.61813	99.98
1.63480	99.98
1.65147	99.98
1.66813	99.98
1.68480	99.98
1.70147	99.98
1.71813	99.98
1.73480	99.98
1.75147	99.98
1.76813	99.98
1.78480	99.98
1.80147	99.98
1.81813	99.98
1.83480	99.98
1.85147	99.98
1.86813	99.98
1.88480	99.98
1.90147	99.98
1.91813	99.98
1.93480	99.98
1.95147	99.98
1.96813	99.98
1.98480	99.98
2.00147	99.98
2.01813	99.98
2.03480	99.98
2.05147	99.98
2.06813	99.97
2.08480	99.97
2.10147	99.97
2.11813	99.97
2.13480	99.97
2.15147	99.97
2.16813	99.97
2.18480	99.97
2.20147	99.97
2.21813	99.97
2.23480	99.97
2.25147	99.97
2.26813	99.97
2.28480	99.97
2.30147	99.97
2.31813	99.97
2.33480	99.97
2.35147	99.97
2.36813	99.96
2.38480	99.96
2.40147	99.96
2.41813	99.96
2.43480	99.96
2.45147	99.96
2.46813	99.96
2.48480	99.96
2.50147	99.96
2.51813	99.96
2.53480	99.96
2.55147	99.97
2.56813	99.96
2.58480	99.97
2.60147	99.97
2.61813	99.97
2.63480	99.97
2.65147	99.97
2.66813	99.97
2.68480	99.97
2.70147	99.98
2.71813	99.98
2.73480	99.97
2.75147	99.98
2.76813	99.98
2.78480	99.98
2.80147	99.98
2.81813	99.98
2.83480	99.99
2.85147	99.99
2.86813	99.99
2.88480	99.99
2.90147	99.99
2.91813	100.00
2.93480	100.00
2.95147	100.00
2.96813	100.00
2.98480	100.00
3.00147	100.01
3.01813	100.00
3.03480	100.01
3.05147	100.01
3.06813	100.01
3.08480	100.01
3.10147	100.02
3.11813	100.02
3.13480	100.02
3.15147	100.01
3.16813	100.02
3.18480	100.02
3.20147	100.02
3.21813	100.02
3.23480	100.02
3.25147	100.02
3.26813	100.03
3.28480	100.03
3.30147	100.03
3.31813	100.03
3.33480	100.03
3.35147	100.03
3.36813	100.03
3.38480	100.03
3.40147	100.03
3.41813	100.03
3.43480	100.03
3.45147	100.03
3.46813	100.04
3.48480	100.04
3.50147	100.04
3.51813	100.04
3.53480	100.04
3.55147	100.04
3.56813	100.04
3.58480	100.04
3.60147	100.04
3.61813	100.04
3.63480	100.04
3.65147	100.04
3.66813	100.04
3.68480	100.04
3.70147	100.05
3.71813	100.04
3.73480	100.05
3.75147	100.04
3.76813	100.05
3.78480	100.05
3.80147	100.05
3.81813	100.05
3.83480	100.05
3.85147	100.05
3.86813	100.05
3.88480	100.05
3.90147	100.05
3.91813	100.05
3.93480	100.05
3.95147	100.05
3.96813	100.05
3.98480	100.05

[Status Trace (Carrier Gas Pressure)]
Interval(msec)	1000
# of Points	240
Start Time(min)	0.001
End Time(min)	3.985
Intensity Units	
Intensity Multiplier	1
R.Time (min)	Intensity
0.00147	58.00
0.01813	56.48
0.03480	56.17
0.05147	58.35
0.06813	59.92
0.08480	58.39
0.10147	57.97
0.11813	58.00
0.13480	58.01
0.15147	58.01
0.16813	58.00
0.18480	58.00
0.20147	58.00
0.21813	58.00
0.23480	58.00
0.25147	58.00
0.26813	58.00
0.28480	58.00
0.30147	58.00
0.31813	58.00
0.33480	58.00
0.35147	58.00
0.36813	58.00
0.38480	58.00
0.40147	58.00
0.41813	58.00
0.43480	58.00
0.45147	58.00
0.46813	58.00
0.48480	58.00
0.50147	58.00
0.51813	58.00
0.53480	58.00
0.55147	58.00
0.56813	58.00
0.58480	58.00
0.60147	58.00
0.61813	58.00
0.63480	58.00
0.65147	58.00
0.66813	58.00
0.68480	58.00
0.70147	58.00
0.71813	58.00
0.73480	58.00
0.75147	58.00
0.76813	58.00
0.78480	58.00
0.80147	58.00
0.81813	58.00
0.83480	58.00
0.85147	58.00
0.86813	58.00
0.88480	58.00
0.90147	58.00
0.91813	58.00
0.93480	58.00
0.95147	58.00
0.96813	58.00
0.98480	58.00
1.00147	58.00
1.01813	58.00
1.03480	58.00
1.05147	58.00
1.06813	58.00
1.08480	58.00
1.10147	58.00
1.11813	58.00
1.13480	58.00
1.15147	58.00
1.16813	58.00
1.18480	58.00
1.20147	58.00
1.21813	58.00
1.23480	58.00
1.25147	58.00
1.26813	58.00
1.28480	58.00
1.30147	58.00
1.31813	58.00
1.33480	58.00
1.35147	58.00
1.36813	58.00
1.38480	58.00
1.40147	58.00
1.41813	58.00
1.43480	58.00
1.45147	58.00
1.46813	58.00
1.48480	58.00
1.50147	58.00
1.51813	58.00
1.53480	58.00
1.55147	58.00
1.56813	58.00
1.58480	58.00
1.60147	58.00
1.61813	58.00
1.63480	58.00
1.65147	58.00
1.66813	58.01
1.68480	58.01
1.70147	58.00
1.71813	58.00
1.73480	58.00
1.75147	58.00
1.76813	58.00
1.78480	58.00
1.80147	58.00
1.81813	58.00
1.83480	58.00
1.85147	58.00
1.86813	58.00
1.88480	58.00
1.90147	58.00
1.91813	58.00
1.93480	58.00
1.95147	58.00
1.96813	58.00
1.98480	58.00
2.00147	58.00
2.01813	58.00
2.03480	58.00
2.05147	58.00
2.06813	58.00
2.08480	58.00
2.10147	58.00
2.11813	58.00
2.13480	58.00
2.15147	58.00
2.16813	58.00
2.18480	58.00
2.20147	58.00
2.21813	58.00
2.23480	58.00
2.25147	58.00
2.26813	58.00
2.28480	58.00
2.30147	58.00
2.31813	58.00
2.33480	58.00
2.35147	58.00
2.36813	58.00
2.38480	57.99
2.40147	57.99
2.41813	58.00
2.43480	58.00
2.45147	58.00
2.46813	58.00
2.48480	58.00
2.50147	58.00
2.51813	57.99
2.53480	57.99
2.55147	58.00
2.56813	58.00
2.58480	58.00
2.60147	58.00
2.61813	58.00
2.63480	58.00
2.65147	58.00
2.66813	58.00
2.68480	58.00
2.70147	58.00
2.71813	58.00
2.73480	58.00
2.75147	58.00
2.76813	58.00
2.78480	58.00
2.80147	58.00
2.81813	58.00
2.83480	58.00
2.85147	58.00
2.86813	58.00
2.88480	58.00
2.90147	58.00
2.91813	58.00
2.93480	58.00
2.95147	58.00
2.96813	58.00
2.98480	58.00
3.00147	58.00
3.01813	58.00
3.03480	58.00
3.05147	58.00
3.06813	58.00
3.08480	58.00
3.10147	58.00
3.11813	58.00
3.13480	58.00
3.15147	58.00
3.16813	58.00
3.18480	58.00
3.20147	58.00
3.21813	58.00
3.23480	58.00
3.25147	58.00
3.26813	58.00
3.28480	58.00
3.30147	58.00
3.31813	58.00
3.33480	58.00
3.35147	58.00
3.36813	58.00
3.38480	58.00
3.40147	58.00
3.41813	58.00
3.43480	58.00
3.45147	58.00
3.46813	58.00
3.48480	58.00
3.50147	58.00
3.51813	58.00
3.53480	58.00
3.55147	58.00
3.56813	58.00
3.58480	58.00
3.60147	58.00
3.61813	58.00
3.63480	58.00
3.65147	58.00
3.66813	58.00
3.68480	58.00
3.70147	58.00
3.71813	58.00
3.73480	58.00
3.75147	58.00
3.76813	58.00
3.78480	58.00
3.80147	58.00
3.81813	58.00
3.83480	58.00
3.85147	58.00
3.86813	58.00
3.88480	58.00
3.90147	58.00
3.91813	58.00
3.93480	58.00
3.95147	58.00
3.96813	58.00
3.98480	58.00

[Status Trace (Carrier Gas Flow)]
Interval(msec)	1000
# of Points	240
Start Time(min)	0.001
End Time(min)	3.985
Intensity Units	
Intensity Multiplier	1
R.Time (min)	Intensity
0.00147	34.52
0.01813	34.26
0.03480	34.54
0.05147	34.55
0.06813	34.50
0.08480	34.51
0.10147	34.52
0.11813	34.52
0.13480	34.52
0.15147	34.52
0.16813	34.52
0.18480	34.52
0.20147	34.52
0.21813	34.52
0.23480	34.52
0.25147	34.52
0.26813	34.52
0.28480	34.52
0.30147	34.52
0.31813	34.53
0.33480	34.52
0.35147	34.51
0.36813	34.53
0.38480	34.52
0.40147	34.51
0.41813	34.52
0.43480	34.52
0.45147	34.52
0.46813	34.51
0.48480	34.52
0.50147	34.52
0.51813	34.52
0.53480	34.52
0.55147	34.52
0.56813	34.52
0.58480	34.52
0.60147	34.51
0.61813	34.52
0.63480	34.52
0.65147	34.52
0.66813	34.52
0.68480	34.52
0.70147	34.52
0.71813	34.52
0.73480	34.52
0.75147	34.52
0.76813	34.52
0.78480	34.52
0.80147	34.52
0.81813	34.51
0.83480	34.51
0.85147	34.52
0.86813	34.52
0.88480	34.51
0.90147	34.52
0.91813	34.52
0.93480	34.52
0.95147	34.52
0.96813	34.52
0.98480	34.52
1.00147	34.52
1.01813	34.51
1.03480	34.52
1.05147	34.53
1.06813	34.52
1.08480	34.52
1.10147	34.52
1.11813	34.52
1.13480	34.52
1.15147	34.52
1.16813	34.52
1.18480	34.52
1.20147	34.52
1.21813	34.52
1.23480	34.52
1.25147	34.52
1.26813	34.52
1.28480	34.52
1.30147	34.52
1.31813	34.52
1.33480	34.52
1.35147	34.52
1.36813	34.52
1.38480	34.52
1.40147	34.52
1.41813	34.51
1.43480	34.52
1.45147	34.51
1.46813	34.52
1.48480	34.53
1.50147	34.51
1.51813	34.52
1.53480	34.52
1.55147	34.52
1.56813	34.51
1.58480	34.52
1.60147	34.52
1.61813	34.52
1.63480	34.52
1.65147	34.52
1.66813	34.52
1.68480	34.52
1.70147	34.52
1.71813	34.52
1.73480	34.52
1.75147	34.52
1.76813	34.52
1.78480	34.52
1.80147	34.52
1.81813	34.52
1.83480	34.52
1.85147	34.52
1.86813	34.52
1.88480	34.52
1.90147	34.52
1.91813	34.53
1.93480	34.52
1.95147	34.52
1.96813	34.52
1.98480	34.52
2.00147	34.52
2.01813	34.52
2.03480	34.52
2.05147	34.51
2.06813	34.51
2.08480	34.52
2.10147	34.52
2.11813	34.52
2.13480	34.52
2.15147	34.52
2.16813	34.53
2.18480	34.52
2.20147	34.52
2.21813	34.52
2.23480	34.52
2.25147	34.52
2.26813	34.51
2.28480	34.53
2.30147	34.51
2.31813	34.52
2.33480	34.51
2.35147	34.52
2.36813	34.52
2.38480	34.52
2.40147	34.52
2.41813	34.52
2.43480	34.52
2.45147	34.52
2.46813	34.52
2.48480	34.52
2.50147	34.52
2.51813	34.52
2.53480	34.52
2.55147	34.52
2.56813	34.52
2.58480	34.52
2.60147	34.52
2.61813	34.52
2.63480	34.51
2.65147	34.52
2.66813	34.52
2.68480	34.52
2.70147	34.52
2.71813	34.52
2.73480	34.52
2.75147	34.51
2.76813	34.51
2.78480	34.52
2.80147	34.52
2.81813	34.52
2.83480	34.52
2.85147	34.52
2.86813	34.52
2.88480	34.52
2.90147	34.52
2.91813	34.52
2.93480	34.51
2.95147	34.52
2.96813	34.52
2.98480	34.52
3.00147	34.52
3.01813	34.52
3.03480	34.52
3.05147	34.52
3.06813	34.52
3.08480	34.52
3.10147	34.52
3.11813	34.52
3.13480	34.52
3.15147	34.52
3.16813	34.52
3.18480	34.52
3.20147	34.51
3.21813	34.52
3.23480	34.52
3.25147	34.52
3.26813	34.52
3.28480	34.52
3.30147	34.52
3.31813	34.52
3.33480	34.52
3.35147	34.52
3.36813	34.51
3.38480	34.52
3.40147	34.52
3.41813	34.52
3.43480	34.52
3.45147	34.52
3.46813	34.52
3.48480	34.52
3.50147	34.52
3.51813	34.52
3.53480	34.52
3.55147	34.52
3.56813	34.52
3.58480	34.51
3.60147	34.52
3.61813	34.52
3.63480	34.52
3.65147	34.52
3.66813	34.52
3.68480	34.52
3.70147	34.52
3.71813	34.52
3.73480	34.52
3.75147	34.52
3.76813	34.52
3.78480	34.52
3.80147	34.51
3.81813	34.52
3.83480	34.52
3.85147	34.52
3.86813	34.52
3.88480	34.52
3.90147	34.52
3.91813	34.52
3.93480	34.52
3.95147	34.52
3.96813	34.52
3.98480	34.52

[Status Trace (Column Flow)]
Interval(msec)	1000
# of Points	240
Start Time(min)	0.001
End Time(min)	3.985
Intensity Units	
Intensity Multiplier	1
R.Time (min)	Intensity
0.00147	5.51
0.01813	5.33
0.03480	5.29
0.05147	5.55
0.06813	5.73
0.08480	5.55
0.10147	5.50
0.11813	5.51
0.13480	5.51
0.15147	5.51
0.16813	5.51
0.18480	5.51
0.20147	5.51
0.21813	5.51
0.23480	5.51
0.25147	5.51
0.26813	5.51
0.28480	5.51
0.30147	5.51
0.31813	5.51
0.33480	5.51
0.35147	5.51
0.36813	5.51
0.38480	5.51
0.40147	5.51
0.41813	5.51
0.43480	5.51
0.45147	5.51
0.46813	5.51
0.48480	5.51
0.50147	5.51
0.51813	5.51
0.53480	5.51
0.55147	5.51
0.56813	5.51
0.58480	5.51
0.60147	5.51
0.61813	5.51
0.63480	5.51
0.65147	5.51
0.66813	5.51
0.68480	5.51
0.70147	5.51
0.71813	5.51
0.73480	5.51
0.75147	5.51
0.76813	5.51
0.78480	5.51
0.80147	5.51
0.81813	5.51
0.83480	5.51
0.85147	5.51
0.86813	5.51
0.88480	5.51
0.90147	5.51
0.91813	5.51
0.93480	5.51
0.95147	5.51
0.96813	5.51
0.98480	5.51
1.00147	5.51
1.01813	5.51
1.03480	5.51
1.05147	5.51
1.06813	5.51
1.08480	5.51
1.10147	5.51
1.11813	5.51
1.13480	5.51
1.15147	5.51
1.16813	5.51
1.18480	5.51
1.20147	5.51
1.21813	5.51
1.23480	5.51
1.25147	5.51
1.26813	5.51
1.28480	5.51
1.30147	5.51
1.31813	5.51
1.33480	5.51
1.35147	5.51
1.36813	5.51
1.38480	5.51
1.40147	5.51
1.41813	5.51
1.43480	5.51
1.45147	5.51
1.46813	5.51
1.48480	5.51
1.50147	5.51
1.51813	5.51
1.53480	5.51
1.55147	5.51
1.56813	5.51
1.58480	5.51
1.60147	5.51
1.61813	5.50
1.63480	5.50
1.65147	5.49
1.66813	5.48
1.68480	5.47
1.70147	5.46
1.71813	5.45
1.73480	5.44
1.75147	5.43
1.76813	5.42
1.78480	5.41
1.80147	5.40
1.81813	5.39
1.83480	5.38
1.85147	5.37
1.86813	5.36
1.88480	5.35
1.90147	5.34
1.91813	5.33
1.93480	5.32
1.95147	5.31
1.96813	5.30
1.98480	5.29
2.00147	5.28
2.01813	5.27
2.03480	5.26
2.05147	5.25
2.06813	5.24
2.08480	5.23
2.10147	5.22
2.11813	5.21
2.13480	5.20
2.15147	5.19
2.16813	5.18
2.18480	5.18
2.20147	5.17
2.21813	5.16
2.23480	5.15
2.25147	5.14
2.26813	5.13
2.28480	5.12
2.30147	5.11
2.31813	5.10
2.33480	5.09
2.35147	5.08
2.36813	5.08
2.38480	5.07
2.40147	5.07
2.41813	5.07
2.43480	5.07
2.45147	5.07
2.46813	5.07
2.48480	5.07
2.50147	5.07
2.51813	5.07
2.53480	5.07
2.55147	5.07
2.56813	5.07
2.58480	5.07
2.60147	5.07
2.61813	5.07
2.63480	5.07
2.65147	5.07
2.66813	5.07
2.68480	5.07
2.70147	5.07
2.71813	5.07
2.73480	5.07
2.75147	5.07
2.76813	5.07
2.78480	5.07
2.80147	5.07
2.81813	5.07
2.83480	5.07
2.85147	5.07
2.86813	5.07
2.88480	5.07
2.90147	5.07
2.91813	5.06
2.93480	5.06
2.95147	5.06
2.96813	5.06
2.98480	5.06
3.00147	5.06
3.01813	5.06
3.03480	5.06
3.05147	5.06
3.06813	5.06
3.08480	5.06
3.10147	5.06
3.11813	5.06
3.13480	5.06
3.15147	5.06
3.16813	5.06
3.18480	5.06
3.20147	5.06
3.21813	5.06
3.23480	5.06
3.25147	5.06
3.26813	5.06
3.28480	5.06
3.30147	5.06
3.31813	5.06
3.33480	5.06
3.35147	5.06
3.36813	5.06
3.38480	5.06
3.40147	5.06
3.41813	5.06
3.43480	5.06
3.45147	5.06
3.46813	5.06
3.48480	5.06
3.50147	5.06
3.51813	5.06
3.53480	5.06
3.55147	5.06
3.56813	5.06
3.58480	5.06
3.60147	5.06
3.61813	5.06
3.63480	5.06
3.65147	5.06
3.66813	5.06
3.68480	5.06
3.70147	5.06
3.71813	5.06
3.73480	5.06
3.75147	5.06
3.76813	5.06
3.78480	5.06
3.80147	5.06
3.81813	5.06
3.83480	5.06
3.85147	5.06
3.86813	5.06
3.88480	5.06
3.90147	5.06
3.91813	5.06
3.93480	5.06
3.95147	5.06
3.96813	5.06
3.98480	5.06

[Status Trace (Linear Velocity)]
Interval(msec)	1000
# of Points	240
Start Time(min)	0.001
End Time(min)	3.985
Intensity Units	
Intensity Multiplier	1
R.Time (min)	Intensity
0.00147	39.01
0.01813	38.01
0.03480	37.81
0.05147	39.24
0.06813	40.27
0.08480	39.27
0.10147	38.99
0.11813	39.01
0.13480	39.02
0.15147	39.02
0.16813	39.01
0.18480	39.01
0.20147	39.01
0.21813	39.01
0.23480	39.01
0.25147	39.01
0.26813	39.01
0.28480	39.01
0.30147	39.01
0.31813	39.01
0.33480	39.01
0.35147	39.01
0.36813	39.01
0.38480	39.01
0.40147	39.01
0.41813	39.01
0.43480	39.01
0.45147	39.01
0.46813	39.01
0.48480	39.01
0.50147	39.01
0.51813	39.01
0.53480	39.01
0.55147	39.01
0.56813	39.01
0.58480	39.01
0.60147	39.01
0.61813	39.01
0.63480	39.01
0.65147	39.01
0.66813	39.01
0.68480	39.01
0.70147	39.01
0.71813	39.01
0.73480	39.01
0.75147	39.01
0.76813	39.01
0.78480	39.01
0.80147	39.01
0.81813	39.01
0.83480	39.01
0.85147	39.01
0.86813	39.01
0.88480	39.01
0.90147	39.01
0.91813	39.01
0.93480	39.01
0.95147	39.01
0.96813	39.01
0.98480	39.01
1.00147	39.01
1.01813	39.01
1.03480	39.01
1.05147	39.01
1.06813	39.01
1.08480	39.01
1.10147	39.01
1.11813	39.01
1.13480	39.01
1.15147	39.01
1.16813	39.01
1.18480	39.01
1.20147	39.01
1.21813	39.01
1.23480	39.01
1.25147	39.01
1.26813	39.01
1.28480	39.01
1.30147	39.01
1.31813	39.01
1.33480	39.01
1.35147	39.01
1.36813	39.01
1.38480	39.01
1.40147	39.01
1.41813	39.01
1.43480	39.01
1.45147	39.01
1.46813	39.01
1.48480	39.02
1.50147	39.01
1.51813	39.01
1.53480	39.01
1.55147	39.01
1.56813	39.01
1.58480	39.01
1.60147	39.01
1.61813	39.00
1.63480	38.99
1.65147	38.97
1.66813	38.94
1.68480	38.90
1.70147	38.87
1.71813	38.83
1.73480	38.80
1.75147	38.77
1.76813	38.74
1.78480	38.71
1.80147	38.68
1.81813	38.64
1.83480	38.62
1.85147	38.59
1.86813	38.55
1.88480	38.52
1.90147	38.49
1.91813	38.46
1.93480	38.43
1.95147	38.40
1.96813	38.37
1.98480	38.34
2.00147	38.31
2.01813	38.28
2.03480	38.25
2.05147	38.22
2.06813	38.19
2.08480	38.16
2.10147	38.13
2.11813	38.10
2.13480	38.07
2.15147	38.04
2.16813	38.01
2.18480	37.98
2.20147	37.95
2.21813	37.93
2.23480	37.89
2.25147	37.86
2.26813	37.83
2.28480	37.80
2.30147	37.78
2.31813	37.74
2.33480	37.72
2.35147	37.69
2.36813	37.67
2.38480	37.65
2.40147	37.65
2.41813	37.65
2.43480	37.65
2.45147	37.65
2.46813	37.65
2.48480	37.65
2.50147	37.65
2.51813	37.64
2.53480	37.64
2.55147	37.64
2.56813	37.64
2.58480	37.64
2.60147	37.64
2.61813	37.64
2.63480	37.64
2.65147	37.64
2.66813	37.64
2.68480	37.64
2.70147	37.64
2.71813	37.64
2.73480	37.64
2.75147	37.64
2.76813	37.64
2.78480	37.64
2.80147	37.64
2.81813	37.64
2.83480	37.64
2.85147	37.64
2.86813	37.64
2.88480	37.63
2.90147	37.63
2.91813	37.63
2.93480	37.63
2.95147	37.63
2.96813	37.63
2.98480	37.63
3.00147	37.63
3.01813	37.62
3.03480	37.62
3.05147	37.62
3.06813	37.62
3.08480	37.62
3.10147	37.62
3.11813	37.62
3.13480	37.62
3.15147	37.62
3.16813	37.62
3.18480	37.62
3.20147	37.62
3.21813	37.62
3.23480	37.62
3.25147	37.62
3.26813	37.62
3.28480	37.62
3.30147	37.62
3.31813	37.62
3.33480	37.62
3.35147	37.62
3.36813	37.62
3.38480	37.62
3.40147	37.62
3.41813	37.62
3.43480	37.62
3.45147	37.62
3.46813	37.62
3.48480	37.62
3.50147	37.62
3.51813	37.62
3.53480	37.62
3.55147	37.62
3.56813	37.62
3.58480	37.62
3.60147	37.62
3.61813	37.62
3.63480	37.62
3.65147	37.62
3.66813	37.62
3.68480	37.62
3.70147	37.62
3.71813	37.62
3.73480	37.62
3.75147	37.62
3.76813	37.62
3.78480	37.62
3.80147	37.62
3.81813	37.62
3.83480	37.62
3.85147	37.62
3.86813	37.62
3.88480	37.62
3.90147	37.62
3.91813	37.62
3.93480	37.62
3.95147	37.62
3.96813	37.62
3.98480	37.62

