[Header]
Application Name	LabSolutions
Version	5.110
Data File Name	C:\Users\User\Desktop\Junior\UIC Prairie Sampling\7.18.23\071823_026.gcd
Output Date	8/29/2023
Output Time	10:40:20 AM

[File Information]
Type	Data File
Generated	8/28/2023 5:05:44 PM
Generated by	System Administrator
Modified	8/28/2023 5:12:20 PM
Modified by	System Administrator

[Sample Information]
Operator Name	System Administrator
Acquired	8/28/2023 5:08:20 PM
Sample Type	0:Unknown
Level	0
Sample Name	026
Sample ID	026
ISTD Amount1	1
ISTD Amount2	1
ISTD Amount3	1
ISTD Amount4	1
ISTD Amount5	1
ISTD Amount6	1
ISTD Amount7	1
ISTD Amount8	1
ISTD Amount9	1
ISTD Amount10	1
ISTD Amount11	1
ISTD Amount12	1
ISTD Amount13	1
ISTD Amount14	1
ISTD Amount15	1
ISTD Amount16	1
ISTD Amount17	1
ISTD Amount18	1
ISTD Amount19	1
ISTD Amount20	1
ISTD Amount21	1
ISTD Amount22	1
ISTD Amount23	1
ISTD Amount24	1
ISTD Amount25	1
ISTD Amount26	1
ISTD Amount27	1
ISTD Amount28	1
ISTD Amount29	1
ISTD Amount30	1
ISTD Amount31	1
ISTD Amount32	1
Sample Amount	1
Dilution Factor	1
Vial#	25
Injection Volume	1
Injection Count	1
Bar Code	

[Original Files]
Data File	C:\Users\User\Desktop\Junior\UIC Prairie Sampling\7.18.23\071823_026.gcd
Method File	C:\LabSolutions\Data\GHG_4min_2022\ghg3_togas_w_acet_4 min_new_int.gcm
Batch File	C:\LabSolutions\Data\BATCH FILES\071823.gcb
Report Format File	c:\LabSolutions\System\DEFAULT.lsr

[File Description]


[Configuration]
Instrument Name	C0B7VH3-Instrument1
Instrument #	1
Line #	1
# of Detectors	3
Detector ID	DET#1	DET#2	DET#3
Detector Name	FID	PTCD	ECD
# of Channels	1	1	1

[Peak Table(Ch1)]
# of Peaks	4
Peak#	R.Time	I.Time	F.Time	Area	Height	A/H	Conc.	Mark	ID#	Name	k'	Plate #	Plate Ht.	Tailing	Resolution	Sep.Factor	Area Ratio	Height Ratio	Conc. %	Norm Conc.
1	0.328	0.211	0.427	1077	163	6.615	0.000	   			0.000	71	2124.749	0.915	0.000	0.000	0	0	0.000	0.000
2	1.472	1.421	1.531	9871	4904	2.013	0.000	   	1	CO	3.488	9903	15.146	1.288	10.626	0.000	0	0	0.000	0.000
3	1.564	1.531	1.619	4496	2280	1.972	21.920	 V 	2	CH4	3.767	11366	13.197	1.114	1.556	1.080	0	0	7.958	7.958
4	1.989	1.923	2.506	1315594	631307	2.084	253.539	   	3	CO2	5.064	17701	8.474	1.332	7.181	1.344	0	0	92.042	92.042

[Peak Table(Ch2)]
# of Peaks	0

[Peak Table(Ch3)]
# of Peaks	6
Peak#	R.Time	I.Time	F.Time	Area	Height	A/H	Conc.	Mark	ID#	Name	k'	Plate #	Plate Ht.	Tailing	Resolution	Sep.Factor	Area Ratio	Height Ratio	Conc. %	Norm Conc.
1	2.458	2.345	2.502	776	235	3.304	0.000	   			0.000	12121	12.375	0.000	0.000	0.000	0	0	0.000	0.000
2	2.517	2.502	2.554	284	123	2.308	0.000	 V 			0.024	6715	22.339	0.000	0.553	0.000	0	0	0.000	0.000
3	2.612	2.554	2.675	668	131	5.111	0.000	 V 			0.063	4162	36.038	0.000	0.669	2.625	0	0	0.000	0.000
4	2.891	2.675	3.023	16946	3885	4.361	0.251	 V 	1	N2O	0.176	12576	11.927	1.544	2.102	2.810	0	0	100.000	100.000
5	3.107	3.023	3.335	16259	1088	14.941	0.000	   	2	SF6	0.264	179	838.749	0.000	0.419	1.500	0	0	0.000	0.000
6	3.393	3.335	3.995	13815	747	18.487	0.000	 V 			0.380	61	2466.274	0.000	0.214	1.441	0	0	0.000	0.000

[Compound Results(Ch1)]
# of IDs	6
ID#	Name	R.Time	Area	Height	Conc.	Curve	3rd	2nd	1st	Constant	Area Ratio	Height Ratio	Conc. %	Norm Conc.
1	CO	1.472	9871	4904	0.000	Linear	0.000000e+00	0.000000e+00	0.000000e+00	0.000000e+00	0	0	0.000	0.000
2	CH4	1.564	4496	2280	21.920	Linear	0.000000e+00	0.000000e+00	2.051179e+002	0.000000e+00	0	0	7.958	7.958
3	CO2	1.989	1315594	631307	253.539	Linear	0.000000e+00	0.000000e+00	5.188919e+003	0.000000e+00	0	0	92.042	92.042
4	Ethylene	0.000	0	0	0.000	Linear	0.000000e+00	0.000000e+00	0.000000e+00	0.000000e+00	0	0	0.000	0.000
5	Acetylene	0.000	0	0	0.000	Linear	0.000000e+00	0.000000e+00	0.000000e+00	0.000000e+00	0	0	0.000	0.000
6	Ethane	0.000	0	0	0.000	Linear	0.000000e+00	0.000000e+00	0.000000e+00	0.000000e+00	0	0	0.000	0.000

[Compound Results(Ch2)]
# of IDs	5
ID#	Name	R.Time	Area	Height	Conc.	Curve	3rd	2nd	1st	Constant	Area Ratio	Height Ratio	Conc. %	Norm Conc.
1	Hydrogen	0.000	0	0	0.000	Linear	0.000000e+00	0.000000e+00	0.000000e+00	0.000000e+00	0	0	0.000	0.000
2	Oxygen	0.000	0	0	0.000	Linear	0.000000e+00	0.000000e+00	0.000000e+00	0.000000e+00	0	0	0.000	0.000
3	Nitrogen	0.000	0	0	0.000	Linear	0.000000e+00	0.000000e+00	0.000000e+00	0.000000e+00	0	0	0.000	0.000
4	Methane	0.000	0	0	0.000	Linear	0.000000e+00	0.000000e+00	0.000000e+00	0.000000e+00	0	0	0.000	0.000
5	Carbon Monoxide	0.000	0	0	0.000	Linear	0.000000e+00	0.000000e+00	0.000000e+00	0.000000e+00	0	0	0.000	0.000

[Compound Results(Ch3)]
# of IDs	2
ID#	Name	R.Time	Area	Height	Conc.	Curve	3rd	2nd	1st	Constant	Area Ratio	Height Ratio	Conc. %	Norm Conc.
1	N2O	2.891	16946	3885	0.251	Linear	0.000000e+00	0.000000e+00	6.759880e+004	0.000000e+00	0	0	100.000	100.000
2	SF6	3.107	16259	1088	0.000	Linear	0.000000e+00	0.000000e+00	0.000000e+00	0.000000e+00	0	0	0.000	0.000

[Group Results(Ch1)]
# of Groups	0

[Group Results(Ch2)]
# of Groups	0

[Group Results(Ch3)]
# of Groups	0

[Chromatogram (Ch1)]
Interval(msec)	220
# of Points	1091
Start Time(min)	0.002
End Time(min)	3.998
R.Time (min)	Intensity
0.00167	9
0.00533	9
0.00900	11
0.01267	11
0.01633	8
0.02000	1
0.02367	-6
0.02733	-12
0.03100	-15
0.03467	-14
0.03833	-11
0.04200	-6
0.04567	-0
0.04933	3
0.05300	0
0.05667	-5
0.06033	-8
0.06400	-11
0.06767	-15
0.07133	-15
0.07500	-10
0.07867	-3
0.08233	1
0.08600	2
0.08967	4
0.09333	5
0.09700	5
0.10067	6
0.10433	6
0.10800	5
0.11167	4
0.11533	2
0.11900	0
0.12267	-2
0.12633	-4
0.13000	-6
0.13367	-6
0.13733	-6
0.14100	-5
0.14467	-2
0.14833	-3
0.15200	-6
0.15567	-5
0.15933	-2
0.16300	1
0.16667	0
0.17033	-4
0.17400	-8
0.17767	-8
0.18133	-4
0.18500	-1
0.18867	4
0.19233	9
0.19600	13
0.19967	15
0.20333	18
0.20700	19
0.21067	19
0.21433	21
0.21800	26
0.22167	32
0.22533	39
0.22900	45
0.23267	49
0.23633	52
0.24000	56
0.24367	64
0.24733	75
0.25100	85
0.25467	96
0.25833	108
0.26200	120
0.26567	130
0.26933	138
0.27300	147
0.27667	154
0.28033	156
0.28400	159
0.28767	161
0.29133	163
0.29500	161
0.29867	158
0.30233	157
0.30600	160
0.30967	165
0.31333	173
0.31700	179
0.32067	182
0.32433	185
0.32800	185
0.33167	180
0.33533	169
0.33900	155
0.34267	142
0.34633	131
0.35000	122
0.35367	115
0.35733	109
0.36100	104
0.36467	101
0.36833	99
0.37200	98
0.37567	97
0.37933	94
0.38300	89
0.38667	81
0.39033	74
0.39400	67
0.39767	62
0.40133	60
0.40500	59
0.40867	55
0.41233	48
0.41600	40
0.41967	31
0.42333	27
0.42700	26
0.43067	22
0.43433	17
0.43800	12
0.44167	9
0.44533	8
0.44900	8
0.45267	5
0.45633	1
0.46000	-2
0.46367	-2
0.46733	-3
0.47100	-6
0.47467	-10
0.47833	-12
0.48200	-11
0.48567	-9
0.48933	-8
0.49300	-8
0.49667	-6
0.50033	-2
0.50400	4
0.50767	8
0.51133	11
0.51500	11
0.51867	11
0.52233	11
0.52600	11
0.52967	8
0.53333	1
0.53700	-5
0.54067	-11
0.54433	-12
0.54800	-9
0.55167	-5
0.55533	-2
0.55900	-4
0.56267	-7
0.56633	-10
0.57000	-11
0.57367	-9
0.57733	-8
0.58100	-10
0.58467	-12
0.58833	-13
0.59200	-12
0.59567	-11
0.59933	-9
0.60300	-6
0.60667	-3
0.61033	-3
0.61400	-2
0.61767	2
0.62133	6
0.62500	7
0.62867	6
0.63233	3
0.63600	1
0.63967	2
0.64333	3
0.64700	5
0.65067	7
0.65433	6
0.65800	3
0.66167	-3
0.66533	-11
0.66900	-16
0.67267	-17
0.67633	-13
0.68000	-10
0.68367	-10
0.68733	-13
0.69100	-13
0.69467	-9
0.69833	-4
0.70200	5
0.70567	13
0.70933	14
0.71300	12
0.71667	8
0.72033	3
0.72400	-2
0.72767	-5
0.73133	-6
0.73500	-12
0.73867	-19
0.74233	-23
0.74600	-21
0.74967	-16
0.75333	-10
0.75700	-5
0.76067	-2
0.76433	2
0.76800	8
0.77167	13
0.77533	16
0.77900	16
0.78267	11
0.78633	3
0.79000	-4
0.79367	-6
0.79733	-7
0.80100	-8
0.80467	-7
0.80833	-6
0.81200	-6
0.81567	-7
0.81933	-8
0.82300	-12
0.82667	-17
0.83033	-21
0.83400	-22
0.83767	-20
0.84133	-18
0.84500	-17
0.84867	-17
0.85233	-16
0.85600	-15
0.85967	-11
0.86333	-6
0.86700	-4
0.87067	-2
0.87433	1
0.87800	4
0.88167	4
0.88533	1
0.88900	-1
0.89267	-1
0.89633	-0
0.90000	-1
0.90367	-5
0.90733	-9
0.91100	-12
0.91467	-15
0.91833	-15
0.92200	-16
0.92567	-17
0.92933	-21
0.93300	-24
0.93667	-25
0.94033	-24
0.94400	-23
0.94767	-19
0.95133	-11
0.95500	0
0.95867	9
0.96233	12
0.96600	11
0.96967	4
0.97333	-4
0.97700	-9
0.98067	-12
0.98433	-13
0.98800	-16
0.99167	-18
0.99533	-19
0.99900	-21
1.00267	-22
1.00633	-21
1.01000	-19
1.01367	-17
1.01733	-17
1.02100	-19
1.02467	-22
1.02833	-26
1.03200	-28
1.03567	-26
1.03933	-25
1.04300	-22
1.04667	-18
1.05033	-15
1.05400	-18
1.05767	-18
1.06133	-16
1.06500	-16
1.06867	-21
1.07233	-27
1.07600	-32
1.07967	-35
1.08333	-37
1.08700	-36
1.09067	-35
1.09433	-36
1.09800	-38
1.10167	-38
1.10533	-36
1.10900	-33
1.11267	-31
1.11633	-30
1.12000	-29
1.12367	-25
1.12733	-21
1.13100	-16
1.13467	-11
1.13833	-9
1.14200	-9
1.14567	-10
1.14933	-14
1.15300	-17
1.15667	-21
1.16033	-27
1.16400	-32
1.16767	-34
1.17133	-35
1.17500	-35
1.17867	-34
1.18233	-32
1.18600	-30
1.18967	-27
1.19333	-21
1.19700	-14
1.20067	-10
1.20433	-7
1.20800	-7
1.21167	-9
1.21533	-12
1.21900	-16
1.22267	-19
1.22633	-26
1.23000	-31
1.23367	-35
1.23733	-35
1.24100	-31
1.24467	-24
1.24833	-16
1.25200	-10
1.25567	-7
1.25933	-6
1.26300	-7
1.26667	-12
1.27033	-19
1.27400	-28
1.27767	-36
1.28133	-39
1.28500	-37
1.28867	-32
1.29233	-26
1.29600	-25
1.29967	-25
1.30333	-22
1.30700	-19
1.31067	-17
1.31433	-19
1.31800	-24
1.32167	-27
1.32533	-28
1.32900	-32
1.33267	-34
1.33633	-35
1.34000	-37
1.34367	-39
1.34733	-42
1.35100	-46
1.35467	-51
1.35833	-52
1.36200	-52
1.36567	-53
1.36933	-53
1.37300	-52
1.37667	-48
1.38033	-42
1.38400	-38
1.38767	-36
1.39133	-37
1.39500	-38
1.39867	-42
1.40233	-47
1.40600	-52
1.40967	-55
1.41333	-55
1.41700	-54
1.42067	-50
1.42433	-44
1.42800	-38
1.43167	-32
1.43533	-25
1.43900	-9
1.44267	28
1.44633	200
1.45000	709
1.45367	1566
1.45733	2565
1.46100	3486
1.46467	4216
1.46833	4694
1.47200	4858
1.47567	4665
1.47933	4147
1.48300	3429
1.48667	2668
1.49033	1979
1.49400	1418
1.49767	994
1.50133	684
1.50500	463
1.50867	309
1.51233	206
1.51600	137
1.51967	93
1.52333	66
1.52700	48
1.53067	41
1.53433	65
1.53800	176
1.54167	430
1.54533	819
1.54900	1262
1.55267	1668
1.55633	1986
1.56000	2186
1.56367	2239
1.56733	2122
1.57100	1853
1.57467	1492
1.57833	1120
1.58200	794
1.58567	539
1.58933	350
1.59300	215
1.59667	122
1.60033	61
1.60400	23
1.60767	-1
1.61133	-16
1.61500	-27
1.61867	-37
1.62233	-41
1.62600	-39
1.62967	-33
1.63333	-31
1.63700	-31
1.64067	-35
1.64433	-39
1.64800	-43
1.65167	-47
1.65533	-51
1.65900	-51
1.66267	-49
1.66633	-49
1.67000	-48
1.67367	-49
1.67733	-50
1.68100	-51
1.68467	-53
1.68833	-58
1.69200	-62
1.69567	-63
1.69933	-62
1.70300	-58
1.70667	-53
1.71033	-51
1.71400	-54
1.71767	-58
1.72133	-61
1.72500	-61
1.72867	-56
1.73233	-49
1.73600	-47
1.73967	-47
1.74333	-47
1.74700	-48
1.75067	-49
1.75433	-51
1.75800	-53
1.76167	-55
1.76533	-57
1.76900	-58
1.77267	-57
1.77633	-57
1.78000	-59
1.78367	-62
1.78733	-63
1.79100	-62
1.79467	-61
1.79833	-62
1.80200	-63
1.80567	-63
1.80933	-62
1.81300	-61
1.81667	-62
1.82033	-63
1.82400	-63
1.82767	-64
1.83133	-66
1.83500	-69
1.83867	-71
1.84233	-74
1.84600	-80
1.84967	-87
1.85333	-91
1.85700	-90
1.86067	-89
1.86433	-88
1.86800	-84
1.87167	-75
1.87533	-67
1.87900	-62
1.88267	-59
1.88633	-56
1.89000	-54
1.89367	-54
1.89733	-55
1.90100	-57
1.90467	-59
1.90833	-62
1.91200	-68
1.91567	-75
1.91933	-79
1.92300	-76
1.92667	-71
1.93033	-64
1.93400	-56
1.93767	-48
1.94133	-40
1.94500	-28
1.94867	37
1.95233	452
1.95600	2514
1.95967	10199
1.96333	31891
1.96700	79173
1.97067	159760
1.97433	269376
1.97800	391346
1.98167	503899
1.98533	588202
1.98900	631257
1.99267	627483
1.99633	580114
2.00000	500761
2.00367	406039
2.00733	312065
2.01100	229881
2.01467	164239
2.01833	115114
2.02200	79984
2.02567	55620
2.02933	39048
2.03300	27892
2.03667	20399
2.04033	15347
2.04400	11904
2.04767	9520
2.05133	7834
2.05500	6613
2.05867	5710
2.06233	5023
2.06600	4484
2.06967	4053
2.07333	3700
2.07700	3404
2.08067	3144
2.08433	2915
2.08800	2718
2.09167	2549
2.09533	2401
2.09900	2271
2.10267	2156
2.10633	2050
2.11000	1952
2.11367	1861
2.11733	1778
2.12100	1701
2.12467	1629
2.12833	1563
2.13200	1502
2.13567	1442
2.13933	1389
2.14300	1340
2.14667	1294
2.15033	1247
2.15400	1203
2.15767	1159
2.16133	1113
2.16500	1064
2.16867	1020
2.17233	987
2.17600	966
2.17967	945
2.18333	917
2.18700	891
2.19067	867
2.19433	840
2.19800	815
2.20167	795
2.20533	779
2.20900	762
2.21267	745
2.21633	725
2.22000	704
2.22367	686
2.22733	673
2.23100	660
2.23467	649
2.23833	634
2.24200	614
2.24567	591
2.24933	569
2.25300	552
2.25667	537
2.26033	525
2.26400	513
2.26767	503
2.27133	491
2.27500	479
2.27867	470
2.28233	461
2.28600	452
2.28967	443
2.29333	431
2.29700	419
2.30067	407
2.30433	398
2.30800	389
2.31167	381
2.31533	376
2.31900	373
2.32267	373
2.32633	377
2.33000	376
2.33367	368
2.33733	357
2.34100	345
2.34467	333
2.34833	320
2.35200	309
2.35567	302
2.35933	297
2.36300	294
2.36667	292
2.37033	289
2.37400	283
2.37767	278
2.38133	274
2.38500	271
2.38867	271
2.39233	268
2.39600	261
2.39967	251
2.40333	240
2.40700	230
2.41067	222
2.41433	217
2.41800	214
2.42167	214
2.42533	213
2.42900	211
2.43267	208
2.43633	205
2.44000	202
2.44367	196
2.44733	189
2.45100	182
2.45467	179
2.45833	179
2.46200	179
2.46567	178
2.46933	175
2.47300	171
2.47667	167
2.48033	166
2.48400	169
2.48767	174
2.49133	174
2.49500	169
2.49867	163
2.50233	157
2.50600	153
2.50967	151
2.51333	150
2.51700	150
2.52067	154
2.52433	156
2.52800	155
2.53167	150
2.53533	145
2.53900	139
2.54267	133
2.54633	128
2.55000	126
2.55367	127
2.55733	127
2.56100	124
2.56467	121
2.56833	120
2.57200	120
2.57567	118
2.57933	113
2.58300	105
2.58667	100
2.59033	97
2.59400	95
2.59767	92
2.60133	88
2.60500	85
2.60867	83
2.61233	80
2.61600	80
2.61967	84
2.62333	91
2.62700	97
2.63067	98
2.63433	93
2.63800	88
2.64167	81
2.64533	72
2.64900	65
2.65267	60
2.65633	58
2.66000	58
2.66367	59
2.66733	60
2.67100	62
2.67467	63
2.67833	62
2.68200	61
2.68567	61
2.68933	64
2.69300	68
2.69667	72
2.70033	70
2.70400	63
2.70767	54
2.71133	46
2.71500	39
2.71867	36
2.72233	34
2.72600	31
2.72967	29
2.73333	30
2.73700	29
2.74067	29
2.74433	29
2.74800	29
2.75167	28
2.75533	25
2.75900	23
2.76267	25
2.76633	28
2.77000	28
2.77367	28
2.77733	31
2.78100	33
2.78467	35
2.78833	39
2.79200	44
2.79567	47
2.79933	48
2.80300	47
2.80667	40
2.81033	34
2.81400	29
2.81767	25
2.82133	22
2.82500	19
2.82867	15
2.83233	13
2.83600	11
2.83967	6
2.84333	0
2.84700	-5
2.85067	-8
2.85433	-11
2.85800	-12
2.86167	-12
2.86533	-8
2.86900	-4
2.87267	-5
2.87633	-4
2.88000	-1
2.88367	-1
2.88733	0
2.89100	-0
2.89467	-2
2.89833	-4
2.90200	-4
2.90567	-6
2.90933	-4
2.91300	1
2.91667	5
2.92033	6
2.92400	3
2.92767	3
2.93133	1
2.93500	-3
2.93867	-8
2.94233	-11
2.94600	-13
2.94967	-15
2.95333	-15
2.95700	-11
2.96067	-6
2.96433	-2
2.96800	0
2.97167	-0
2.97533	-4
2.97900	-8
2.98267	-8
2.98633	-6
2.99000	-5
2.99367	-7
2.99733	-10
3.00100	-10
3.00467	-8
3.00833	-4
3.01200	-2
3.01567	-4
3.01933	-10
3.02300	-16
3.02667	-20
3.03033	-24
3.03400	-28
3.03767	-29
3.04133	-28
3.04500	-25
3.04867	-21
3.05233	-16
3.05600	-11
3.05967	-7
3.06333	-8
3.06700	-12
3.07067	-14
3.07433	-14
3.07800	-13
3.08167	-13
3.08533	-16
3.08900	-17
3.09267	-15
3.09633	-10
3.10000	-6
3.10367	-5
3.10733	-9
3.11100	-16
3.11467	-24
3.11833	-32
3.12200	-36
3.12567	-38
3.12933	-40
3.13300	-43
3.13667	-47
3.14033	-51
3.14400	-55
3.14767	-55
3.15133	-50
3.15500	-43
3.15867	-36
3.16233	-31
3.16600	-28
3.16967	-27
3.17333	-28
3.17700	-31
3.18067	-34
3.18433	-35
3.18800	-38
3.19167	-43
3.19533	-47
3.19900	-49
3.20267	-49
3.20633	-49
3.21000	-48
3.21367	-44
3.21733	-35
3.22100	-25
3.22467	-21
3.22833	-23
3.23200	-30
3.23567	-35
3.23933	-37
3.24300	-38
3.24667	-40
3.25033	-43
3.25400	-45
3.25767	-48
3.26133	-49
3.26500	-47
3.26867	-42
3.27233	-37
3.27600	-37
3.27967	-43
3.28333	-48
3.28700	-47
3.29067	-43
3.29433	-39
3.29800	-38
3.30167	-39
3.30533	-43
3.30900	-48
3.31267	-53
3.31633	-55
3.32000	-55
3.32367	-52
3.32733	-50
3.33100	-49
3.33467	-50
3.33833	-51
3.34200	-51
3.34567	-50
3.34933	-48
3.35300	-48
3.35667	-50
3.36033	-55
3.36400	-59
3.36767	-63
3.37133	-66
3.37500	-69
3.37867	-69
3.38233	-67
3.38600	-66
3.38967	-67
3.39333	-66
3.39700	-63
3.40067	-59
3.40433	-56
3.40800	-57
3.41167	-56
3.41533	-54
3.41900	-53
3.42267	-53
3.42633	-53
3.43000	-53
3.43367	-56
3.43733	-61
3.44100	-65
3.44467	-68
3.44833	-68
3.45200	-68
3.45567	-69
3.45933	-71
3.46300	-72
3.46667	-72
3.47033	-75
3.47400	-79
3.47767	-82
3.48133	-84
3.48500	-83
3.48867	-82
3.49233	-78
3.49600	-73
3.49967	-69
3.50333	-68
3.50700	-66
3.51067	-63
3.51433	-61
3.51800	-61
3.52167	-62
3.52533	-61
3.52900	-61
3.53267	-61
3.53633	-61
3.54000	-63
3.54367	-64
3.54733	-65
3.55100	-66
3.55467	-67
3.55833	-67
3.56200	-67
3.56567	-66
3.56933	-66
3.57300	-67
3.57667	-69
3.58033	-70
3.58400	-72
3.58767	-74
3.59133	-72
3.59500	-66
3.59867	-65
3.60233	-70
3.60600	-76
3.60967	-76
3.61333	-75
3.61700	-74
3.62067	-72
3.62433	-70
3.62800	-64
3.63167	-56
3.63533	-48
3.63900	-48
3.64267	-54
3.64633	-63
3.65000	-72
3.65367	-78
3.65733	-81
3.66100	-83
3.66467	-87
3.66833	-89
3.67200	-88
3.67567	-86
3.67933	-83
3.68300	-80
3.68667	-78
3.69033	-79
3.69400	-81
3.69767	-81
3.70133	-81
3.70500	-81
3.70867	-81
3.71233	-82
3.71600	-84
3.71967	-86
3.72333	-85
3.72700	-81
3.73067	-77
3.73433	-75
3.73800	-75
3.74167	-74
3.74533	-74
3.74900	-76
3.75267	-79
3.75633	-81
3.76000	-80
3.76367	-80
3.76733	-78
3.77100	-75
3.77467	-73
3.77833	-74
3.78200	-78
3.78567	-83
3.78933	-84
3.79300	-83
3.79667	-82
3.80033	-82
3.80400	-82
3.80767	-83
3.81133	-88
3.81500	-90
3.81867	-88
3.82233	-88
3.82600	-89
3.82967	-90
3.83333	-92
3.83700	-94
3.84067	-96
3.84433	-99
3.84800	-103
3.85167	-104
3.85533	-102
3.85900	-99
3.86267	-94
3.86633	-86
3.87000	-80
3.87367	-75
3.87733	-74
3.88100	-77
3.88467	-80
3.88833	-82
3.89200	-86
3.89567	-90
3.89933	-93
3.90300	-89
3.90667	-81
3.91033	-76
3.91400	-73
3.91767	-73
3.92133	-77
3.92500	-83
3.92867	-87
3.93233	-91
3.93600	-95
3.93967	-99
3.94333	-100
3.94700	-98
3.95067	-97
3.95433	-96
3.95800	-96
3.96167	-97
3.96533	-98
3.96900	-98
3.97267	-94
3.97633	-92
3.98000	-92
3.98367	-94
3.98733	-98
3.99100	-100
3.99467	-101
3.99833	-102

[Chromatogram (Ch2)]
Interval(msec)	220
# of Points	1091
Start Time(min)	0.002
End Time(min)	3.998
R.Time (min)	Intensity
0.00167	-0
0.00533	-0
0.00900	-0
0.01267	-0
0.01633	-0
0.02000	-0
0.02367	-0
0.02733	0
0.03100	0
0.03467	0
0.03833	1
0.04200	0
0.04567	0
0.04933	0
0.05300	1
0.05667	1
0.06033	1
0.06400	1
0.06767	1
0.07133	0
0.07500	0
0.07867	0
0.08233	0
0.08600	0
0.08967	1
0.09333	1
0.09700	1
0.10067	1
0.10433	1
0.10800	2
0.11167	2
0.11533	2
0.11900	2
0.12267	2
0.12633	2
0.13000	2
0.13367	2
0.13733	2
0.14100	2
0.14467	2
0.14833	2
0.15200	2
0.15567	2
0.15933	2
0.16300	2
0.16667	2
0.17033	2
0.17400	2
0.17767	2
0.18133	1
0.18500	1
0.18867	1
0.19233	0
0.19600	0
0.19967	0
0.20333	0
0.20700	0
0.21067	0
0.21433	1
0.21800	1
0.22167	1
0.22533	1
0.22900	1
0.23267	2
0.23633	1
0.24000	1
0.24367	1
0.24733	1
0.25100	1
0.25467	0
0.25833	0
0.26200	0
0.26567	0
0.26933	0
0.27300	0
0.27667	0
0.28033	0
0.28400	0
0.28767	0
0.29133	0
0.29500	0
0.29867	-0
0.30233	-0
0.30600	-0
0.30967	-0
0.31333	-0
0.31700	-0
0.32067	-0
0.32433	-0
0.32800	-0
0.33167	-0
0.33533	-0
0.33900	-0
0.34267	-0
0.34633	-0
0.35000	-0
0.35367	-0
0.35733	-1
0.36100	-1
0.36467	-0
0.36833	-0
0.37200	-0
0.37567	0
0.37933	0
0.38300	1
0.38667	1
0.39033	1
0.39400	1
0.39767	1
0.40133	1
0.40500	1
0.40867	1
0.41233	1
0.41600	1
0.41967	1
0.42333	1
0.42700	1
0.43067	1
0.43433	1
0.43800	0
0.44167	1
0.44533	0
0.44900	0
0.45267	0
0.45633	0
0.46000	0
0.46367	0
0.46733	0
0.47100	-0
0.47467	-0
0.47833	-0
0.48200	-0
0.48567	-0
0.48933	-0
0.49300	0
0.49667	0
0.50033	1
0.50400	1
0.50767	1
0.51133	1
0.51500	1
0.51867	1
0.52233	1
0.52600	1
0.52967	1
0.53333	1
0.53700	1
0.54067	1
0.54433	1
0.54800	1
0.55167	1
0.55533	1
0.55900	1
0.56267	1
0.56633	1
0.57000	1
0.57367	1
0.57733	1
0.58100	1
0.58467	1
0.58833	1
0.59200	0
0.59567	0
0.59933	0
0.60300	0
0.60667	1
0.61033	1
0.61400	0
0.61767	0
0.62133	0
0.62500	0
0.62867	-0
0.63233	-0
0.63600	-0
0.63967	-0
0.64333	-0
0.64700	-0
0.65067	-0
0.65433	0
0.65800	0
0.66167	0
0.66533	0
0.66900	-0
0.67267	-0
0.67633	-0
0.68000	-0
0.68367	-0
0.68733	-0
0.69100	-0
0.69467	-0
0.69833	-0
0.70200	-0
0.70567	-0
0.70933	-0
0.71300	-0
0.71667	-0
0.72033	-0
0.72400	-0
0.72767	-0
0.73133	-0
0.73500	0
0.73867	0
0.74233	1
0.74600	1
0.74967	1
0.75333	1
0.75700	1
0.76067	1
0.76433	1
0.76800	1
0.77167	1
0.77533	1
0.77900	0
0.78267	0
0.78633	-0
0.79000	-0
0.79367	-0
0.79733	-0
0.80100	-0
0.80467	-1
0.80833	-0
0.81200	-0
0.81567	-0
0.81933	-0
0.82300	-0
0.82667	-0
0.83033	-0
0.83400	-0
0.83767	-0
0.84133	-0
0.84500	-0
0.84867	-1
0.85233	-1
0.85600	-1
0.85967	-1
0.86333	-1
0.86700	-1
0.87067	-1
0.87433	-1
0.87800	-1
0.88167	-1
0.88533	-1
0.88900	-1
0.89267	-1
0.89633	-1
0.90000	-1
0.90367	-1
0.90733	-1
0.91100	-1
0.91467	-2
0.91833	-2
0.92200	-2
0.92567	-2
0.92933	-2
0.93300	-1
0.93667	-1
0.94033	-1
0.94400	-1
0.94767	-1
0.95133	-1
0.95500	-1
0.95867	-1
0.96233	-1
0.96600	-1
0.96967	-1
0.97333	-0
0.97700	-0
0.98067	-0
0.98433	-0
0.98800	-0
0.99167	-0
0.99533	-0
0.99900	-0
1.00267	-0
1.00633	-1
1.01000	-1
1.01367	-1
1.01733	-1
1.02100	-1
1.02467	-1
1.02833	-1
1.03200	-1
1.03567	-1
1.03933	-1
1.04300	-1
1.04667	-1
1.05033	-1
1.05400	-1
1.05767	-1
1.06133	-2
1.06500	-2
1.06867	-2
1.07233	-2
1.07600	-2
1.07967	-2
1.08333	-2
1.08700	-2
1.09067	-2
1.09433	-2
1.09800	-2
1.10167	-1
1.10533	-2
1.10900	-2
1.11267	-2
1.11633	-2
1.12000	-2
1.12367	-2
1.12733	-2
1.13100	-2
1.13467	-2
1.13833	-2
1.14200	-1
1.14567	-1
1.14933	-1
1.15300	-1
1.15667	-1
1.16033	-1
1.16400	-1
1.16767	-1
1.17133	-1
1.17500	-1
1.17867	-1
1.18233	-1
1.18600	-1
1.18967	-1
1.19333	-1
1.19700	-1
1.20067	-1
1.20433	-1
1.20800	-1
1.21167	-1
1.21533	-2
1.21900	-2
1.22267	-2
1.22633	-2
1.23000	-2
1.23367	-1
1.23733	-1
1.24100	-1
1.24467	-1
1.24833	-1
1.25200	-1
1.25567	-1
1.25933	-1
1.26300	-2
1.26667	-2
1.27033	-2
1.27400	-2
1.27767	-2
1.28133	-2
1.28500	-2
1.28867	-2
1.29233	-2
1.29600	-2
1.29967	-2
1.30333	-2
1.30700	-2
1.31067	-2
1.31433	-2
1.31800	-2
1.32167	-2
1.32533	-2
1.32900	-2
1.33267	-2
1.33633	-1
1.34000	-1
1.34367	-1
1.34733	-1
1.35100	-1
1.35467	-1
1.35833	-1
1.36200	-1
1.36567	-1
1.36933	-1
1.37300	-1
1.37667	-2
1.38033	-2
1.38400	-2
1.38767	-2
1.39133	-2
1.39500	-2
1.39867	-2
1.40233	-2
1.40600	-2
1.40967	-2
1.41333	-2
1.41700	-2
1.42067	-2
1.42433	-2
1.42800	-2
1.43167	-2
1.43533	-2
1.43900	-2
1.44267	-2
1.44633	-2
1.45000	-2
1.45367	-2
1.45733	-2
1.46100	-1
1.46467	-1
1.46833	-2
1.47200	-2
1.47567	-2
1.47933	-2
1.48300	-2
1.48667	-2
1.49033	-2
1.49400	-1
1.49767	-1
1.50133	-1
1.50500	-1
1.50867	-1
1.51233	-1
1.51600	-2
1.51967	-2
1.52333	-2
1.52700	-2
1.53067	-2
1.53433	-2
1.53800	-2
1.54167	-1
1.54533	-1
1.54900	-1
1.55267	-1
1.55633	-1
1.56000	-1
1.56367	-1
1.56733	-1
1.57100	-1
1.57467	-1
1.57833	-1
1.58200	-1
1.58567	-1
1.58933	-2
1.59300	-2
1.59667	-3
1.60033	-4
1.60400	-5
1.60767	-7
1.61133	-8
1.61500	-11
1.61867	-13
1.62233	-15
1.62600	-18
1.62967	-20
1.63333	-23
1.63700	-26
1.64067	-29
1.64433	-32
1.64800	-36
1.65167	-39
1.65533	-42
1.65900	-46
1.66267	-50
1.66633	-54
1.67000	-58
1.67367	-62
1.67733	-67
1.68100	-72
1.68467	-76
1.68833	-80
1.69200	-83
1.69567	-86
1.69933	-88
1.70300	-90
1.70667	-92
1.71033	-93
1.71400	-94
1.71767	-95
1.72133	-96
1.72500	-96
1.72867	-96
1.73233	-96
1.73600	-95
1.73967	-95
1.74333	-94
1.74700	-94
1.75067	-94
1.75433	-94
1.75800	-95
1.76167	-96
1.76533	-96
1.76900	-97
1.77267	-98
1.77633	-98
1.78000	-99
1.78367	-99
1.78733	-99
1.79100	-99
1.79467	-98
1.79833	-98
1.80200	-98
1.80567	-98
1.80933	-99
1.81300	-99
1.81667	-100
1.82033	-100
1.82400	-100
1.82767	-100
1.83133	-99
1.83500	-99
1.83867	-99
1.84233	-99
1.84600	-99
1.84967	-99
1.85333	-99
1.85700	-98
1.86067	-98
1.86433	-98
1.86800	-98
1.87167	-98
1.87533	-98
1.87900	-98
1.88267	-99
1.88633	-99
1.89000	-99
1.89367	-99
1.89733	-99
1.90100	-99
1.90467	-99
1.90833	-98
1.91200	-98
1.91567	-97
1.91933	-96
1.92300	-95
1.92667	-95
1.93033	-94
1.93400	-94
1.93767	-94
1.94133	-93
1.94500	-93
1.94867	-94
1.95233	-93
1.95600	-93
1.95967	-93
1.96333	-93
1.96700	-94
1.97067	-94
1.97433	-93
1.97800	-93
1.98167	-93
1.98533	-93
1.98900	-93
1.99267	-94
1.99633	-94
2.00000	-93
2.00367	-93
2.00733	-93
2.01100	-92
2.01467	-92
2.01833	-91
2.02200	-90
2.02567	-90
2.02933	-89
2.03300	-89
2.03667	-89
2.04033	-88
2.04400	-88
2.04767	-88
2.05133	-87
2.05500	-87
2.05867	-87
2.06233	-87
2.06600	-87
2.06967	-87
2.07333	-87
2.07700	-86
2.08067	-86
2.08433	-86
2.08800	-86
2.09167	-86
2.09533	-86
2.09900	-86
2.10267	-85
2.10633	-84
2.11000	-84
2.11367	-83
2.11733	-82
2.12100	-82
2.12467	-81
2.12833	-81
2.13200	-80
2.13567	-80
2.13933	-81
2.14300	-81
2.14667	-82
2.15033	-82
2.15400	-81
2.15767	-81
2.16133	-80
2.16500	-80
2.16867	-80
2.17233	-80
2.17600	-81
2.17967	-81
2.18333	-80
2.18700	-80
2.19067	-79
2.19433	-78
2.19800	-77
2.20167	-76
2.20533	-76
2.20900	-75
2.21267	-75
2.21633	-75
2.22000	-75
2.22367	-75
2.22733	-74
2.23100	-74
2.23467	-74
2.23833	-73
2.24200	-73
2.24567	-73
2.24933	-72
2.25300	-72
2.25667	-73
2.26033	-73
2.26400	-74
2.26767	-74
2.27133	-75
2.27500	-75
2.27867	-74
2.28233	-74
2.28600	-73
2.28967	-72
2.29333	-71
2.29700	-71
2.30067	-70
2.30433	-70
2.30800	-70
2.31167	-70
2.31533	-69
2.31900	-69
2.32267	-68
2.32633	-68
2.33000	-67
2.33367	-67
2.33733	-67
2.34100	-66
2.34467	-65
2.34833	-64
2.35200	-63
2.35567	-62
2.35933	-61
2.36300	-60
2.36667	-59
2.37033	-57
2.37400	-54
2.37767	-51
2.38133	-48
2.38500	-44
2.38867	-41
2.39233	-37
2.39600	-33
2.39967	-29
2.40333	-25
2.40700	-21
2.41067	-17
2.41433	-14
2.41800	-11
2.42167	-8
2.42533	-6
2.42900	-4
2.43267	-2
2.43633	-1
2.44000	1
2.44367	2
2.44733	4
2.45100	6
2.45467	7
2.45833	8
2.46200	10
2.46567	10
2.46933	11
2.47300	12
2.47667	13
2.48033	14
2.48400	15
2.48767	15
2.49133	16
2.49500	16
2.49867	17
2.50233	17
2.50600	17
2.50967	17
2.51333	18
2.51700	18
2.52067	18
2.52433	18
2.52800	19
2.53167	19
2.53533	19
2.53900	18
2.54267	18
2.54633	18
2.55000	17
2.55367	16
2.55733	14
2.56100	13
2.56467	12
2.56833	11
2.57200	10
2.57567	10
2.57933	10
2.58300	11
2.58667	12
2.59033	13
2.59400	13
2.59767	14
2.60133	15
2.60500	15
2.60867	15
2.61233	16
2.61600	16
2.61967	17
2.62333	17
2.62700	17
2.63067	18
2.63433	18
2.63800	18
2.64167	19
2.64533	19
2.64900	19
2.65267	20
2.65633	20
2.66000	20
2.66367	21
2.66733	21
2.67100	21
2.67467	22
2.67833	22
2.68200	22
2.68567	23
2.68933	23
2.69300	23
2.69667	24
2.70033	24
2.70400	25
2.70767	25
2.71133	26
2.71500	26
2.71867	27
2.72233	27
2.72600	28
2.72967	28
2.73333	28
2.73700	28
2.74067	28
2.74433	28
2.74800	28
2.75167	27
2.75533	27
2.75900	26
2.76267	26
2.76633	26
2.77000	26
2.77367	26
2.77733	26
2.78100	27
2.78467	27
2.78833	27
2.79200	27
2.79567	27
2.79933	28
2.80300	28
2.80667	28
2.81033	28
2.81400	28
2.81767	28
2.82133	28
2.82500	28
2.82867	28
2.83233	28
2.83600	28
2.83967	27
2.84333	27
2.84700	27
2.85067	27
2.85433	27
2.85800	26
2.86167	23
2.86533	19
2.86900	12
2.87267	1
2.87633	-13
2.88000	-33
2.88367	-57
2.88733	-88
2.89100	-123
2.89467	-164
2.89833	-210
2.90200	-260
2.90567	-315
2.90933	-373
2.91300	-434
2.91667	-497
2.92033	-562
2.92400	-627
2.92767	-691
2.93133	-754
2.93500	-815
2.93867	-872
2.94233	-927
2.94600	-982
2.94967	-1038
2.95333	-1086
2.95700	-1118
2.96067	-1126
2.96433	-1109
2.96800	-1069
2.97167	-1011
2.97533	-939
2.97900	-860
2.98267	-778
2.98633	-697
2.99000	-618
2.99367	-544
2.99733	-475
3.00100	-413
3.00467	-356
3.00833	-307
3.01200	-262
3.01567	-224
3.01933	-190
3.02300	-161
3.02667	-136
3.03033	-114
3.03400	-95
3.03767	-79
3.04133	-65
3.04500	-53
3.04867	-43
3.05233	-34
3.05600	-27
3.05967	-21
3.06333	-15
3.06700	-11
3.07067	-7
3.07433	-3
3.07800	-0
3.08167	2
3.08533	4
3.08900	6
3.09267	8
3.09633	9
3.10000	11
3.10367	12
3.10733	13
3.11100	14
3.11467	15
3.11833	15
3.12200	16
3.12567	17
3.12933	17
3.13300	18
3.13667	18
3.14033	18
3.14400	19
3.14767	19
3.15133	19
3.15500	19
3.15867	20
3.16233	20
3.16600	20
3.16967	20
3.17333	20
3.17700	20
3.18067	20
3.18433	20
3.18800	21
3.19167	21
3.19533	21
3.19900	22
3.20267	22
3.20633	22
3.21000	22
3.21367	23
3.21733	23
3.22100	23
3.22467	23
3.22833	24
3.23200	24
3.23567	24
3.23933	25
3.24300	25
3.24667	26
3.25033	26
3.25400	26
3.25767	27
3.26133	27
3.26500	27
3.26867	27
3.27233	28
3.27600	28
3.27967	28
3.28333	28
3.28700	28
3.29067	29
3.29433	29
3.29800	29
3.30167	29
3.30533	29
3.30900	29
3.31267	29
3.31633	29
3.32000	29
3.32367	29
3.32733	29
3.33100	29
3.33467	29
3.33833	29
3.34200	29
3.34567	29
3.34933	29
3.35300	29
3.35667	29
3.36033	29
3.36400	29
3.36767	29
3.37133	29
3.37500	29
3.37867	29
3.38233	29
3.38600	29
3.38967	29
3.39333	29
3.39700	29
3.40067	29
3.40433	29
3.40800	29
3.41167	29
3.41533	29
3.41900	29
3.42267	29
3.42633	29
3.43000	28
3.43367	28
3.43733	28
3.44100	28
3.44467	28
3.44833	28
3.45200	28
3.45567	28
3.45933	28
3.46300	28
3.46667	29
3.47033	29
3.47400	29
3.47767	29
3.48133	29
3.48500	29
3.48867	29
3.49233	29
3.49600	29
3.49967	29
3.50333	29
3.50700	29
3.51067	28
3.51433	28
3.51800	28
3.52167	28
3.52533	28
3.52900	28
3.53267	28
3.53633	28
3.54000	28
3.54367	29
3.54733	29
3.55100	29
3.55467	29
3.55833	29
3.56200	29
3.56567	29
3.56933	29
3.57300	29
3.57667	28
3.58033	28
3.58400	28
3.58767	28
3.59133	28
3.59500	28
3.59867	28
3.60233	28
3.60600	28
3.60967	29
3.61333	29
3.61700	29
3.62067	29
3.62433	29
3.62800	29
3.63167	28
3.63533	28
3.63900	29
3.64267	29
3.64633	29
3.65000	29
3.65367	29
3.65733	29
3.66100	29
3.66467	29
3.66833	29
3.67200	29
3.67567	29
3.67933	29
3.68300	29
3.68667	29
3.69033	29
3.69400	29
3.69767	29
3.70133	29
3.70500	29
3.70867	29
3.71233	29
3.71600	29
3.71967	29
3.72333	29
3.72700	30
3.73067	30
3.73433	30
3.73800	30
3.74167	30
3.74533	30
3.74900	30
3.75267	30
3.75633	30
3.76000	30
3.76367	30
3.76733	30
3.77100	30
3.77467	30
3.77833	30
3.78200	30
3.78567	30
3.78933	30
3.79300	30
3.79667	30
3.80033	30
3.80400	30
3.80767	30
3.81133	30
3.81500	30
3.81867	30
3.82233	30
3.82600	30
3.82967	30
3.83333	30
3.83700	30
3.84067	30
3.84433	30
3.84800	30
3.85167	30
3.85533	30
3.85900	30
3.86267	30
3.86633	30
3.87000	31
3.87367	31
3.87733	30
3.88100	30
3.88467	30
3.88833	30
3.89200	30
3.89567	30
3.89933	30
3.90300	30
3.90667	30
3.91033	30
3.91400	30
3.91767	30
3.92133	30
3.92500	30
3.92867	30
3.93233	30
3.93600	30
3.93967	29
3.94333	29
3.94700	29
3.95067	29
3.95433	29
3.95800	29
3.96167	29
3.96533	29
3.96900	29
3.97267	30
3.97633	30
3.98000	30
3.98367	30
3.98733	30
3.99100	30
3.99467	29
3.99833	29

[Chromatogram (Ch3)]
Interval(msec)	220
# of Points	1091
Start Time(min)	0.002
End Time(min)	3.998
R.Time (min)	Intensity
0.00167	0
0.00533	1
0.00900	-1
0.01267	-3
0.01633	-4
0.02000	-1
0.02367	1
0.02733	1
0.03100	1
0.03467	1
0.03833	4
0.04200	4
0.04567	2
0.04933	2
0.05300	1
0.05667	2
0.06033	3
0.06400	6
0.06767	6
0.07133	6
0.07500	6
0.07867	8
0.08233	10
0.08600	10
0.08967	10
0.09333	8
0.09700	7
0.10067	5
0.10433	4
0.10800	4
0.11167	4
0.11533	3
0.11900	2
0.12267	-1
0.12633	-1
0.13000	0
0.13367	3
0.13733	8
0.14100	10
0.14467	12
0.14833	12
0.15200	12
0.15567	11
0.15933	9
0.16300	8
0.16667	9
0.17033	8
0.17400	5
0.17767	3
0.18133	2
0.18500	2
0.18867	5
0.19233	8
0.19600	10
0.19967	9
0.20333	7
0.20700	7
0.21067	8
0.21433	12
0.21800	14
0.22167	15
0.22533	15
0.22900	14
0.23267	13
0.23633	12
0.24000	16
0.24367	16
0.24733	11
0.25100	8
0.25467	5
0.25833	4
0.26200	3
0.26567	2
0.26933	2
0.27300	1
0.27667	4
0.28033	8
0.28400	10
0.28767	10
0.29133	11
0.29500	13
0.29867	13
0.30233	12
0.30600	10
0.30967	6
0.31333	5
0.31700	7
0.32067	8
0.32433	10
0.32800	11
0.33167	8
0.33533	8
0.33900	10
0.34267	12
0.34633	14
0.35000	16
0.35367	16
0.35733	14
0.36100	14
0.36467	13
0.36833	13
0.37200	11
0.37567	11
0.37933	11
0.38300	8
0.38667	7
0.39033	9
0.39400	10
0.39767	10
0.40133	11
0.40500	11
0.40867	10
0.41233	10
0.41600	12
0.41967	15
0.42333	16
0.42700	16
0.43067	16
0.43433	14
0.43800	11
0.44167	8
0.44533	7
0.44900	6
0.45267	6
0.45633	6
0.46000	7
0.46367	9
0.46733	13
0.47100	14
0.47467	14
0.47833	15
0.48200	15
0.48567	14
0.48933	12
0.49300	10
0.49667	10
0.50033	15
0.50400	21
0.50767	22
0.51133	20
0.51500	17
0.51867	16
0.52233	17
0.52600	18
0.52967	19
0.53333	17
0.53700	17
0.54067	16
0.54433	13
0.54800	11
0.55167	10
0.55533	9
0.55900	7
0.56267	5
0.56633	4
0.57000	6
0.57367	8
0.57733	9
0.58100	10
0.58467	9
0.58833	11
0.59200	15
0.59567	16
0.59933	15
0.60300	15
0.60667	16
0.61033	18
0.61400	20
0.61767	20
0.62133	20
0.62500	18
0.62867	16
0.63233	15
0.63600	17
0.63967	17
0.64333	16
0.64700	14
0.65067	13
0.65433	13
0.65800	13
0.66167	15
0.66533	15
0.66900	12
0.67267	13
0.67633	14
0.68000	14
0.68367	14
0.68733	15
0.69100	17
0.69467	19
0.69833	20
0.70200	20
0.70567	20
0.70933	16
0.71300	13
0.71667	13
0.72033	15
0.72400	20
0.72767	22
0.73133	25
0.73500	23
0.73867	21
0.74233	21
0.74600	15
0.74967	10
0.75333	10
0.75700	12
0.76067	14
0.76433	13
0.76800	10
0.77167	6
0.77533	4
0.77900	4
0.78267	6
0.78633	9
0.79000	11
0.79367	13
0.79733	14
0.80100	15
0.80467	17
0.80833	19
0.81200	22
0.81567	22
0.81933	21
0.82300	23
0.82667	25
0.83033	23
0.83400	19
0.83767	17
0.84133	18
0.84500	17
0.84867	17
0.85233	16
0.85600	16
0.85967	17
0.86333	19
0.86700	20
0.87067	22
0.87433	23
0.87800	23
0.88167	23
0.88533	24
0.88900	26
0.89267	27
0.89633	23
0.90000	22
0.90367	22
0.90733	23
0.91100	23
0.91467	19
0.91833	17
0.92200	17
0.92567	20
0.92933	22
0.93300	23
0.93667	22
0.94033	20
0.94400	17
0.94767	16
0.95133	17
0.95500	20
0.95867	21
0.96233	21
0.96600	20
0.96967	18
0.97333	18
0.97700	19
0.98067	21
0.98433	22
0.98800	20
0.99167	19
0.99533	18
0.99900	20
1.00267	19
1.00633	19
1.01000	20
1.01367	19
1.01733	17
1.02100	18
1.02467	19
1.02833	20
1.03200	22
1.03567	23
1.03933	24
1.04300	26
1.04667	26
1.05033	22
1.05400	20
1.05767	18
1.06133	16
1.06500	15
1.06867	14
1.07233	15
1.07600	18
1.07967	21
1.08333	22
1.08700	22
1.09067	22
1.09433	22
1.09800	20
1.10167	19
1.10533	20
1.10900	21
1.11267	22
1.11633	22
1.12000	21
1.12367	22
1.12733	21
1.13100	18
1.13467	14
1.13833	14
1.14200	14
1.14567	16
1.14933	20
1.15300	21
1.15667	22
1.16033	23
1.16400	24
1.16767	26
1.17133	26
1.17500	25
1.17867	24
1.18233	24
1.18600	20
1.18967	18
1.19333	18
1.19700	19
1.20067	20
1.20433	22
1.20800	23
1.21167	26
1.21533	27
1.21900	26
1.22267	26
1.22633	23
1.23000	20
1.23367	21
1.23733	24
1.24100	27
1.24467	29
1.24833	29
1.25200	31
1.25567	31
1.25933	33
1.26300	30
1.26667	28
1.27033	25
1.27400	22
1.27767	19
1.28133	18
1.28500	18
1.28867	18
1.29233	20
1.29600	20
1.29967	17
1.30333	16
1.30700	17
1.31067	20
1.31433	21
1.31800	20
1.32167	20
1.32533	21
1.32900	23
1.33267	24
1.33633	25
1.34000	26
1.34367	27
1.34733	28
1.35100	26
1.35467	23
1.35833	22
1.36200	20
1.36567	18
1.36933	15
1.37300	16
1.37667	18
1.38033	20
1.38400	20
1.38767	21
1.39133	20
1.39500	19
1.39867	19
1.40233	16
1.40600	17
1.40967	20
1.41333	20
1.41700	21
1.42067	20
1.42433	17
1.42800	16
1.43167	15
1.43533	15
1.43900	16
1.44267	20
1.44633	20
1.45000	18
1.45367	14
1.45733	12
1.46100	13
1.46467	15
1.46833	17
1.47200	18
1.47567	20
1.47933	21
1.48300	18
1.48667	17
1.49033	13
1.49400	11
1.49767	13
1.50133	14
1.50500	15
1.50867	16
1.51233	18
1.51600	18
1.51967	18
1.52333	18
1.52700	16
1.53067	17
1.53433	19
1.53800	21
1.54167	22
1.54533	22
1.54900	21
1.55267	21
1.55633	18
1.56000	16
1.56367	17
1.56733	18
1.57100	15
1.57467	10
1.57833	9
1.58200	12
1.58567	15
1.58933	17
1.59300	18
1.59667	17
1.60033	15
1.60400	13
1.60767	15
1.61133	21
1.61500	23
1.61867	24
1.62233	26
1.62600	25
1.62967	26
1.63333	29
1.63700	28
1.64067	28
1.64433	28
1.64800	29
1.65167	30
1.65533	29
1.65900	28
1.66267	28
1.66633	29
1.67000	30
1.67367	32
1.67733	31
1.68100	29
1.68467	29
1.68833	31
1.69200	30
1.69567	29
1.69933	29
1.70300	29
1.70667	29
1.71033	28
1.71400	26
1.71767	25
1.72133	25
1.72500	25
1.72867	25
1.73233	27
1.73600	27
1.73967	27
1.74333	28
1.74700	28
1.75067	27
1.75433	26
1.75800	29
1.76167	29
1.76533	30
1.76900	29
1.77267	28
1.77633	27
1.78000	24
1.78367	23
1.78733	25
1.79100	27
1.79467	29
1.79833	31
1.80200	32
1.80567	35
1.80933	35
1.81300	35
1.81667	35
1.82033	35
1.82400	36
1.82767	37
1.83133	37
1.83500	36
1.83867	31
1.84233	29
1.84600	27
1.84967	26
1.85333	26
1.85700	26
1.86067	27
1.86433	28
1.86800	31
1.87167	32
1.87533	35
1.87900	36
1.88267	39
1.88633	42
1.89000	45
1.89367	48
1.89733	48
1.90100	46
1.90467	44
1.90833	42
1.91200	40
1.91567	41
1.91933	41
1.92300	42
1.92667	41
1.93033	40
1.93400	38
1.93767	36
1.94133	36
1.94500	37
1.94867	39
1.95233	39
1.95600	36
1.95967	36
1.96333	39
1.96700	44
1.97067	49
1.97433	51
1.97800	52
1.98167	55
1.98533	56
1.98900	56
1.99267	55
1.99633	55
2.00000	59
2.00367	59
2.00733	56
2.01100	52
2.01467	50
2.01833	52
2.02200	54
2.02567	56
2.02933	59
2.03300	63
2.03667	66
2.04033	65
2.04400	62
2.04767	62
2.05133	62
2.05500	61
2.05867	61
2.06233	61
2.06600	60
2.06967	60
2.07333	59
2.07700	58
2.08067	60
2.08433	63
2.08800	64
2.09167	63
2.09533	60
2.09900	62
2.10267	64
2.10633	64
2.11000	64
2.11367	66
2.11733	69
2.12100	72
2.12467	69
2.12833	66
2.13200	65
2.13567	67
2.13933	70
2.14300	70
2.14667	69
2.15033	70
2.15400	68
2.15767	67
2.16133	70
2.16500	74
2.16867	73
2.17233	75
2.17600	77
2.17967	77
2.18333	76
2.18700	77
2.19067	77
2.19433	79
2.19800	80
2.20167	77
2.20533	75
2.20900	74
2.21267	75
2.21633	76
2.22000	78
2.22367	80
2.22733	78
2.23100	74
2.23467	73
2.23833	76
2.24200	78
2.24567	83
2.24933	87
2.25300	86
2.25667	82
2.26033	80
2.26400	82
2.26767	84
2.27133	88
2.27500	91
2.27867	93
2.28233	93
2.28600	93
2.28967	93
2.29333	91
2.29700	89
2.30067	90
2.30433	91
2.30800	93
2.31167	95
2.31533	97
2.31900	99
2.32267	97
2.32633	97
2.33000	99
2.33367	102
2.33733	102
2.34100	98
2.34467	94
2.34833	94
2.35200	96
2.35567	97
2.35933	96
2.36300	97
2.36667	98
2.37033	99
2.37400	101
2.37767	103
2.38133	101
2.38500	96
2.38867	89
2.39233	90
2.39600	98
2.39967	107
2.40333	114
2.40700	118
2.41067	121
2.41433	123
2.41800	122
2.42167	120
2.42533	121
2.42900	124
2.43267	126
2.43633	125
2.44000	132
2.44367	170
2.44733	226
2.45100	267
2.45467	291
2.45833	292
2.46200	280
2.46567	268
2.46933	259
2.47300	248
2.47667	231
2.48033	210
2.48400	188
2.48767	169
2.49133	155
2.49500	145
2.49867	142
2.50233	144
2.50600	147
2.50967	155
2.51333	160
2.51700	160
2.52067	155
2.52433	147
2.52800	134
2.53167	123
2.53533	114
2.53900	102
2.54267	91
2.54633	84
2.55000	79
2.55367	79
2.55733	80
2.56100	80
2.56467	81
2.56833	83
2.57200	84
2.57567	87
2.57933	91
2.58300	100
2.58667	108
2.59033	113
2.59400	121
2.59767	128
2.60133	133
2.60500	135
2.60867	136
2.61233	137
2.61600	135
2.61967	129
2.62333	121
2.62700	114
2.63067	108
2.63433	102
2.63800	95
2.64167	88
2.64533	84
2.64900	80
2.65267	76
2.65633	74
2.66000	69
2.66367	62
2.66733	58
2.67100	58
2.67467	59
2.67833	59
2.68200	61
2.68567	64
2.68933	64
2.69300	60
2.69667	58
2.70033	57
2.70400	56
2.70767	56
2.71133	56
2.71500	57
2.71867	60
2.72233	61
2.72600	65
2.72967	68
2.73333	70
2.73700	68
2.74067	66
2.74433	67
2.74800	70
2.75167	74
2.75533	77
2.75900	80
2.76267	84
2.76633	89
2.77000	96
2.77367	100
2.77733	104
2.78100	111
2.78467	115
2.78833	116
2.79200	118
2.79567	120
2.79933	121
2.80300	123
2.80667	127
2.81033	131
2.81400	130
2.81767	126
2.82133	123
2.82500	121
2.82867	123
2.83233	128
2.83600	133
2.83967	146
2.84333	179
2.84700	245
2.85067	358
2.85433	536
2.85800	791
2.86167	1128
2.86533	1536
2.86900	1990
2.87267	2460
2.87633	2903
2.88000	3283
2.88367	3569
2.88733	3741
2.89100	3800
2.89467	3755
2.89833	3623
2.90200	3425
2.90567	3184
2.90933	2919
2.91300	2648
2.91667	2383
2.92033	2129
2.92400	1889
2.92767	1669
2.93133	1467
2.93500	1289
2.93867	1134
2.94233	996
2.94600	875
2.94967	771
2.95333	681
2.95700	604
2.96067	535
2.96433	474
2.96800	421
2.97167	377
2.97533	337
2.97900	304
2.98267	276
2.98633	252
2.99000	233
2.99367	216
2.99733	202
3.00100	193
3.00467	183
3.00833	169
3.01200	124
3.01567	9
3.01933	-95
3.02300	-129
3.02667	-91
3.03033	1
3.03400	123
3.03767	256
3.04133	387
3.04500	507
3.04867	612
3.05233	701
3.05600	770
3.05967	826
3.06333	872
3.06700	907
3.07067	935
3.07433	958
3.07800	973
3.08167	983
3.08533	990
3.08900	995
3.09267	998
3.09633	1000
3.10000	1005
3.10367	1009
3.10733	1012
3.11100	1010
3.11467	1004
3.11833	999
3.12200	997
3.12567	993
3.12933	988
3.13300	984
3.13667	980
3.14033	979
3.14400	980
3.14767	977
3.15133	974
3.15500	972
3.15867	968
3.16233	963
3.16600	957
3.16967	952
3.17333	947
3.17700	944
3.18067	940
3.18433	936
3.18800	933
3.19167	933
3.19533	930
3.19900	926
3.20267	923
3.20633	918
3.21000	911
3.21367	903
3.21733	894
3.22100	888
3.22467	884
3.22833	880
3.23200	874
3.23567	869
3.23933	865
3.24300	861
3.24667	855
3.25033	847
3.25400	842
3.25767	835
3.26133	828
3.26500	827
3.26867	825
3.27233	823
3.27600	822
3.27967	818
3.28333	812
3.28700	804
3.29067	799
3.29433	798
3.29800	796
3.30167	795
3.30533	794
3.30900	792
3.31267	788
3.31633	785
3.32000	785
3.32367	785
3.32733	783
3.33100	784
3.33467	786
3.33833	788
3.34200	793
3.34567	799
3.34933	803
3.35300	805
3.35667	810
3.36033	815
3.36400	818
3.36767	820
3.37133	824
3.37500	832
3.37867	839
3.38233	843
3.38600	848
3.38967	850
3.39333	853
3.39700	854
3.40067	856
3.40433	857
3.40800	860
3.41167	864
3.41533	863
3.41900	858
3.42267	853
3.42633	850
3.43000	846
3.43367	842
3.43733	839
3.44100	835
3.44467	829
3.44833	822
3.45200	813
3.45567	803
3.45933	792
3.46300	782
3.46667	774
3.47033	767
3.47400	762
3.47767	755
3.48133	748
3.48500	739
3.48867	728
3.49233	714
3.49600	702
3.49967	695
3.50333	692
3.50700	689
3.51067	685
3.51433	680
3.51800	676
3.52167	670
3.52533	666
3.52900	666
3.53267	662
3.53633	656
3.54000	652
3.54367	648
3.54733	644
3.55100	640
3.55467	638
3.55833	635
3.56200	631
3.56567	632
3.56933	636
3.57300	635
3.57667	629
3.58033	621
3.58400	614
3.58767	610
3.59133	607
3.59500	606
3.59867	606
3.60233	608
3.60600	609
3.60967	607
3.61333	604
3.61700	602
3.62067	599
3.62433	595
3.62800	589
3.63167	585
3.63533	582
3.63900	579
3.64267	577
3.64633	577
3.65000	575
3.65367	574
3.65733	575
3.66100	576
3.66467	575
3.66833	573
3.67200	573
3.67567	573
3.67933	573
3.68300	573
3.68667	574
3.69033	573
3.69400	574
3.69767	573
3.70133	573
3.70500	574
3.70867	572
3.71233	568
3.71600	567
3.71967	565
3.72333	566
3.72700	565
3.73067	565
3.73433	566
3.73800	568
3.74167	568
3.74533	567
3.74900	565
3.75267	562
3.75633	560
3.76000	559
3.76367	559
3.76733	558
3.77100	556
3.77467	555
3.77833	552
3.78200	550
3.78567	550
3.78933	549
3.79300	547
3.79667	545
3.80033	544
3.80400	544
3.80767	545
3.81133	546
3.81500	547
3.81867	545
3.82233	541
3.82600	537
3.82967	535
3.83333	534
3.83700	535
3.84067	537
3.84433	536
3.84800	533
3.85167	531
3.85533	528
3.85900	526
3.86267	526
3.86633	526
3.87000	524
3.87367	522
3.87733	518
3.88100	516
3.88467	518
3.88833	519
3.89200	520
3.89567	521
3.89933	522
3.90300	521
3.90667	518
3.91033	515
3.91400	513
3.91767	511
3.92133	510
3.92500	509
3.92867	507
3.93233	503
3.93600	500
3.93967	497
3.94333	496
3.94700	497
3.95067	496
3.95433	497
3.95800	498
3.96167	497
3.96533	496
3.96900	496
3.97267	497
3.97633	497
3.98000	492
3.98367	491
3.98733	490
3.99100	490
3.99467	487
3.99833	478

[Status Trace (Column Oven Temperature)]
Interval(msec)	1000
# of Points	240
Start Time(min)	0.004
End Time(min)	3.988
Intensity Units	
Intensity Multiplier	1
R.Time (min)	Intensity
0.00447	35.06
0.02113	35.06
0.03780	35.06
0.05447	35.06
0.07113	35.05
0.08780	35.06
0.10447	35.06
0.12113	35.06
0.13780	35.04
0.15447	35.03
0.17113	35.04
0.18780	35.04
0.20447	35.02
0.22113	35.02
0.23780	35.02
0.25447	35.01
0.27113	35.01
0.28780	35.02
0.30447	35.02
0.32113	35.02
0.33780	35.01
0.35447	35.02
0.37113	35.02
0.38780	35.01
0.40447	35.01
0.42113	35.00
0.43780	35.01
0.45447	35.01
0.47113	35.01
0.48780	35.01
0.50447	35.01
0.52113	35.00
0.53780	35.00
0.55447	35.00
0.57113	35.01
0.58780	35.01
0.60447	35.00
0.62113	35.01
0.63780	35.00
0.65447	35.00
0.67113	35.00
0.68780	35.00
0.70447	35.00
0.72113	35.00
0.73780	35.00
0.75447	35.00
0.77113	35.00
0.78780	34.99
0.80447	35.00
0.82113	34.99
0.83780	34.99
0.85447	35.00
0.87113	35.00
0.88780	35.00
0.90447	35.00
0.92113	35.00
0.93780	35.01
0.95447	34.99
0.97113	35.00
0.98780	35.00
1.00447	34.99
1.02113	34.99
1.03780	34.99
1.05447	34.99
1.07113	35.00
1.08780	35.00
1.10447	35.00
1.12113	35.00
1.13780	34.99
1.15447	34.99
1.17113	34.99
1.18780	34.98
1.20447	34.98
1.22113	35.00
1.23780	35.00
1.25447	35.00
1.27113	34.99
1.28780	34.99
1.30447	34.99
1.32113	34.98
1.33780	34.98
1.35447	34.99
1.37113	34.99
1.38780	34.99
1.40447	34.99
1.42113	34.99
1.43780	34.99
1.45447	34.99
1.47113	34.99
1.48780	34.99
1.50447	34.99
1.52113	34.99
1.53780	34.99
1.55447	35.00
1.57113	34.99
1.58780	34.99
1.60447	35.03
1.62113	35.14
1.63780	35.30
1.65447	35.53
1.67113	35.86
1.68780	36.22
1.70447	36.58
1.72113	36.93
1.73780	37.25
1.75447	37.59
1.77113	37.93
1.78780	38.25
1.80447	38.59
1.82113	38.92
1.83780	39.25
1.85447	39.56
1.87113	39.90
1.88780	40.23
1.90447	40.57
1.92113	40.88
1.93780	41.20
1.95447	41.53
1.97113	41.86
1.98780	42.19
2.00447	42.53
2.02113	42.83
2.03780	43.16
2.05447	43.49
2.07113	43.80
2.08780	44.15
2.10447	44.47
2.12113	44.78
2.13780	45.11
2.15447	45.43
2.17113	45.78
2.18780	46.10
2.20447	46.41
2.22113	46.75
2.23780	47.06
2.25447	47.42
2.27113	47.78
2.28780	48.11
2.30447	48.44
2.32113	48.77
2.33780	49.08
2.35447	49.37
2.37113	49.59
2.38780	49.68
2.40447	49.68
2.42113	49.67
2.43780	49.70
2.45447	49.70
2.47113	49.70
2.48780	49.71
2.50447	49.72
2.52113	49.73
2.53780	49.73
2.55447	49.76
2.57113	49.79
2.58780	49.79
2.60447	49.81
2.62113	49.81
2.63780	49.82
2.65447	49.84
2.67113	49.84
2.68780	49.86
2.70447	49.87
2.72113	49.86
2.73780	49.85
2.75447	49.87
2.77113	49.87
2.78780	49.88
2.80447	49.87
2.82113	49.88
2.83780	49.90
2.85447	49.90
2.87113	49.91
2.88780	49.92
2.90447	49.93
2.92113	49.95
2.93780	49.96
2.95447	49.97
2.97113	49.99
2.98780	50.00
3.00447	50.01
3.02113	50.01
3.03780	50.02
3.05447	50.04
3.07113	50.05
3.08780	50.05
3.10447	50.05
3.12113	50.05
3.13780	50.06
3.15447	50.06
3.17113	50.08
3.18780	50.09
3.20447	50.10
3.22113	50.11
3.23780	50.11
3.25447	50.09
3.27113	50.08
3.28780	50.07
3.30447	50.07
3.32113	50.06
3.33780	50.06
3.35447	50.05
3.37113	50.04
3.38780	50.04
3.40447	50.04
3.42113	50.05
3.43780	50.05
3.45447	50.06
3.47113	50.05
3.48780	50.05
3.50447	50.05
3.52113	50.05
3.53780	50.06
3.55447	50.06
3.57113	50.06
3.58780	50.06
3.60447	50.07
3.62113	50.06
3.63780	50.06
3.65447	50.07
3.67113	50.07
3.68780	50.08
3.70447	50.07
3.72113	50.08
3.73780	50.09
3.75447	50.09
3.77113	50.09
3.78780	50.09
3.80447	50.08
3.82113	50.08
3.83780	50.09
3.85447	50.08
3.87113	50.08
3.88780	50.08
3.90447	50.07
3.92113	50.07
3.93780	50.07
3.95447	50.07
3.97113	50.07
3.98780	50.08

[Status Trace (Injection Unit Temperature)]
Interval(msec)	1000
# of Points	240
Start Time(min)	0.004
End Time(min)	3.988
Intensity Units	
Intensity Multiplier	1
R.Time (min)	Intensity
0.00447	99.97
0.02113	99.97
0.03780	99.97
0.05447	99.98
0.07113	99.98
0.08780	99.97
0.10447	99.98
0.12113	99.98
0.13780	99.98
0.15447	99.98
0.17113	99.98
0.18780	99.98
0.20447	99.98
0.22113	99.98
0.23780	99.98
0.25447	99.98
0.27113	99.98
0.28780	99.98
0.30447	99.98
0.32113	99.98
0.33780	99.98
0.35447	99.98
0.37113	99.98
0.38780	99.98
0.40447	99.98
0.42113	99.98
0.43780	99.98
0.45447	99.98
0.47113	99.98
0.48780	99.98
0.50447	99.98
0.52113	99.98
0.53780	99.98
0.55447	99.98
0.57113	99.98
0.58780	99.98
0.60447	99.98
0.62113	99.98
0.63780	99.98
0.65447	99.98
0.67113	99.98
0.68780	99.98
0.70447	99.98
0.72113	99.98
0.73780	99.98
0.75447	99.98
0.77113	99.98
0.78780	99.98
0.80447	99.98
0.82113	99.98
0.83780	99.98
0.85447	99.98
0.87113	99.98
0.88780	99.98
0.90447	99.98
0.92113	99.98
0.93780	99.98
0.95447	99.98
0.97113	99.98
0.98780	99.98
1.00447	99.98
1.02113	99.98
1.03780	99.98
1.05447	99.98
1.07113	99.98
1.08780	99.98
1.10447	99.98
1.12113	99.98
1.13780	99.98
1.15447	99.98
1.17113	99.98
1.18780	99.98
1.20447	99.98
1.22113	99.98
1.23780	99.98
1.25447	99.99
1.27113	99.98
1.28780	99.98
1.30447	99.98
1.32113	99.98
1.33780	99.98
1.35447	99.98
1.37113	99.99
1.38780	99.98
1.40447	99.99
1.42113	99.98
1.43780	99.98
1.45447	99.99
1.47113	99.99
1.48780	99.98
1.50447	99.99
1.52113	99.99
1.53780	99.98
1.55447	99.98
1.57113	99.98
1.58780	99.98
1.60447	99.98
1.62113	99.99
1.63780	99.98
1.65447	99.98
1.67113	99.99
1.68780	99.98
1.70447	99.98
1.72113	99.98
1.73780	99.98
1.75447	99.98
1.77113	99.98
1.78780	99.98
1.80447	99.98
1.82113	99.98
1.83780	99.98
1.85447	99.98
1.87113	99.98
1.88780	99.98
1.90447	99.97
1.92113	99.97
1.93780	99.97
1.95447	99.98
1.97113	99.97
1.98780	99.97
2.00447	99.97
2.02113	99.97
2.03780	99.97
2.05447	99.97
2.07113	99.97
2.08780	99.97
2.10447	99.97
2.12113	99.96
2.13780	99.97
2.15447	99.97
2.17113	99.96
2.18780	99.96
2.20447	99.96
2.22113	99.96
2.23780	99.96
2.25447	99.96
2.27113	99.96
2.28780	99.96
2.30447	99.96
2.32113	99.96
2.33780	99.96
2.35447	99.96
2.37113	99.96
2.38780	99.96
2.40447	99.96
2.42113	99.96
2.43780	99.96
2.45447	99.95
2.47113	99.96
2.48780	99.96
2.50447	99.96
2.52113	99.96
2.53780	99.96
2.55447	99.96
2.57113	99.96
2.58780	99.96
2.60447	99.96
2.62113	99.96
2.63780	99.97
2.65447	99.97
2.67113	99.97
2.68780	99.97
2.70447	99.97
2.72113	99.97
2.73780	99.98
2.75447	99.98
2.77113	99.98
2.78780	99.98
2.80447	99.98
2.82113	99.98
2.83780	99.99
2.85447	99.99
2.87113	99.99
2.88780	99.99
2.90447	99.99
2.92113	100.00
2.93780	100.00
2.95447	100.00
2.97113	100.00
2.98780	100.01
3.00447	100.01
3.02113	100.01
3.03780	100.01
3.05447	100.01
3.07113	100.01
3.08780	100.01
3.10447	100.02
3.12113	100.02
3.13780	100.02
3.15447	100.02
3.17113	100.02
3.18780	100.02
3.20447	100.02
3.22113	100.02
3.23780	100.03
3.25447	100.03
3.27113	100.03
3.28780	100.02
3.30447	100.02
3.32113	100.03
3.33780	100.03
3.35447	100.02
3.37113	100.03
3.38780	100.02
3.40447	100.03
3.42113	100.03
3.43780	100.03
3.45447	100.03
3.47113	100.03
3.48780	100.03
3.50447	100.03
3.52113	100.03
3.53780	100.03
3.55447	100.03
3.57113	100.03
3.58780	100.03
3.60447	100.03
3.62113	100.04
3.63780	100.03
3.65447	100.03
3.67113	100.03
3.68780	100.03
3.70447	100.04
3.72113	100.03
3.73780	100.04
3.75447	100.04
3.77113	100.04
3.78780	100.03
3.80447	100.04
3.82113	100.03
3.83780	100.04
3.85447	100.04
3.87113	100.03
3.88780	100.03
3.90447	100.04
3.92113	100.04
3.93780	100.04
3.95447	100.04
3.97113	100.04
3.98780	100.04

[Status Trace (Carrier Gas Pressure)]
Interval(msec)	1000
# of Points	240
Start Time(min)	0.004
End Time(min)	3.988
Intensity Units	
Intensity Multiplier	1
R.Time (min)	Intensity
0.00447	58.00
0.02113	55.91
0.03780	56.61
0.05447	58.73
0.07113	59.81
0.08780	58.21
0.10447	57.97
0.12113	58.01
0.13780	58.01
0.15447	58.01
0.17113	58.00
0.18780	58.00
0.20447	58.00
0.22113	58.00
0.23780	58.00
0.25447	58.00
0.27113	58.00
0.28780	58.00
0.30447	58.00
0.32113	58.00
0.33780	58.00
0.35447	58.00
0.37113	58.00
0.38780	58.00
0.40447	58.00
0.42113	58.00
0.43780	58.00
0.45447	58.00
0.47113	58.00
0.48780	58.00
0.50447	58.00
0.52113	58.00
0.53780	58.00
0.55447	58.00
0.57113	58.00
0.58780	58.00
0.60447	58.00
0.62113	58.00
0.63780	58.00
0.65447	58.00
0.67113	58.00
0.68780	58.00
0.70447	58.00
0.72113	58.00
0.73780	58.00
0.75447	58.00
0.77113	58.00
0.78780	58.00
0.80447	58.00
0.82113	58.00
0.83780	58.00
0.85447	58.00
0.87113	58.00
0.88780	58.00
0.90447	58.00
0.92113	58.00
0.93780	58.00
0.95447	58.00
0.97113	58.00
0.98780	58.00
1.00447	58.00
1.02113	58.00
1.03780	58.00
1.05447	58.00
1.07113	58.00
1.08780	58.00
1.10447	58.00
1.12113	58.00
1.13780	58.00
1.15447	58.00
1.17113	58.00
1.18780	58.00
1.20447	58.00
1.22113	58.00
1.23780	58.00
1.25447	58.00
1.27113	58.00
1.28780	58.00
1.30447	58.00
1.32113	58.00
1.33780	58.00
1.35447	58.00
1.37113	58.00
1.38780	58.00
1.40447	58.00
1.42113	58.00
1.43780	58.00
1.45447	58.00
1.47113	58.00
1.48780	58.00
1.50447	58.00
1.52113	58.00
1.53780	58.00
1.55447	58.00
1.57113	58.00
1.58780	58.00
1.60447	58.00
1.62113	58.00
1.63780	58.00
1.65447	58.00
1.67113	58.01
1.68780	58.00
1.70447	58.00
1.72113	58.00
1.73780	58.00
1.75447	58.00
1.77113	58.00
1.78780	58.00
1.80447	58.00
1.82113	58.00
1.83780	58.00
1.85447	58.00
1.87113	58.00
1.88780	58.00
1.90447	58.00
1.92113	58.00
1.93780	58.00
1.95447	58.00
1.97113	58.00
1.98780	58.00
2.00447	58.00
2.02113	58.00
2.03780	58.00
2.05447	58.00
2.07113	58.00
2.08780	58.00
2.10447	58.00
2.12113	58.00
2.13780	58.00
2.15447	58.00
2.17113	58.00
2.18780	58.00
2.20447	58.00
2.22113	58.00
2.23780	58.00
2.25447	58.00
2.27113	58.00
2.28780	58.00
2.30447	58.00
2.32113	58.00
2.33780	58.00
2.35447	58.00
2.37113	58.00
2.38780	57.99
2.40447	57.99
2.42113	58.00
2.43780	58.00
2.45447	58.00
2.47113	58.00
2.48780	58.00
2.50447	57.98
2.52113	57.99
2.53780	58.00
2.55447	58.00
2.57113	58.00
2.58780	58.00
2.60447	58.00
2.62113	58.00
2.63780	58.00
2.65447	58.00
2.67113	58.00
2.68780	58.00
2.70447	58.00
2.72113	58.00
2.73780	58.00
2.75447	58.00
2.77113	58.00
2.78780	58.00
2.80447	58.00
2.82113	58.00
2.83780	58.00
2.85447	58.00
2.87113	58.00
2.88780	58.00
2.90447	58.00
2.92113	58.00
2.93780	58.00
2.95447	58.00
2.97113	58.00
2.98780	58.00
3.00447	58.00
3.02113	58.00
3.03780	58.00
3.05447	58.00
3.07113	58.00
3.08780	58.00
3.10447	58.00
3.12113	58.00
3.13780	58.00
3.15447	58.00
3.17113	58.00
3.18780	58.00
3.20447	58.00
3.22113	58.00
3.23780	58.00
3.25447	58.00
3.27113	58.00
3.28780	58.00
3.30447	58.00
3.32113	58.00
3.33780	58.00
3.35447	58.00
3.37113	58.00
3.38780	58.00
3.40447	58.00
3.42113	58.00
3.43780	58.00
3.45447	58.00
3.47113	58.00
3.48780	58.00
3.50447	58.00
3.52113	58.00
3.53780	58.00
3.55447	58.00
3.57113	58.00
3.58780	58.00
3.60447	58.00
3.62113	58.00
3.63780	58.00
3.65447	58.00
3.67113	58.00
3.68780	58.00
3.70447	58.00
3.72113	58.00
3.73780	58.00
3.75447	58.00
3.77113	58.00
3.78780	58.00
3.80447	58.00
3.82113	58.00
3.83780	58.00
3.85447	58.00
3.87113	58.00
3.88780	58.00
3.90447	58.00
3.92113	58.00
3.93780	58.00
3.95447	58.00
3.97113	58.00
3.98780	58.00

[Status Trace (Carrier Gas Flow)]
Interval(msec)	1000
# of Points	240
Start Time(min)	0.004
End Time(min)	3.988
Intensity Units	
Intensity Multiplier	1
R.Time (min)	Intensity
0.00447	34.52
0.02113	34.56
0.03780	34.54
0.05447	34.54
0.07113	34.50
0.08780	34.52
0.10447	34.52
0.12113	34.52
0.13780	34.52
0.15447	34.51
0.17113	34.52
0.18780	34.52
0.20447	34.52
0.22113	34.52
0.23780	34.52
0.25447	34.52
0.27113	34.52
0.28780	34.52
0.30447	34.52
0.32113	34.52
0.33780	34.52
0.35447	34.52
0.37113	34.52
0.38780	34.51
0.40447	34.51
0.42113	34.52
0.43780	34.53
0.45447	34.52
0.47113	34.52
0.48780	34.52
0.50447	34.52
0.52113	34.52
0.53780	34.51
0.55447	34.52
0.57113	34.52
0.58780	34.52
0.60447	34.52
0.62113	34.52
0.63780	34.52
0.65447	34.52
0.67113	34.52
0.68780	34.52
0.70447	34.51
0.72113	34.51
0.73780	34.52
0.75447	34.52
0.77113	34.52
0.78780	34.51
0.80447	34.51
0.82113	34.52
0.83780	34.51
0.85447	34.52
0.87113	34.52
0.88780	34.52
0.90447	34.52
0.92113	34.52
0.93780	34.52
0.95447	34.52
0.97113	34.52
0.98780	34.52
1.00447	34.51
1.02113	34.52
1.03780	34.52
1.05447	34.52
1.07113	34.52
1.08780	34.51
1.10447	34.53
1.12113	34.52
1.13780	34.51
1.15447	34.52
1.17113	34.53
1.18780	34.52
1.20447	34.51
1.22113	34.52
1.23780	34.52
1.25447	34.52
1.27113	34.52
1.28780	34.52
1.30447	34.51
1.32113	34.52
1.33780	34.51
1.35447	34.52
1.37113	34.51
1.38780	34.52
1.40447	34.52
1.42113	34.52
1.43780	34.52
1.45447	34.52
1.47113	34.52
1.48780	34.52
1.50447	34.52
1.52113	34.52
1.53780	34.52
1.55447	34.52
1.57113	34.52
1.58780	34.52
1.60447	34.52
1.62113	34.51
1.63780	34.52
1.65447	34.52
1.67113	34.52
1.68780	34.52
1.70447	34.53
1.72113	34.52
1.73780	34.52
1.75447	34.52
1.77113	34.52
1.78780	34.52
1.80447	34.51
1.82113	34.52
1.83780	34.52
1.85447	34.52
1.87113	34.52
1.88780	34.52
1.90447	34.52
1.92113	34.52
1.93780	34.51
1.95447	34.52
1.97113	34.52
1.98780	34.52
2.00447	34.52
2.02113	34.52
2.03780	34.51
2.05447	34.52
2.07113	34.52
2.08780	34.53
2.10447	34.52
2.12113	34.51
2.13780	34.52
2.15447	34.51
2.17113	34.52
2.18780	34.52
2.20447	34.52
2.22113	34.51
2.23780	34.52
2.25447	34.53
2.27113	34.53
2.28780	34.52
2.30447	34.51
2.32113	34.52
2.33780	34.53
2.35447	34.52
2.37113	34.52
2.38780	34.52
2.40447	34.51
2.42113	34.52
2.43780	34.53
2.45447	34.52
2.47113	34.51
2.48780	34.52
2.50447	34.62
2.52113	34.52
2.53780	34.52
2.55447	34.52
2.57113	34.52
2.58780	34.52
2.60447	34.52
2.62113	34.52
2.63780	34.52
2.65447	34.52
2.67113	34.52
2.68780	34.51
2.70447	34.51
2.72113	34.52
2.73780	34.52
2.75447	34.52
2.77113	34.52
2.78780	34.52
2.80447	34.52
2.82113	34.52
2.83780	34.52
2.85447	34.52
2.87113	34.52
2.88780	34.52
2.90447	34.52
2.92113	34.52
2.93780	34.52
2.95447	34.52
2.97113	34.52
2.98780	34.52
3.00447	34.52
3.02113	34.52
3.03780	34.52
3.05447	34.51
3.07113	34.51
3.08780	34.52
3.10447	34.52
3.12113	34.51
3.13780	34.52
3.15447	34.51
3.17113	34.52
3.18780	34.51
3.20447	34.53
3.22113	34.53
3.23780	34.52
3.25447	34.52
3.27113	34.52
3.28780	34.53
3.30447	34.52
3.32113	34.52
3.33780	34.51
3.35447	34.52
3.37113	34.52
3.38780	34.52
3.40447	34.52
3.42113	34.52
3.43780	34.52
3.45447	34.51
3.47113	34.52
3.48780	34.52
3.50447	34.52
3.52113	34.52
3.53780	34.52
3.55447	34.52
3.57113	34.52
3.58780	34.51
3.60447	34.52
3.62113	34.52
3.63780	34.52
3.65447	34.52
3.67113	34.52
3.68780	34.52
3.70447	34.52
3.72113	34.52
3.73780	34.52
3.75447	34.52
3.77113	34.52
3.78780	34.52
3.80447	34.52
3.82113	34.52
3.83780	34.52
3.85447	34.52
3.87113	34.51
3.88780	34.51
3.90447	34.52
3.92113	34.52
3.93780	34.52
3.95447	34.52
3.97113	34.52
3.98780	34.52

[Status Trace (Column Flow)]
Interval(msec)	1000
# of Points	240
Start Time(min)	0.004
End Time(min)	3.988
Intensity Units	
Intensity Multiplier	1
R.Time (min)	Intensity
0.00447	5.50
0.02113	5.26
0.03780	5.34
0.05447	5.59
0.07113	5.72
0.08780	5.53
0.10447	5.50
0.12113	5.51
0.13780	5.51
0.15447	5.51
0.17113	5.51
0.18780	5.51
0.20447	5.51
0.22113	5.51
0.23780	5.51
0.25447	5.51
0.27113	5.51
0.28780	5.51
0.30447	5.51
0.32113	5.51
0.33780	5.51
0.35447	5.51
0.37113	5.51
0.38780	5.51
0.40447	5.51
0.42113	5.51
0.43780	5.51
0.45447	5.51
0.47113	5.51
0.48780	5.51
0.50447	5.51
0.52113	5.51
0.53780	5.51
0.55447	5.51
0.57113	5.51
0.58780	5.51
0.60447	5.51
0.62113	5.51
0.63780	5.51
0.65447	5.51
0.67113	5.51
0.68780	5.51
0.70447	5.51
0.72113	5.51
0.73780	5.51
0.75447	5.51
0.77113	5.51
0.78780	5.51
0.80447	5.51
0.82113	5.51
0.83780	5.51
0.85447	5.51
0.87113	5.51
0.88780	5.51
0.90447	5.51
0.92113	5.51
0.93780	5.51
0.95447	5.51
0.97113	5.51
0.98780	5.51
1.00447	5.51
1.02113	5.51
1.03780	5.51
1.05447	5.51
1.07113	5.51
1.08780	5.51
1.10447	5.51
1.12113	5.51
1.13780	5.51
1.15447	5.51
1.17113	5.51
1.18780	5.51
1.20447	5.51
1.22113	5.51
1.23780	5.51
1.25447	5.51
1.27113	5.51
1.28780	5.51
1.30447	5.51
1.32113	5.51
1.33780	5.51
1.35447	5.51
1.37113	5.51
1.38780	5.51
1.40447	5.51
1.42113	5.51
1.43780	5.51
1.45447	5.51
1.47113	5.51
1.48780	5.51
1.50447	5.51
1.52113	5.51
1.53780	5.51
1.55447	5.51
1.57113	5.51
1.58780	5.51
1.60447	5.51
1.62113	5.50
1.63780	5.50
1.65447	5.49
1.67113	5.48
1.68780	5.47
1.70447	5.46
1.72113	5.45
1.73780	5.44
1.75447	5.43
1.77113	5.42
1.78780	5.41
1.80447	5.40
1.82113	5.39
1.83780	5.38
1.85447	5.37
1.87113	5.36
1.88780	5.35
1.90447	5.34
1.92113	5.33
1.93780	5.32
1.95447	5.31
1.97113	5.30
1.98780	5.29
2.00447	5.28
2.02113	5.27
2.03780	5.26
2.05447	5.25
2.07113	5.24
2.08780	5.23
2.10447	5.22
2.12113	5.21
2.13780	5.20
2.15447	5.19
2.17113	5.18
2.18780	5.17
2.20447	5.17
2.22113	5.16
2.23780	5.15
2.25447	5.14
2.27113	5.13
2.28780	5.12
2.30447	5.11
2.32113	5.10
2.33780	5.09
2.35447	5.08
2.37113	5.08
2.38780	5.07
2.40447	5.07
2.42113	5.07
2.43780	5.07
2.45447	5.07
2.47113	5.07
2.48780	5.07
2.50447	5.07
2.52113	5.07
2.53780	5.07
2.55447	5.07
2.57113	5.07
2.58780	5.07
2.60447	5.07
2.62113	5.07
2.63780	5.07
2.65447	5.07
2.67113	5.07
2.68780	5.07
2.70447	5.07
2.72113	5.07
2.73780	5.07
2.75447	5.07
2.77113	5.07
2.78780	5.07
2.80447	5.07
2.82113	5.07
2.83780	5.07
2.85447	5.07
2.87113	5.07
2.88780	5.07
2.90447	5.07
2.92113	5.07
2.93780	5.07
2.95447	5.07
2.97113	5.07
2.98780	5.07
3.00447	5.06
3.02113	5.06
3.03780	5.06
3.05447	5.06
3.07113	5.06
3.08780	5.06
3.10447	5.06
3.12113	5.06
3.13780	5.06
3.15447	5.06
3.17113	5.06
3.18780	5.06
3.20447	5.06
3.22113	5.06
3.23780	5.06
3.25447	5.06
3.27113	5.06
3.28780	5.06
3.30447	5.06
3.32113	5.06
3.33780	5.06
3.35447	5.06
3.37113	5.06
3.38780	5.06
3.40447	5.06
3.42113	5.06
3.43780	5.06
3.45447	5.06
3.47113	5.06
3.48780	5.06
3.50447	5.06
3.52113	5.06
3.53780	5.06
3.55447	5.06
3.57113	5.06
3.58780	5.06
3.60447	5.06
3.62113	5.06
3.63780	5.06
3.65447	5.06
3.67113	5.06
3.68780	5.06
3.70447	5.06
3.72113	5.06
3.73780	5.06
3.75447	5.06
3.77113	5.06
3.78780	5.06
3.80447	5.06
3.82113	5.06
3.83780	5.06
3.85447	5.06
3.87113	5.06
3.88780	5.06
3.90447	5.06
3.92113	5.06
3.93780	5.06
3.95447	5.06
3.97113	5.06
3.98780	5.06

[Status Trace (Linear Velocity)]
Interval(msec)	1000
# of Points	240
Start Time(min)	0.004
End Time(min)	3.988
Intensity Units	
Intensity Multiplier	1
R.Time (min)	Intensity
0.00447	39.01
0.02113	37.64
0.03780	38.10
0.05447	39.48
0.07113	40.19
0.08780	39.14
0.10447	38.99
0.12113	39.01
0.13780	39.02
0.15447	39.01
0.17113	39.01
0.18780	39.01
0.20447	39.01
0.22113	39.01
0.23780	39.01
0.25447	39.01
0.27113	39.01
0.28780	39.01
0.30447	39.01
0.32113	39.01
0.33780	39.01
0.35447	39.01
0.37113	39.01
0.38780	39.01
0.40447	39.01
0.42113	39.01
0.43780	39.01
0.45447	39.01
0.47113	39.01
0.48780	39.01
0.50447	39.01
0.52113	39.01
0.53780	39.01
0.55447	39.01
0.57113	39.01
0.58780	39.01
0.60447	39.01
0.62113	39.01
0.63780	39.01
0.65447	39.01
0.67113	39.01
0.68780	39.01
0.70447	39.01
0.72113	39.01
0.73780	39.01
0.75447	39.01
0.77113	39.01
0.78780	39.01
0.80447	39.01
0.82113	39.01
0.83780	39.01
0.85447	39.01
0.87113	39.01
0.88780	39.01
0.90447	39.01
0.92113	39.01
0.93780	39.01
0.95447	39.01
0.97113	39.01
0.98780	39.01
1.00447	39.01
1.02113	39.01
1.03780	39.01
1.05447	39.01
1.07113	39.01
1.08780	39.01
1.10447	39.01
1.12113	39.01
1.13780	39.01
1.15447	39.01
1.17113	39.01
1.18780	39.02
1.20447	39.01
1.22113	39.01
1.23780	39.01
1.25447	39.01
1.27113	39.01
1.28780	39.01
1.30447	39.01
1.32113	39.02
1.33780	39.02
1.35447	39.01
1.37113	39.01
1.38780	39.01
1.40447	39.01
1.42113	39.01
1.43780	39.01
1.45447	39.01
1.47113	39.01
1.48780	39.01
1.50447	39.01
1.52113	39.01
1.53780	39.01
1.55447	39.01
1.57113	39.01
1.58780	39.01
1.60447	39.01
1.62113	39.00
1.63780	38.99
1.65447	38.96
1.67113	38.94
1.68780	38.90
1.70447	38.86
1.72113	38.83
1.73780	38.80
1.75447	38.77
1.77113	38.74
1.78780	38.70
1.80447	38.67
1.82113	38.64
1.83780	38.61
1.85447	38.58
1.87113	38.55
1.88780	38.52
1.90447	38.49
1.92113	38.46
1.93780	38.43
1.95447	38.40
1.97113	38.37
1.98780	38.33
2.00447	38.30
2.02113	38.27
2.03780	38.24
2.05447	38.22
2.07113	38.19
2.08780	38.16
2.10447	38.13
2.12113	38.10
2.13780	38.07
2.15447	38.04
2.17113	38.01
2.18780	37.98
2.20447	37.95
2.22113	37.92
2.23780	37.89
2.25447	37.86
2.27113	37.83
2.28780	37.80
2.30447	37.77
2.32113	37.74
2.33780	37.71
2.35447	37.68
2.37113	37.66
2.38780	37.65
2.40447	37.65
2.42113	37.66
2.43780	37.66
2.45447	37.65
2.47113	37.65
2.48780	37.65
2.50447	37.64
2.52113	37.65
2.53780	37.65
2.55447	37.65
2.57113	37.65
2.58780	37.65
2.60447	37.65
2.62113	37.65
2.63780	37.64
2.65447	37.64
2.67113	37.64
2.68780	37.64
2.70447	37.64
2.72113	37.64
2.73780	37.64
2.75447	37.64
2.77113	37.64
2.78780	37.64
2.80447	37.64
2.82113	37.64
2.83780	37.64
2.85447	37.64
2.87113	37.64
2.88780	37.64
2.90447	37.64
2.92113	37.63
2.93780	37.63
2.95447	37.63
2.97113	37.63
2.98780	37.63
3.00447	37.63
3.02113	37.63
3.03780	37.63
3.05447	37.63
3.07113	37.63
3.08780	37.63
3.10447	37.62
3.12113	37.62
3.13780	37.62
3.15447	37.62
3.17113	37.62
3.18780	37.62
3.20447	37.62
3.22113	37.62
3.23780	37.62
3.25447	37.62
3.27113	37.62
3.28780	37.62
3.30447	37.62
3.32113	37.62
3.33780	37.62
3.35447	37.63
3.37113	37.63
3.38780	37.63
3.40447	37.63
3.42113	37.63
3.43780	37.62
3.45447	37.62
3.47113	37.62
3.48780	37.62
3.50447	37.62
3.52113	37.62
3.53780	37.62
3.55447	37.62
3.57113	37.62
3.58780	37.62
3.60447	37.62
3.62113	37.62
3.63780	37.62
3.65447	37.62
3.67113	37.62
3.68780	37.62
3.70447	37.62
3.72113	37.62
3.73780	37.62
3.75447	37.62
3.77113	37.62
3.78780	37.62
3.80447	37.62
3.82113	37.62
3.83780	37.62
3.85447	37.62
3.87113	37.62
3.88780	37.62
3.90447	37.62
3.92113	37.62
3.93780	37.62
3.95447	37.62
3.97113	37.62
3.98780	37.62

