[Header]
Application Name	LabSolutions
Version	5.110
Data File Name	C:\Users\User\Desktop\Junior\UIC Prairie Sampling\7.18.23\071823_093.gcd
Output Date	8/29/2023
Output Time	10:40:26 AM

[File Information]
Type	Data File
Generated	8/29/2023 12:34:23 AM
Generated by	System Administrator
Modified	8/29/2023 12:40:59 AM
Modified by	System Administrator

[Sample Information]
Operator Name	System Administrator
Acquired	8/29/2023 12:36:58 AM
Sample Type	0:Unknown
Level	0
Sample Name	093
Sample ID	093
ISTD Amount1	1
ISTD Amount2	1
ISTD Amount3	1
ISTD Amount4	1
ISTD Amount5	1
ISTD Amount6	1
ISTD Amount7	1
ISTD Amount8	1
ISTD Amount9	1
ISTD Amount10	1
ISTD Amount11	1
ISTD Amount12	1
ISTD Amount13	1
ISTD Amount14	1
ISTD Amount15	1
ISTD Amount16	1
ISTD Amount17	1
ISTD Amount18	1
ISTD Amount19	1
ISTD Amount20	1
ISTD Amount21	1
ISTD Amount22	1
ISTD Amount23	1
ISTD Amount24	1
ISTD Amount25	1
ISTD Amount26	1
ISTD Amount27	1
ISTD Amount28	1
ISTD Amount29	1
ISTD Amount30	1
ISTD Amount31	1
ISTD Amount32	1
Sample Amount	1
Dilution Factor	1
Vial#	92
Injection Volume	1
Injection Count	1
Bar Code	

[Original Files]
Data File	C:\Users\User\Desktop\Junior\UIC Prairie Sampling\7.18.23\071823_093.gcd
Method File	C:\LabSolutions\Data\GHG_4min_2022\ghg3_togas_w_acet_4 min_new_int.gcm
Batch File	C:\LabSolutions\Data\BATCH FILES\071823.gcb
Report Format File	c:\LabSolutions\System\DEFAULT.lsr

[File Description]


[Configuration]
Instrument Name	C0B7VH3-Instrument1
Instrument #	1
Line #	1
# of Detectors	3
Detector ID	DET#1	DET#2	DET#3
Detector Name	FID	PTCD	ECD
# of Channels	1	1	1

[Peak Table(Ch1)]
# of Peaks	3
Peak#	R.Time	I.Time	F.Time	Area	Height	A/H	Conc.	Mark	ID#	Name	k'	Plate #	Plate Ht.	Tailing	Resolution	Sep.Factor	Area Ratio	Height Ratio	Conc. %	Norm Conc.
1	1.472	1.435	1.531	9888	4917	2.011	0.000	   	1	CO	0.000	9892	15.163	1.313	0.000	0.000	0	0	0.000	0.000
2	1.564	1.531	1.619	4263	2168	1.967	20.782	 V 	2	CH4	0.062	11497	13.047	1.138	1.560	0.000	0	0	3.258	3.258
3	1.989	1.945	2.513	3201677	1538645	2.081	617.022	   	3	CO2	0.351	17370	8.636	1.301	7.167	5.640	0	0	96.742	96.742

[Peak Table(Ch2)]
# of Peaks	0

[Peak Table(Ch3)]
# of Peaks	5
Peak#	R.Time	I.Time	F.Time	Area	Height	A/H	Conc.	Mark	ID#	Name	k'	Plate #	Plate Ht.	Tailing	Resolution	Sep.Factor	Area Ratio	Height Ratio	Conc. %	Norm Conc.
1	2.458	2.323	2.506	823	262	3.146	0.000	   			0.000	16009	9.370	0.000	0.000	0.000	0	0	0.000	0.000
2	2.517	2.506	2.561	124	67	1.854	0.000	 V 			0.024	17619	8.514	0.000	0.764	0.000	0	0	0.000	0.000
3	2.620	2.576	2.693	250	75	3.331	0.000	   			0.066	12239	12.256	1.336	1.204	2.750	0	0	0.000	0.000
4	2.891	2.693	3.019	16257	3965	4.101	0.240	 V 	1	N2O	0.176	12879	11.647	1.740	2.760	2.682	0	0	100.000	100.000
5	3.096	3.023	3.995	27117	1012	26.797	0.000	   	2	SF6	0.260	236	635.462	6.485	0.452	1.475	0	0	0.000	0.000

[Compound Results(Ch1)]
# of IDs	6
ID#	Name	R.Time	Area	Height	Conc.	Curve	3rd	2nd	1st	Constant	Area Ratio	Height Ratio	Conc. %	Norm Conc.
1	CO	1.472	9888	4917	0.000	Linear	0.000000e+00	0.000000e+00	0.000000e+00	0.000000e+00	0	0	0.000	0.000
2	CH4	1.564	4263	2168	20.782	Linear	0.000000e+00	0.000000e+00	2.051179e+002	0.000000e+00	0	0	3.258	3.258
3	CO2	1.989	3201677	1538645	617.022	Linear	0.000000e+00	0.000000e+00	5.188919e+003	0.000000e+00	0	0	96.742	96.742
4	Ethylene	0.000	0	0	0.000	Linear	0.000000e+00	0.000000e+00	0.000000e+00	0.000000e+00	0	0	0.000	0.000
5	Acetylene	0.000	0	0	0.000	Linear	0.000000e+00	0.000000e+00	0.000000e+00	0.000000e+00	0	0	0.000	0.000
6	Ethane	0.000	0	0	0.000	Linear	0.000000e+00	0.000000e+00	0.000000e+00	0.000000e+00	0	0	0.000	0.000

[Compound Results(Ch2)]
# of IDs	5
ID#	Name	R.Time	Area	Height	Conc.	Curve	3rd	2nd	1st	Constant	Area Ratio	Height Ratio	Conc. %	Norm Conc.
1	Hydrogen	0.000	0	0	0.000	Linear	0.000000e+00	0.000000e+00	0.000000e+00	0.000000e+00	0	0	0.000	0.000
2	Oxygen	0.000	0	0	0.000	Linear	0.000000e+00	0.000000e+00	0.000000e+00	0.000000e+00	0	0	0.000	0.000
3	Nitrogen	0.000	0	0	0.000	Linear	0.000000e+00	0.000000e+00	0.000000e+00	0.000000e+00	0	0	0.000	0.000
4	Methane	0.000	0	0	0.000	Linear	0.000000e+00	0.000000e+00	0.000000e+00	0.000000e+00	0	0	0.000	0.000
5	Carbon Monoxide	0.000	0	0	0.000	Linear	0.000000e+00	0.000000e+00	0.000000e+00	0.000000e+00	0	0	0.000	0.000

[Compound Results(Ch3)]
# of IDs	2
ID#	Name	R.Time	Area	Height	Conc.	Curve	3rd	2nd	1st	Constant	Area Ratio	Height Ratio	Conc. %	Norm Conc.
1	N2O	2.891	16257	3965	0.240	Linear	0.000000e+00	0.000000e+00	6.759880e+004	0.000000e+00	0	0	100.000	100.000
2	SF6	3.096	27117	1012	0.000	Linear	0.000000e+00	0.000000e+00	0.000000e+00	0.000000e+00	0	0	0.000	0.000

[Group Results(Ch1)]
# of Groups	0

[Group Results(Ch2)]
# of Groups	0

[Group Results(Ch3)]
# of Groups	0

[Chromatogram (Ch1)]
Interval(msec)	220
# of Points	1091
Start Time(min)	0.002
End Time(min)	3.998
R.Time (min)	Intensity
0.00167	29
0.00533	28
0.00900	22
0.01267	14
0.01633	8
0.02000	6
0.02367	5
0.02733	3
0.03100	2
0.03467	2
0.03833	2
0.04200	2
0.04567	2
0.04933	3
0.05300	6
0.05667	9
0.06033	9
0.06400	9
0.06767	7
0.07133	4
0.07500	2
0.07867	1
0.08233	5
0.08600	11
0.08967	14
0.09333	11
0.09700	5
0.10067	1
0.10433	3
0.10800	4
0.11167	4
0.11533	3
0.11900	2
0.12267	3
0.12633	6
0.13000	10
0.13367	15
0.13733	20
0.14100	25
0.14467	28
0.14833	25
0.15200	18
0.15567	11
0.15933	9
0.16300	8
0.16667	6
0.17033	7
0.17400	8
0.17767	10
0.18133	14
0.18500	15
0.18867	15
0.19233	16
0.19600	15
0.19967	15
0.20333	16
0.20700	13
0.21067	10
0.21433	7
0.21800	5
0.22167	6
0.22533	12
0.22900	18
0.23267	24
0.23633	27
0.24000	30
0.24367	35
0.24733	40
0.25100	44
0.25467	45
0.25833	47
0.26200	52
0.26567	64
0.26933	78
0.27300	89
0.27667	97
0.28033	102
0.28400	105
0.28767	111
0.29133	121
0.29500	131
0.29867	136
0.30233	136
0.30600	133
0.30967	131
0.31333	129
0.31700	125
0.32067	122
0.32433	117
0.32800	115
0.33167	116
0.33533	118
0.33900	119
0.34267	121
0.34633	123
0.35000	125
0.35367	126
0.35733	124
0.36100	119
0.36467	111
0.36833	104
0.37200	96
0.37567	87
0.37933	79
0.38300	72
0.38667	65
0.39033	60
0.39400	57
0.39767	56
0.40133	56
0.40500	52
0.40867	45
0.41233	37
0.41600	33
0.41967	31
0.42333	34
0.42700	40
0.43067	46
0.43433	49
0.43800	48
0.44167	43
0.44533	40
0.44900	37
0.45267	35
0.45633	33
0.46000	34
0.46367	37
0.46733	41
0.47100	42
0.47467	40
0.47833	37
0.48200	34
0.48567	31
0.48933	29
0.49300	27
0.49667	25
0.50033	25
0.50400	25
0.50767	26
0.51133	26
0.51500	27
0.51867	23
0.52233	15
0.52600	10
0.52967	8
0.53333	8
0.53700	8
0.54067	11
0.54433	12
0.54800	11
0.55167	8
0.55533	5
0.55900	2
0.56267	-0
0.56633	-1
0.57000	-0
0.57367	-1
0.57733	-4
0.58100	-2
0.58467	5
0.58833	14
0.59200	22
0.59567	28
0.59933	30
0.60300	32
0.60667	35
0.61033	36
0.61400	33
0.61767	28
0.62133	20
0.62500	13
0.62867	6
0.63233	2
0.63600	1
0.63967	-1
0.64333	-2
0.64700	-2
0.65067	-1
0.65433	-2
0.65800	-2
0.66167	0
0.66533	5
0.66900	8
0.67267	12
0.67633	17
0.68000	19
0.68367	17
0.68733	12
0.69100	11
0.69467	11
0.69833	14
0.70200	16
0.70567	17
0.70933	17
0.71300	16
0.71667	14
0.72033	13
0.72400	12
0.72767	10
0.73133	9
0.73500	8
0.73867	6
0.74233	6
0.74600	10
0.74967	11
0.75333	8
0.75700	4
0.76067	-0
0.76433	-2
0.76800	-3
0.77167	-3
0.77533	-2
0.77900	-2
0.78267	-4
0.78633	-3
0.79000	-1
0.79367	2
0.79733	6
0.80100	9
0.80467	11
0.80833	14
0.81200	17
0.81567	18
0.81933	20
0.82300	21
0.82667	23
0.83033	24
0.83400	23
0.83767	20
0.84133	18
0.84500	18
0.84867	20
0.85233	22
0.85600	21
0.85967	18
0.86333	15
0.86700	10
0.87067	5
0.87433	4
0.87800	5
0.88167	4
0.88533	4
0.88900	1
0.89267	-3
0.89633	-7
0.90000	-9
0.90367	-7
0.90733	-4
0.91100	-2
0.91467	-2
0.91833	-3
0.92200	-4
0.92567	-4
0.92933	-4
0.93300	-0
0.93667	5
0.94033	10
0.94400	14
0.94767	15
0.95133	14
0.95500	16
0.95867	19
0.96233	23
0.96600	24
0.96967	24
0.97333	20
0.97700	14
0.98067	9
0.98433	7
0.98800	8
0.99167	11
0.99533	13
0.99900	12
1.00267	11
1.00633	12
1.01000	12
1.01367	11
1.01733	8
1.02100	4
1.02467	-1
1.02833	-6
1.03200	-7
1.03567	-8
1.03933	-8
1.04300	-7
1.04667	-6
1.05033	-4
1.05400	-4
1.05767	-1
1.06133	1
1.06500	2
1.06867	3
1.07233	6
1.07600	13
1.07967	22
1.08333	28
1.08700	31
1.09067	30
1.09433	24
1.09800	15
1.10167	9
1.10533	6
1.10900	4
1.11267	2
1.11633	2
1.12000	3
1.12367	-1
1.12733	-4
1.13100	-5
1.13467	-4
1.13833	2
1.14200	9
1.14567	15
1.14933	15
1.15300	11
1.15667	10
1.16033	11
1.16400	12
1.16767	15
1.17133	17
1.17500	16
1.17867	14
1.18233	8
1.18600	-2
1.18967	-11
1.19333	-13
1.19700	-9
1.20067	-3
1.20433	6
1.20800	14
1.21167	19
1.21533	19
1.21900	20
1.22267	19
1.22633	18
1.23000	18
1.23367	19
1.23733	18
1.24100	15
1.24467	12
1.24833	9
1.25200	8
1.25567	8
1.25933	8
1.26300	7
1.26667	3
1.27033	-3
1.27400	-7
1.27767	-6
1.28133	-3
1.28500	-1
1.28867	-1
1.29233	-1
1.29600	1
1.29967	7
1.30333	10
1.30700	12
1.31067	11
1.31433	8
1.31800	3
1.32167	-2
1.32533	-5
1.32900	-7
1.33267	-10
1.33633	-12
1.34000	-8
1.34367	-3
1.34733	1
1.35100	3
1.35467	4
1.35833	1
1.36200	-5
1.36567	-12
1.36933	-15
1.37300	-14
1.37667	-10
1.38033	-6
1.38400	-1
1.38767	5
1.39133	11
1.39500	14
1.39867	12
1.40233	7
1.40600	2
1.40967	-1
1.41333	-1
1.41700	-2
1.42067	-3
1.42433	-3
1.42800	-3
1.43167	-3
1.43533	4
1.43900	20
1.44267	59
1.44633	232
1.45000	743
1.45367	1601
1.45733	2601
1.46100	3530
1.46467	4269
1.46833	4754
1.47200	4921
1.47567	4732
1.47933	4220
1.48300	3505
1.48667	2743
1.49033	2053
1.49400	1490
1.49767	1065
1.50133	755
1.50500	536
1.50867	384
1.51233	277
1.51600	202
1.51967	149
1.52333	112
1.52700	88
1.53067	79
1.53433	102
1.53800	204
1.54167	441
1.54533	810
1.54900	1236
1.55267	1629
1.55633	1934
1.56000	2125
1.56367	2176
1.56733	2062
1.57100	1800
1.57467	1456
1.57833	1105
1.58200	795
1.58567	550
1.58933	372
1.59300	251
1.59667	171
1.60033	119
1.60400	83
1.60767	56
1.61133	35
1.61500	20
1.61867	10
1.62233	8
1.62600	11
1.62967	14
1.63333	14
1.63700	11
1.64067	7
1.64433	3
1.64800	-1
1.65167	-5
1.65533	-7
1.65900	-6
1.66267	-6
1.66633	-5
1.67000	-1
1.67367	3
1.67733	7
1.68100	13
1.68467	19
1.68833	20
1.69200	15
1.69567	9
1.69933	4
1.70300	-2
1.70667	-5
1.71033	-3
1.71400	-0
1.71767	-1
1.72133	-0
1.72500	1
1.72867	0
1.73233	-2
1.73600	-6
1.73967	-10
1.74333	-10
1.74700	-8
1.75067	-4
1.75433	4
1.75800	10
1.76167	10
1.76533	11
1.76900	13
1.77267	17
1.77633	19
1.78000	20
1.78367	19
1.78733	15
1.79100	12
1.79467	9
1.79833	8
1.80200	10
1.80567	15
1.80933	18
1.81300	19
1.81667	17
1.82033	13
1.82400	9
1.82767	6
1.83133	7
1.83500	9
1.83867	9
1.84233	10
1.84600	11
1.84967	9
1.85333	4
1.85700	2
1.86067	1
1.86433	0
1.86800	3
1.87167	9
1.87533	16
1.87900	20
1.88267	23
1.88633	24
1.89000	28
1.89367	32
1.89733	37
1.90100	39
1.90467	39
1.90833	39
1.91200	39
1.91567	39
1.91933	42
1.92300	46
1.92667	47
1.93033	47
1.93400	40
1.93767	32
1.94133	29
1.94500	45
1.94867	204
1.95233	1292
1.95600	6838
1.95967	27871
1.96333	88433
1.96700	220895
1.97067	441964
1.97433	730002
1.97800	1032617
1.98167	1293271
1.98533	1469836
1.98900	1538743
1.99267	1496951
1.99633	1360291
2.00000	1159688
2.00367	932996
2.00733	714158
2.01100	525338
2.01467	375459
2.01833	263549
2.02200	183544
2.02567	128014
2.02933	90184
2.03300	64662
2.03667	47487
2.04033	35878
2.04400	27948
2.04767	22449
2.05133	18558
2.05500	15742
2.05867	13647
2.06233	12043
2.06600	10785
2.06967	9776
2.07333	8948
2.07700	8259
2.08067	7676
2.08433	7171
2.08800	6731
2.09167	6342
2.09533	5993
2.09900	5679
2.10267	5395
2.10633	5141
2.11000	4911
2.11367	4701
2.11733	4503
2.12100	4320
2.12467	4152
2.12833	3995
2.13200	3850
2.13567	3712
2.13933	3581
2.14300	3457
2.14667	3343
2.15033	3237
2.15400	3138
2.15767	3046
2.16133	2961
2.16500	2879
2.16867	2798
2.17233	2720
2.17600	2645
2.17967	2576
2.18333	2509
2.18700	2441
2.19067	2373
2.19433	2312
2.19800	2254
2.20167	2198
2.20533	2146
2.20900	2100
2.21267	2058
2.21633	2017
2.22000	1974
2.22367	1929
2.22733	1887
2.23100	1845
2.23467	1805
2.23833	1769
2.24200	1734
2.24567	1699
2.24933	1666
2.25300	1633
2.25667	1603
2.26033	1577
2.26400	1555
2.26767	1531
2.27133	1506
2.27500	1479
2.27867	1450
2.28233	1419
2.28600	1390
2.28967	1364
2.29333	1344
2.29700	1330
2.30067	1315
2.30433	1297
2.30800	1274
2.31167	1250
2.31533	1228
2.31900	1208
2.32267	1194
2.32633	1184
2.33000	1175
2.33367	1163
2.33733	1152
2.34100	1141
2.34467	1127
2.34833	1114
2.35200	1101
2.35567	1089
2.35933	1074
2.36300	1052
2.36667	1030
2.37033	1013
2.37400	1000
2.37767	989
2.38133	981
2.38500	975
2.38867	969
2.39233	964
2.39600	957
2.39967	951
2.40333	942
2.40700	932
2.41067	924
2.41433	916
2.41800	909
2.42167	901
2.42533	890
2.42900	880
2.43267	870
2.43633	858
2.44000	846
2.44367	834
2.44733	823
2.45100	812
2.45467	803
2.45833	797
2.46200	793
2.46567	792
2.46933	791
2.47300	787
2.47667	778
2.48033	765
2.48400	752
2.48767	740
2.49133	732
2.49500	731
2.49867	735
2.50233	740
2.50600	738
2.50967	732
2.51333	725
2.51700	720
2.52067	716
2.52433	717
2.52800	719
2.53167	720
2.53533	714
2.53900	698
2.54267	681
2.54633	667
2.55000	656
2.55367	648
2.55733	641
2.56100	633
2.56467	625
2.56833	618
2.57200	613
2.57567	611
2.57933	613
2.58300	618
2.58667	622
2.59033	620
2.59400	611
2.59767	597
2.60133	588
2.60500	585
2.60867	583
2.61233	579
2.61600	576
2.61967	574
2.62333	575
2.62700	573
2.63067	567
2.63433	563
2.63800	562
2.64167	560
2.64533	555
2.64900	547
2.65267	539
2.65633	532
2.66000	528
2.66367	525
2.66733	522
2.67100	519
2.67467	517
2.67833	516
2.68200	516
2.68567	516
2.68933	516
2.69300	516
2.69667	512
2.70033	507
2.70400	503
2.70767	503
2.71133	507
2.71500	512
2.71867	513
2.72233	509
2.72600	502
2.72967	496
2.73333	491
2.73700	488
2.74067	487
2.74433	484
2.74800	478
2.75167	469
2.75533	462
2.75900	454
2.76267	451
2.76633	450
2.77000	450
2.77367	450
2.77733	451
2.78100	453
2.78467	453
2.78833	453
2.79200	451
2.79567	447
2.79933	444
2.80300	441
2.80667	438
2.81033	435
2.81400	434
2.81767	436
2.82133	441
2.82500	444
2.82867	444
2.83233	443
2.83600	442
2.83967	442
2.84333	440
2.84700	435
2.85067	429
2.85433	423
2.85800	418
2.86167	417
2.86533	416
2.86900	414
2.87267	412
2.87633	414
2.88000	416
2.88367	417
2.88733	417
2.89100	415
2.89467	411
2.89833	407
2.90200	402
2.90567	398
2.90933	395
2.91300	396
2.91667	392
2.92033	385
2.92400	377
2.92767	370
2.93133	369
2.93500	371
2.93867	375
2.94233	378
2.94600	381
2.94967	381
2.95333	385
2.95700	387
2.96067	387
2.96433	386
2.96800	380
2.97167	366
2.97533	354
2.97900	351
2.98267	354
2.98633	359
2.99000	365
2.99367	371
2.99733	373
3.00100	375
3.00467	377
3.00833	378
3.01200	378
3.01567	377
3.01933	374
3.02300	371
3.02667	362
3.03033	352
3.03400	342
3.03767	335
3.04133	328
3.04500	322
3.04867	319
3.05233	319
3.05600	319
3.05967	316
3.06333	313
3.06700	308
3.07067	305
3.07433	304
3.07800	305
3.08167	305
3.08533	307
3.08900	311
3.09267	316
3.09633	321
3.10000	325
3.10367	328
3.10733	330
3.11100	328
3.11467	323
3.11833	316
3.12200	308
3.12567	302
3.12933	299
3.13300	299
3.13667	302
3.14033	306
3.14400	309
3.14767	311
3.15133	311
3.15500	305
3.15867	294
3.16233	283
3.16600	274
3.16967	267
3.17333	267
3.17700	271
3.18067	277
3.18433	280
3.18800	278
3.19167	274
3.19533	271
3.19900	270
3.20267	267
3.20633	263
3.21000	261
3.21367	260
3.21733	263
3.22100	266
3.22467	269
3.22833	275
3.23200	280
3.23567	279
3.23933	274
3.24300	265
3.24667	255
3.25033	250
3.25400	249
3.25767	252
3.26133	255
3.26500	255
3.26867	254
3.27233	253
3.27600	250
3.27967	243
3.28333	234
3.28700	227
3.29067	225
3.29433	227
3.29800	228
3.30167	229
3.30533	228
3.30900	230
3.31267	235
3.31633	238
3.32000	241
3.32367	245
3.32733	247
3.33100	248
3.33467	248
3.33833	248
3.34200	249
3.34567	249
3.34933	250
3.35300	248
3.35667	239
3.36033	229
3.36400	223
3.36767	220
3.37133	219
3.37500	220
3.37867	222
3.38233	225
3.38600	228
3.38967	233
3.39333	238
3.39700	242
3.40067	243
3.40433	241
3.40800	239
3.41167	237
3.41533	233
3.41900	226
3.42267	220
3.42633	218
3.43000	219
3.43367	219
3.43733	220
3.44100	222
3.44467	222
3.44833	218
3.45200	211
3.45567	202
3.45933	194
3.46300	189
3.46667	187
3.47033	189
3.47400	190
3.47767	191
3.48133	194
3.48500	198
3.48867	201
3.49233	200
3.49600	199
3.49967	199
3.50333	200
3.50700	203
3.51067	206
3.51433	204
3.51800	200
3.52167	194
3.52533	194
3.52900	197
3.53267	201
3.53633	201
3.54000	199
3.54367	196
3.54733	193
3.55100	190
3.55467	186
3.55833	177
3.56200	171
3.56567	170
3.56933	174
3.57300	178
3.57667	180
3.58033	180
3.58400	179
3.58767	178
3.59133	180
3.59500	183
3.59867	184
3.60233	184
3.60600	184
3.60967	186
3.61333	189
3.61700	194
3.62067	198
3.62433	198
3.62800	196
3.63167	194
3.63533	189
3.63900	183
3.64267	176
3.64633	171
3.65000	170
3.65367	172
3.65733	176
3.66100	177
3.66467	176
3.66833	171
3.67200	165
3.67567	162
3.67933	164
3.68300	169
3.68667	174
3.69033	176
3.69400	173
3.69767	167
3.70133	166
3.70500	168
3.70867	172
3.71233	171
3.71600	167
3.71967	166
3.72333	169
3.72700	173
3.73067	174
3.73433	170
3.73800	165
3.74167	165
3.74533	168
3.74900	168
3.75267	167
3.75633	170
3.76000	176
3.76367	178
3.76733	177
3.77100	173
3.77467	168
3.77833	162
3.78200	154
3.78567	146
3.78933	137
3.79300	129
3.79667	124
3.80033	125
3.80400	131
3.80767	139
3.81133	144
3.81500	147
3.81867	149
3.82233	150
3.82600	152
3.82967	155
3.83333	157
3.83700	154
3.84067	151
3.84433	150
3.84800	151
3.85167	152
3.85533	152
3.85900	150
3.86267	145
3.86633	140
3.87000	140
3.87367	142
3.87733	141
3.88100	142
3.88467	144
3.88833	141
3.89200	133
3.89567	127
3.89933	126
3.90300	129
3.90667	131
3.91033	135
3.91400	141
3.91767	146
3.92133	149
3.92500	148
3.92867	145
3.93233	141
3.93600	136
3.93967	131
3.94333	127
3.94700	125
3.95067	125
3.95433	124
3.95800	123
3.96167	122
3.96533	122
3.96900	121
3.97267	123
3.97633	126
3.98000	129
3.98367	134
3.98733	136
3.99100	134
3.99467	128
3.99833	124

[Chromatogram (Ch2)]
Interval(msec)	220
# of Points	1091
Start Time(min)	0.002
End Time(min)	3.998
R.Time (min)	Intensity
0.00167	0
0.00533	0
0.00900	0
0.01267	0
0.01633	0
0.02000	0
0.02367	1
0.02733	1
0.03100	1
0.03467	1
0.03833	1
0.04200	1
0.04567	1
0.04933	1
0.05300	2
0.05667	2
0.06033	1
0.06400	1
0.06767	1
0.07133	1
0.07500	1
0.07867	1
0.08233	1
0.08600	1
0.08967	1
0.09333	1
0.09700	1
0.10067	1
0.10433	1
0.10800	1
0.11167	1
0.11533	1
0.11900	1
0.12267	2
0.12633	2
0.13000	2
0.13367	2
0.13733	2
0.14100	2
0.14467	2
0.14833	2
0.15200	2
0.15567	2
0.15933	2
0.16300	2
0.16667	2
0.17033	1
0.17400	1
0.17767	1
0.18133	0
0.18500	-0
0.18867	-0
0.19233	-0
0.19600	-0
0.19967	-0
0.20333	-0
0.20700	-0
0.21067	-0
0.21433	-0
0.21800	-0
0.22167	0
0.22533	0
0.22900	0
0.23267	0
0.23633	0
0.24000	-0
0.24367	-0
0.24733	0
0.25100	0
0.25467	0
0.25833	0
0.26200	0
0.26567	1
0.26933	1
0.27300	1
0.27667	1
0.28033	0
0.28400	0
0.28767	0
0.29133	1
0.29500	1
0.29867	1
0.30233	1
0.30600	1
0.30967	1
0.31333	1
0.31700	1
0.32067	0
0.32433	0
0.32800	0
0.33167	0
0.33533	-0
0.33900	-0
0.34267	0
0.34633	0
0.35000	0
0.35367	0
0.35733	0
0.36100	0
0.36467	0
0.36833	0
0.37200	0
0.37567	0
0.37933	0
0.38300	1
0.38667	1
0.39033	1
0.39400	1
0.39767	1
0.40133	1
0.40500	0
0.40867	0
0.41233	0
0.41600	-0
0.41967	-0
0.42333	-0
0.42700	-0
0.43067	-0
0.43433	-0
0.43800	-0
0.44167	0
0.44533	0
0.44900	0
0.45267	0
0.45633	0
0.46000	0
0.46367	0
0.46733	-0
0.47100	-0
0.47467	-1
0.47833	-1
0.48200	-1
0.48567	-1
0.48933	-1
0.49300	-1
0.49667	-1
0.50033	-0
0.50400	-0
0.50767	-0
0.51133	-0
0.51500	-1
0.51867	-0
0.52233	-0
0.52600	-0
0.52967	0
0.53333	0
0.53700	0
0.54067	-0
0.54433	-0
0.54800	-0
0.55167	-0
0.55533	-0
0.55900	-0
0.56267	-0
0.56633	-0
0.57000	-0
0.57367	0
0.57733	-0
0.58100	-0
0.58467	-0
0.58833	-0
0.59200	-0
0.59567	-0
0.59933	-0
0.60300	-0
0.60667	-0
0.61033	-0
0.61400	-0
0.61767	-0
0.62133	-0
0.62500	-0
0.62867	-0
0.63233	-0
0.63600	-0
0.63967	-1
0.64333	-1
0.64700	-1
0.65067	-1
0.65433	-1
0.65800	-0
0.66167	-0
0.66533	-0
0.66900	-0
0.67267	0
0.67633	0
0.68000	0
0.68367	0
0.68733	-0
0.69100	-0
0.69467	-0
0.69833	-0
0.70200	-0
0.70567	-1
0.70933	-1
0.71300	-0
0.71667	-0
0.72033	-0
0.72400	-0
0.72767	-1
0.73133	-1
0.73500	-1
0.73867	-1
0.74233	-1
0.74600	-1
0.74967	-1
0.75333	-1
0.75700	-1
0.76067	-1
0.76433	-1
0.76800	-1
0.77167	-1
0.77533	-1
0.77900	-0
0.78267	-0
0.78633	-1
0.79000	-1
0.79367	-1
0.79733	-1
0.80100	-1
0.80467	-1
0.80833	-1
0.81200	-1
0.81567	-1
0.81933	-1
0.82300	-2
0.82667	-2
0.83033	-2
0.83400	-2
0.83767	-2
0.84133	-2
0.84500	-2
0.84867	-1
0.85233	-1
0.85600	-1
0.85967	-1
0.86333	-1
0.86700	-1
0.87067	-1
0.87433	-1
0.87800	-1
0.88167	-1
0.88533	-1
0.88900	-1
0.89267	-1
0.89633	-1
0.90000	-1
0.90367	-1
0.90733	-1
0.91100	-1
0.91467	-2
0.91833	-2
0.92200	-2
0.92567	-2
0.92933	-2
0.93300	-2
0.93667	-2
0.94033	-2
0.94400	-2
0.94767	-1
0.95133	-1
0.95500	-1
0.95867	-1
0.96233	-1
0.96600	-0
0.96967	-0
0.97333	-1
0.97700	-1
0.98067	-1
0.98433	-1
0.98800	-2
0.99167	-2
0.99533	-2
0.99900	-2
1.00267	-2
1.00633	-2
1.01000	-2
1.01367	-2
1.01733	-2
1.02100	-2
1.02467	-2
1.02833	-2
1.03200	-2
1.03567	-1
1.03933	-1
1.04300	-1
1.04667	-1
1.05033	-1
1.05400	-1
1.05767	-1
1.06133	-1
1.06500	-1
1.06867	-1
1.07233	-1
1.07600	-1
1.07967	-1
1.08333	-1
1.08700	-1
1.09067	-1
1.09433	-1
1.09800	-1
1.10167	-1
1.10533	-1
1.10900	-1
1.11267	-1
1.11633	-1
1.12000	-1
1.12367	-1
1.12733	-1
1.13100	-1
1.13467	-1
1.13833	-1
1.14200	-1
1.14567	-1
1.14933	-1
1.15300	-1
1.15667	-1
1.16033	-1
1.16400	-1
1.16767	-2
1.17133	-2
1.17500	-2
1.17867	-2
1.18233	-2
1.18600	-2
1.18967	-2
1.19333	-2
1.19700	-2
1.20067	-3
1.20433	-3
1.20800	-3
1.21167	-3
1.21533	-3
1.21900	-3
1.22267	-3
1.22633	-2
1.23000	-2
1.23367	-2
1.23733	-2
1.24100	-2
1.24467	-2
1.24833	-2
1.25200	-2
1.25567	-2
1.25933	-2
1.26300	-2
1.26667	-1
1.27033	-1
1.27400	-1
1.27767	-1
1.28133	-1
1.28500	-1
1.28867	-1
1.29233	-1
1.29600	-1
1.29967	-1
1.30333	-1
1.30700	-1
1.31067	-2
1.31433	-2
1.31800	-2
1.32167	-1
1.32533	-1
1.32900	-1
1.33267	-1
1.33633	-0
1.34000	-0
1.34367	-0
1.34733	-1
1.35100	-1
1.35467	-1
1.35833	-1
1.36200	-1
1.36567	-1
1.36933	-1
1.37300	-1
1.37667	-1
1.38033	-1
1.38400	-1
1.38767	-1
1.39133	-2
1.39500	-2
1.39867	-2
1.40233	-2
1.40600	-2
1.40967	-2
1.41333	-2
1.41700	-2
1.42067	-2
1.42433	-2
1.42800	-2
1.43167	-2
1.43533	-2
1.43900	-2
1.44267	-2
1.44633	-2
1.45000	-2
1.45367	-2
1.45733	-2
1.46100	-2
1.46467	-2
1.46833	-2
1.47200	-2
1.47567	-2
1.47933	-2
1.48300	-2
1.48667	-2
1.49033	-2
1.49400	-2
1.49767	-2
1.50133	-2
1.50500	-2
1.50867	-2
1.51233	-2
1.51600	-2
1.51967	-2
1.52333	-2
1.52700	-2
1.53067	-2
1.53433	-2
1.53800	-2
1.54167	-2
1.54533	-2
1.54900	-2
1.55267	-2
1.55633	-1
1.56000	-1
1.56367	-1
1.56733	-1
1.57100	-1
1.57467	-2
1.57833	-2
1.58200	-2
1.58567	-2
1.58933	-2
1.59300	-3
1.59667	-3
1.60033	-4
1.60400	-5
1.60767	-6
1.61133	-8
1.61500	-10
1.61867	-12
1.62233	-15
1.62600	-18
1.62967	-21
1.63333	-24
1.63700	-27
1.64067	-31
1.64433	-34
1.64800	-38
1.65167	-41
1.65533	-44
1.65900	-48
1.66267	-51
1.66633	-55
1.67000	-59
1.67367	-63
1.67733	-68
1.68100	-72
1.68467	-76
1.68833	-80
1.69200	-83
1.69567	-85
1.69933	-88
1.70300	-89
1.70667	-91
1.71033	-92
1.71400	-93
1.71767	-93
1.72133	-94
1.72500	-94
1.72867	-94
1.73233	-94
1.73600	-94
1.73967	-94
1.74333	-93
1.74700	-93
1.75067	-93
1.75433	-93
1.75800	-94
1.76167	-94
1.76533	-95
1.76900	-96
1.77267	-97
1.77633	-97
1.78000	-98
1.78367	-99
1.78733	-99
1.79100	-99
1.79467	-99
1.79833	-99
1.80200	-99
1.80567	-99
1.80933	-99
1.81300	-99
1.81667	-99
1.82033	-99
1.82400	-99
1.82767	-100
1.83133	-100
1.83500	-100
1.83867	-100
1.84233	-99
1.84600	-99
1.84967	-99
1.85333	-99
1.85700	-99
1.86067	-99
1.86433	-99
1.86800	-100
1.87167	-100
1.87533	-100
1.87900	-100
1.88267	-100
1.88633	-99
1.89000	-99
1.89367	-98
1.89733	-97
1.90100	-97
1.90467	-97
1.90833	-97
1.91200	-97
1.91567	-97
1.91933	-98
1.92300	-97
1.92667	-97
1.93033	-96
1.93400	-96
1.93767	-95
1.94133	-95
1.94500	-95
1.94867	-95
1.95233	-95
1.95600	-94
1.95967	-94
1.96333	-95
1.96700	-95
1.97067	-95
1.97433	-95
1.97800	-95
1.98167	-94
1.98533	-94
1.98900	-94
1.99267	-93
1.99633	-93
2.00000	-92
2.00367	-92
2.00733	-92
2.01100	-92
2.01467	-92
2.01833	-92
2.02200	-92
2.02567	-91
2.02933	-91
2.03300	-90
2.03667	-89
2.04033	-89
2.04400	-89
2.04767	-89
2.05133	-89
2.05500	-89
2.05867	-89
2.06233	-89
2.06600	-89
2.06967	-89
2.07333	-89
2.07700	-88
2.08067	-88
2.08433	-87
2.08800	-86
2.09167	-85
2.09533	-84
2.09900	-84
2.10267	-83
2.10633	-83
2.11000	-82
2.11367	-82
2.11733	-82
2.12100	-82
2.12467	-82
2.12833	-82
2.13200	-82
2.13567	-82
2.13933	-82
2.14300	-82
2.14667	-82
2.15033	-82
2.15400	-81
2.15767	-81
2.16133	-80
2.16500	-80
2.16867	-80
2.17233	-80
2.17600	-80
2.17967	-79
2.18333	-78
2.18700	-78
2.19067	-77
2.19433	-77
2.19800	-77
2.20167	-77
2.20533	-76
2.20900	-76
2.21267	-76
2.21633	-76
2.22000	-76
2.22367	-76
2.22733	-76
2.23100	-76
2.23467	-76
2.23833	-76
2.24200	-76
2.24567	-75
2.24933	-74
2.25300	-74
2.25667	-73
2.26033	-73
2.26400	-72
2.26767	-72
2.27133	-72
2.27500	-72
2.27867	-71
2.28233	-71
2.28600	-70
2.28967	-70
2.29333	-69
2.29700	-69
2.30067	-69
2.30433	-70
2.30800	-70
2.31167	-71
2.31533	-71
2.31900	-71
2.32267	-71
2.32633	-70
2.33000	-69
2.33367	-68
2.33733	-67
2.34100	-66
2.34467	-64
2.34833	-63
2.35200	-61
2.35567	-60
2.35933	-59
2.36300	-58
2.36667	-56
2.37033	-55
2.37400	-53
2.37767	-51
2.38133	-48
2.38500	-45
2.38867	-41
2.39233	-37
2.39600	-34
2.39967	-30
2.40333	-26
2.40700	-21
2.41067	-17
2.41433	-13
2.41800	-10
2.42167	-7
2.42533	-4
2.42900	-2
2.43267	-1
2.43633	1
2.44000	2
2.44367	4
2.44733	6
2.45100	7
2.45467	8
2.45833	9
2.46200	10
2.46567	10
2.46933	11
2.47300	12
2.47667	12
2.48033	13
2.48400	13
2.48767	14
2.49133	14
2.49500	15
2.49867	16
2.50233	16
2.50600	17
2.50967	17
2.51333	18
2.51700	18
2.52067	18
2.52433	18
2.52800	18
2.53167	18
2.53533	18
2.53900	18
2.54267	18
2.54633	18
2.55000	17
2.55367	16
2.55733	15
2.56100	14
2.56467	13
2.56833	12
2.57200	12
2.57567	12
2.57933	12
2.58300	13
2.58667	13
2.59033	14
2.59400	14
2.59767	15
2.60133	15
2.60500	16
2.60867	16
2.61233	17
2.61600	17
2.61967	17
2.62333	18
2.62700	18
2.63067	18
2.63433	19
2.63800	20
2.64167	20
2.64533	21
2.64900	21
2.65267	22
2.65633	22
2.66000	22
2.66367	23
2.66733	23
2.67100	23
2.67467	23
2.67833	23
2.68200	23
2.68567	23
2.68933	23
2.69300	24
2.69667	24
2.70033	24
2.70400	25
2.70767	25
2.71133	26
2.71500	26
2.71867	26
2.72233	27
2.72600	27
2.72967	27
2.73333	28
2.73700	28
2.74067	27
2.74433	27
2.74800	27
2.75167	26
2.75533	26
2.75900	26
2.76267	26
2.76633	26
2.77000	26
2.77367	27
2.77733	27
2.78100	27
2.78467	28
2.78833	28
2.79200	29
2.79567	29
2.79933	29
2.80300	29
2.80667	29
2.81033	29
2.81400	29
2.81767	29
2.82133	29
2.82500	29
2.82867	29
2.83233	29
2.83600	29
2.83967	29
2.84333	29
2.84700	29
2.85067	29
2.85433	28
2.85800	27
2.86167	24
2.86533	20
2.86900	13
2.87267	3
2.87633	-12
2.88000	-31
2.88367	-55
2.88733	-85
2.89100	-120
2.89467	-161
2.89833	-206
2.90200	-257
2.90567	-311
2.90933	-369
2.91300	-430
2.91667	-493
2.92033	-557
2.92400	-621
2.92767	-686
2.93133	-748
2.93500	-809
2.93867	-865
2.94233	-920
2.94600	-974
2.94967	-1029
2.95333	-1076
2.95700	-1108
2.96067	-1116
2.96433	-1099
2.96800	-1058
2.97167	-1000
2.97533	-929
2.97900	-850
2.98267	-769
2.98633	-688
2.99000	-610
2.99367	-537
2.99733	-470
3.00100	-408
3.00467	-353
3.00833	-303
3.01200	-260
3.01567	-222
3.01933	-188
3.02300	-159
3.02667	-134
3.03033	-112
3.03400	-94
3.03767	-78
3.04133	-64
3.04500	-52
3.04867	-42
3.05233	-34
3.05600	-26
3.05967	-20
3.06333	-15
3.06700	-10
3.07067	-7
3.07433	-3
3.07800	-0
3.08167	3
3.08533	5
3.08900	7
3.09267	8
3.09633	10
3.10000	11
3.10367	12
3.10733	13
3.11100	14
3.11467	15
3.11833	15
3.12200	16
3.12567	17
3.12933	17
3.13300	18
3.13667	18
3.14033	19
3.14400	19
3.14767	19
3.15133	20
3.15500	20
3.15867	20
3.16233	20
3.16600	20
3.16967	20
3.17333	21
3.17700	21
3.18067	21
3.18433	21
3.18800	22
3.19167	22
3.19533	22
3.19900	22
3.20267	22
3.20633	23
3.21000	23
3.21367	23
3.21733	24
3.22100	24
3.22467	24
3.22833	24
3.23200	24
3.23567	24
3.23933	24
3.24300	25
3.24667	25
3.25033	25
3.25400	25
3.25767	25
3.26133	25
3.26500	25
3.26867	25
3.27233	26
3.27600	26
3.27967	26
3.28333	26
3.28700	26
3.29067	26
3.29433	26
3.29800	26
3.30167	26
3.30533	26
3.30900	27
3.31267	27
3.31633	27
3.32000	27
3.32367	27
3.32733	27
3.33100	27
3.33467	28
3.33833	28
3.34200	28
3.34567	28
3.34933	28
3.35300	29
3.35667	29
3.36033	29
3.36400	29
3.36767	30
3.37133	30
3.37500	30
3.37867	30
3.38233	30
3.38600	30
3.38967	30
3.39333	30
3.39700	30
3.40067	30
3.40433	30
3.40800	30
3.41167	30
3.41533	30
3.41900	30
3.42267	30
3.42633	30
3.43000	30
3.43367	30
3.43733	30
3.44100	30
3.44467	30
3.44833	30
3.45200	30
3.45567	30
3.45933	30
3.46300	30
3.46667	30
3.47033	30
3.47400	30
3.47767	30
3.48133	30
3.48500	30
3.48867	30
3.49233	30
3.49600	30
3.49967	30
3.50333	30
3.50700	30
3.51067	30
3.51433	30
3.51800	30
3.52167	30
3.52533	30
3.52900	29
3.53267	29
3.53633	29
3.54000	29
3.54367	29
3.54733	29
3.55100	30
3.55467	30
3.55833	30
3.56200	30
3.56567	30
3.56933	30
3.57300	29
3.57667	29
3.58033	29
3.58400	29
3.58767	29
3.59133	29
3.59500	29
3.59867	28
3.60233	28
3.60600	28
3.60967	28
3.61333	29
3.61700	29
3.62067	29
3.62433	28
3.62800	29
3.63167	29
3.63533	29
3.63900	29
3.64267	29
3.64633	29
3.65000	29
3.65367	29
3.65733	29
3.66100	29
3.66467	30
3.66833	30
3.67200	30
3.67567	30
3.67933	30
3.68300	30
3.68667	30
3.69033	30
3.69400	30
3.69767	30
3.70133	30
3.70500	30
3.70867	30
3.71233	30
3.71600	30
3.71967	30
3.72333	30
3.72700	30
3.73067	30
3.73433	30
3.73800	30
3.74167	30
3.74533	30
3.74900	30
3.75267	30
3.75633	30
3.76000	30
3.76367	30
3.76733	30
3.77100	30
3.77467	29
3.77833	29
3.78200	29
3.78567	29
3.78933	30
3.79300	30
3.79667	30
3.80033	30
3.80400	30
3.80767	30
3.81133	30
3.81500	30
3.81867	30
3.82233	30
3.82600	30
3.82967	30
3.83333	29
3.83700	29
3.84067	29
3.84433	29
3.84800	29
3.85167	29
3.85533	29
3.85900	30
3.86267	30
3.86633	30
3.87000	30
3.87367	30
3.87733	30
3.88100	30
3.88467	30
3.88833	30
3.89200	30
3.89567	30
3.89933	30
3.90300	30
3.90667	30
3.91033	30
3.91400	30
3.91767	30
3.92133	30
3.92500	30
3.92867	30
3.93233	30
3.93600	30
3.93967	30
3.94333	30
3.94700	30
3.95067	30
3.95433	30
3.95800	30
3.96167	30
3.96533	30
3.96900	30
3.97267	30
3.97633	30
3.98000	30
3.98367	30
3.98733	30
3.99100	30
3.99467	30
3.99833	30

[Chromatogram (Ch3)]
Interval(msec)	220
# of Points	1091
Start Time(min)	0.002
End Time(min)	3.998
R.Time (min)	Intensity
0.00167	2
0.00533	4
0.00900	4
0.01267	3
0.01633	1
0.02000	-2
0.02367	-5
0.02733	-7
0.03100	-5
0.03467	-5
0.03833	-3
0.04200	-2
0.04567	-1
0.04933	-3
0.05300	-3
0.05667	-2
0.06033	-2
0.06400	-3
0.06767	-5
0.07133	-5
0.07500	-4
0.07867	-3
0.08233	-3
0.08600	-4
0.08967	-3
0.09333	-2
0.09700	-3
0.10067	-2
0.10433	-1
0.10800	1
0.11167	3
0.11533	3
0.11900	3
0.12267	0
0.12633	-3
0.13000	-3
0.13367	-2
0.13733	0
0.14100	2
0.14467	4
0.14833	3
0.15200	2
0.15567	-0
0.15933	-1
0.16300	-0
0.16667	2
0.17033	0
0.17400	-1
0.17767	-2
0.18133	-5
0.18500	-6
0.18867	-8
0.19233	-6
0.19600	-2
0.19967	-0
0.20333	1
0.20700	1
0.21067	1
0.21433	0
0.21800	-4
0.22167	-6
0.22533	-5
0.22900	-3
0.23267	-4
0.23633	-4
0.24000	-5
0.24367	-5
0.24733	-4
0.25100	-3
0.25467	-1
0.25833	-0
0.26200	-1
0.26567	-3
0.26933	-2
0.27300	-1
0.27667	-1
0.28033	-2
0.28400	-2
0.28767	-3
0.29133	-2
0.29500	1
0.29867	2
0.30233	3
0.30600	2
0.30967	2
0.31333	2
0.31700	1
0.32067	-0
0.32433	-3
0.32800	-4
0.33167	-4
0.33533	-4
0.33900	-6
0.34267	-5
0.34633	-3
0.35000	-2
0.35367	2
0.35733	3
0.36100	5
0.36467	6
0.36833	7
0.37200	5
0.37567	2
0.37933	1
0.38300	-2
0.38667	-4
0.39033	-6
0.39400	-6
0.39767	-3
0.40133	-0
0.40500	0
0.40867	3
0.41233	4
0.41600	3
0.41967	3
0.42333	2
0.42700	-1
0.43067	-2
0.43433	-1
0.43800	-0
0.44167	0
0.44533	-1
0.44900	-2
0.45267	-2
0.45633	-2
0.46000	-4
0.46367	-5
0.46733	-7
0.47100	-9
0.47467	-11
0.47833	-12
0.48200	-9
0.48567	-6
0.48933	-6
0.49300	-5
0.49667	-3
0.50033	0
0.50400	3
0.50767	2
0.51133	-0
0.51500	-1
0.51867	0
0.52233	1
0.52600	2
0.52967	3
0.53333	1
0.53700	-0
0.54067	-1
0.54433	-4
0.54800	-5
0.55167	-6
0.55533	-4
0.55900	-1
0.56267	1
0.56633	-0
0.57000	-3
0.57367	-3
0.57733	-5
0.58100	-5
0.58467	-5
0.58833	-5
0.59200	-2
0.59567	1
0.59933	4
0.60300	4
0.60667	4
0.61033	3
0.61400	-0
0.61767	-1
0.62133	-0
0.62500	-0
0.62867	-0
0.63233	1
0.63600	3
0.63967	2
0.64333	1
0.64700	-2
0.65067	-2
0.65433	-2
0.65800	-0
0.66167	0
0.66533	1
0.66900	3
0.67267	4
0.67633	2
0.68000	0
0.68367	2
0.68733	3
0.69100	-0
0.69467	-3
0.69833	-2
0.70200	-1
0.70567	-3
0.70933	-5
0.71300	-6
0.71667	-7
0.72033	-6
0.72400	-4
0.72767	-4
0.73133	-4
0.73500	-2
0.73867	0
0.74233	-2
0.74600	-2
0.74967	-1
0.75333	3
0.75700	4
0.76067	5
0.76433	7
0.76800	6
0.77167	5
0.77533	6
0.77900	7
0.78267	5
0.78633	5
0.79000	7
0.79367	7
0.79733	4
0.80100	3
0.80467	4
0.80833	6
0.81200	7
0.81567	4
0.81933	1
0.82300	0
0.82667	-2
0.83033	-3
0.83400	-4
0.83767	-2
0.84133	1
0.84500	2
0.84867	4
0.85233	5
0.85600	5
0.85967	7
0.86333	8
0.86700	9
0.87067	11
0.87433	11
0.87800	9
0.88167	7
0.88533	4
0.88900	4
0.89267	5
0.89633	5
0.90000	5
0.90367	3
0.90733	3
0.91100	6
0.91467	9
0.91833	7
0.92200	7
0.92567	6
0.92933	7
0.93300	6
0.93667	4
0.94033	4
0.94400	6
0.94767	6
0.95133	6
0.95500	6
0.95867	5
0.96233	3
0.96600	2
0.96967	2
0.97333	1
0.97700	0
0.98067	-0
0.98433	1
0.98800	1
0.99167	2
0.99533	3
0.99900	3
1.00267	5
1.00633	7
1.01000	7
1.01367	5
1.01733	2
1.02100	2
1.02467	1
1.02833	0
1.03200	1
1.03567	1
1.03933	1
1.04300	2
1.04667	5
1.05033	10
1.05400	11
1.05767	10
1.06133	9
1.06500	9
1.06867	7
1.07233	5
1.07600	5
1.07967	3
1.08333	2
1.08700	2
1.09067	4
1.09433	4
1.09800	4
1.10167	4
1.10533	2
1.10900	1
1.11267	1
1.11633	1
1.12000	2
1.12367	4
1.12733	5
1.13100	6
1.13467	8
1.13833	9
1.14200	11
1.14567	11
1.14933	10
1.15300	9
1.15667	6
1.16033	4
1.16400	4
1.16767	6
1.17133	8
1.17500	9
1.17867	10
1.18233	12
1.18600	10
1.18967	7
1.19333	5
1.19700	3
1.20067	1
1.20433	2
1.20800	1
1.21167	0
1.21533	-0
1.21900	1
1.22267	3
1.22633	3
1.23000	4
1.23367	8
1.23733	10
1.24100	10
1.24467	10
1.24833	9
1.25200	9
1.25567	10
1.25933	10
1.26300	10
1.26667	8
1.27033	7
1.27400	7
1.27767	8
1.28133	8
1.28500	9
1.28867	9
1.29233	8
1.29600	8
1.29967	7
1.30333	6
1.30700	6
1.31067	7
1.31433	6
1.31800	4
1.32167	4
1.32533	6
1.32900	8
1.33267	7
1.33633	4
1.34000	2
1.34367	2
1.34733	1
1.35100	-1
1.35467	-1
1.35833	-0
1.36200	1
1.36567	3
1.36933	4
1.37300	4
1.37667	3
1.38033	5
1.38400	6
1.38767	5
1.39133	4
1.39500	7
1.39867	7
1.40233	6
1.40600	5
1.40967	4
1.41333	4
1.41700	3
1.42067	4
1.42433	6
1.42800	7
1.43167	5
1.43533	3
1.43900	0
1.44267	-2
1.44633	0
1.45000	3
1.45367	3
1.45733	4
1.46100	5
1.46467	5
1.46833	5
1.47200	3
1.47567	2
1.47933	4
1.48300	5
1.48667	4
1.49033	1
1.49400	0
1.49767	3
1.50133	5
1.50500	5
1.50867	4
1.51233	3
1.51600	2
1.51967	2
1.52333	4
1.52700	4
1.53067	4
1.53433	5
1.53800	5
1.54167	4
1.54533	3
1.54900	3
1.55267	2
1.55633	2
1.56000	4
1.56367	5
1.56733	8
1.57100	9
1.57467	10
1.57833	13
1.58200	13
1.58567	12
1.58933	12
1.59300	12
1.59667	10
1.60033	10
1.60400	11
1.60767	10
1.61133	11
1.61500	11
1.61867	12
1.62233	13
1.62600	14
1.62967	14
1.63333	15
1.63700	14
1.64067	12
1.64433	12
1.64800	11
1.65167	12
1.65533	14
1.65900	14
1.66267	14
1.66633	15
1.67000	15
1.67367	17
1.67733	17
1.68100	17
1.68467	13
1.68833	9
1.69200	9
1.69567	9
1.69933	10
1.70300	11
1.70667	12
1.71033	12
1.71400	12
1.71767	12
1.72133	10
1.72500	12
1.72867	14
1.73233	14
1.73600	13
1.73967	14
1.74333	13
1.74700	10
1.75067	10
1.75433	12
1.75800	16
1.76167	15
1.76533	13
1.76900	14
1.77267	15
1.77633	15
1.78000	15
1.78367	15
1.78733	15
1.79100	15
1.79467	15
1.79833	15
1.80200	16
1.80567	17
1.80933	17
1.81300	17
1.81667	17
1.82033	18
1.82400	20
1.82767	20
1.83133	21
1.83500	23
1.83867	25
1.84233	26
1.84600	27
1.84967	28
1.85333	26
1.85700	24
1.86067	23
1.86433	20
1.86800	20
1.87167	23
1.87533	25
1.87900	26
1.88267	25
1.88633	23
1.89000	24
1.89367	26
1.89733	27
1.90100	27
1.90467	29
1.90833	31
1.91200	31
1.91567	30
1.91933	31
1.92300	33
1.92667	36
1.93033	36
1.93400	35
1.93767	31
1.94133	29
1.94500	31
1.94867	31
1.95233	29
1.95600	29
1.95967	31
1.96333	33
1.96700	35
1.97067	36
1.97433	37
1.97800	41
1.98167	42
1.98533	43
1.98900	42
1.99267	39
1.99633	37
2.00000	37
2.00367	36
2.00733	36
2.01100	37
2.01467	38
2.01833	41
2.02200	45
2.02567	48
2.02933	47
2.03300	45
2.03667	46
2.04033	49
2.04400	53
2.04767	53
2.05133	52
2.05500	51
2.05867	50
2.06233	52
2.06600	53
2.06967	53
2.07333	53
2.07700	53
2.08067	53
2.08433	54
2.08800	57
2.09167	59
2.09533	61
2.09900	62
2.10267	64
2.10633	64
2.11000	62
2.11367	61
2.11733	62
2.12100	63
2.12467	62
2.12833	61
2.13200	61
2.13567	61
2.13933	61
2.14300	61
2.14667	63
2.15033	63
2.15400	65
2.15767	63
2.16133	61
2.16500	63
2.16867	64
2.17233	65
2.17600	67
2.17967	70
2.18333	72
2.18700	72
2.19067	72
2.19433	72
2.19800	71
2.20167	72
2.20533	74
2.20900	75
2.21267	75
2.21633	75
2.22000	75
2.22367	75
2.22733	75
2.23100	75
2.23467	77
2.23833	80
2.24200	82
2.24567	81
2.24933	77
2.25300	76
2.25667	78
2.26033	81
2.26400	84
2.26767	85
2.27133	85
2.27500	84
2.27867	86
2.28233	85
2.28600	84
2.28967	81
2.29333	79
2.29700	82
2.30067	85
2.30433	87
2.30800	89
2.31167	90
2.31533	91
2.31900	91
2.32267	91
2.32633	91
2.33000	90
2.33367	89
2.33733	90
2.34100	91
2.34467	90
2.34833	89
2.35200	87
2.35567	87
2.35933	87
2.36300	88
2.36667	90
2.37033	94
2.37400	96
2.37767	95
2.38133	93
2.38500	91
2.38867	87
2.39233	88
2.39600	94
2.39967	102
2.40333	108
2.40700	113
2.41067	118
2.41433	119
2.41800	118
2.42167	117
2.42533	115
2.42900	116
2.43267	116
2.43633	117
2.44000	122
2.44367	159
2.44733	221
2.45100	272
2.45467	299
2.45833	298
2.46200	274
2.46567	246
2.46933	227
2.47300	214
2.47667	196
2.48033	173
2.48400	146
2.48767	123
2.49133	101
2.49500	83
2.49867	74
2.50233	68
2.50600	67
2.50967	71
2.51333	78
2.51700	80
2.52067	77
2.52433	73
2.52800	65
2.53167	54
2.53533	40
2.53900	29
2.54267	22
2.54633	17
2.55000	12
2.55367	7
2.55733	1
2.56100	-5
2.56467	-10
2.56833	-12
2.57200	-10
2.57567	-8
2.57933	-4
2.58300	2
2.58667	8
2.59033	16
2.59400	24
2.59767	33
2.60133	40
2.60500	44
2.60867	48
2.61233	51
2.61600	53
2.61967	52
2.62333	50
2.62700	45
2.63067	38
2.63433	29
2.63800	23
2.64167	19
2.64533	12
2.64900	4
2.65267	-6
2.65633	-13
2.66000	-18
2.66367	-22
2.66733	-25
2.67100	-30
2.67467	-34
2.67833	-38
2.68200	-39
2.68567	-39
2.68933	-43
2.69300	-44
2.69667	-44
2.70033	-45
2.70400	-46
2.70767	-45
2.71133	-43
2.71500	-39
2.71867	-37
2.72233	-36
2.72600	-38
2.72967	-36
2.73333	-32
2.73700	-28
2.74067	-26
2.74433	-25
2.74800	-25
2.75167	-22
2.75533	-18
2.75900	-15
2.76267	-11
2.76633	-6
2.77000	-1
2.77367	1
2.77733	3
2.78100	6
2.78467	10
2.78833	13
2.79200	16
2.79567	20
2.79933	24
2.80300	28
2.80667	34
2.81033	38
2.81400	40
2.81767	42
2.82133	44
2.82500	45
2.82867	48
2.83233	51
2.83600	58
2.83967	73
2.84333	106
2.84700	172
2.85067	290
2.85433	476
2.85800	741
2.86167	1087
2.86533	1503
2.86900	1970
2.87267	2453
2.87633	2915
2.88000	3309
2.88367	3602
2.88733	3784
2.89100	3851
2.89467	3810
2.89833	3680
2.90200	3479
2.90567	3230
2.90933	2953
2.91300	2670
2.91667	2393
2.92033	2129
2.92400	1884
2.92767	1658
2.93133	1454
2.93500	1272
2.93867	1110
2.94233	968
2.94600	841
2.94967	731
2.95333	634
2.95700	552
2.96067	479
2.96433	417
2.96800	366
2.97167	323
2.97533	282
2.97900	247
2.98267	215
2.98633	193
2.99000	174
2.99367	157
2.99733	140
3.00100	125
3.00467	114
3.00833	88
3.01200	17
3.01567	-85
3.01933	-156
3.02300	-165
3.02667	-114
3.03033	-26
3.03400	84
3.03767	203
3.04133	320
3.04500	426
3.04867	519
3.05233	599
3.05600	665
3.05967	718
3.06333	758
3.06700	790
3.07067	820
3.07433	843
3.07800	859
3.08167	869
3.08533	878
3.08900	884
3.09267	888
3.09633	891
3.10000	892
3.10367	893
3.10733	892
3.11100	892
3.11467	889
3.11833	885
3.12200	881
3.12567	875
3.12933	870
3.13300	869
3.13667	869
3.14033	866
3.14400	862
3.14767	858
3.15133	852
3.15500	847
3.15867	842
3.16233	837
3.16600	836
3.16967	833
3.17333	830
3.17700	826
3.18067	825
3.18433	823
3.18800	817
3.19167	813
3.19533	808
3.19900	802
3.20267	799
3.20633	795
3.21000	791
3.21367	787
3.21733	785
3.22100	783
3.22467	781
3.22833	780
3.23200	779
3.23567	776
3.23933	773
3.24300	769
3.24667	762
3.25033	757
3.25400	754
3.25767	750
3.26133	746
3.26500	741
3.26867	734
3.27233	729
3.27600	724
3.27967	720
3.28333	716
3.28700	711
3.29067	707
3.29433	702
3.29800	699
3.30167	698
3.30533	694
3.30900	689
3.31267	687
3.31633	685
3.32000	683
3.32367	681
3.32733	678
3.33100	677
3.33467	673
3.33833	670
3.34200	670
3.34567	671
3.34933	672
3.35300	674
3.35667	675
3.36033	675
3.36400	676
3.36767	677
3.37133	677
3.37500	679
3.37867	684
3.38233	687
3.38600	687
3.38967	688
3.39333	690
3.39700	688
3.40067	688
3.40433	692
3.40800	694
3.41167	694
3.41533	696
3.41900	695
3.42267	693
3.42633	692
3.43000	690
3.43367	688
3.43733	683
3.44100	676
3.44467	673
3.44833	674
3.45200	670
3.45567	665
3.45933	660
3.46300	656
3.46667	651
3.47033	642
3.47400	634
3.47767	628
3.48133	621
3.48500	614
3.48867	609
3.49233	604
3.49600	602
3.49967	599
3.50333	594
3.50700	589
3.51067	585
3.51433	581
3.51800	575
3.52167	568
3.52533	562
3.52900	559
3.53267	556
3.53633	550
3.54000	545
3.54367	543
3.54733	542
3.55100	540
3.55467	539
3.55833	539
3.56200	537
3.56567	531
3.56933	524
3.57300	522
3.57667	521
3.58033	519
3.58400	515
3.58767	512
3.59133	505
3.59500	502
3.59867	501
3.60233	501
3.60600	503
3.60967	501
3.61333	499
3.61700	494
3.62067	490
3.62433	487
3.62800	487
3.63167	486
3.63533	483
3.63900	479
3.64267	477
3.64633	475
3.65000	473
3.65367	472
3.65733	470
3.66100	469
3.66467	468
3.66833	469
3.67200	471
3.67567	470
3.67933	472
3.68300	474
3.68667	473
3.69033	472
3.69400	471
3.69767	469
3.70133	467
3.70500	465
3.70867	462
3.71233	461
3.71600	459
3.71967	459
3.72333	461
3.72700	463
3.73067	463
3.73433	462
3.73800	463
3.74167	463
3.74533	459
3.74900	456
3.75267	453
3.75633	450
3.76000	450
3.76367	452
3.76733	452
3.77100	448
3.77467	444
3.77833	444
3.78200	443
3.78567	445
3.78933	446
3.79300	447
3.79667	446
3.80033	442
3.80400	440
3.80767	437
3.81133	433
3.81500	430
3.81867	430
3.82233	432
3.82600	434
3.82967	436
3.83333	438
3.83700	437
3.84067	435
3.84433	435
3.84800	432
3.85167	430
3.85533	430
3.85900	431
3.86267	431
3.86633	430
3.87000	428
3.87367	429
3.87733	429
3.88100	427
3.88467	425
3.88833	424
3.89200	422
3.89567	420
3.89933	422
3.90300	424
3.90667	424
3.91033	423
3.91400	422
3.91767	421
3.92133	420
3.92500	422
3.92867	420
3.93233	417
3.93600	415
3.93967	414
3.94333	415
3.94700	415
3.95067	414
3.95433	413
3.95800	413
3.96167	416
3.96533	417
3.96900	415
3.97267	416
3.97633	416
3.98000	415
3.98367	416
3.98733	415
3.99100	412
3.99467	408
3.99833	400

[Status Trace (Column Oven Temperature)]
Interval(msec)	1000
# of Points	240
Start Time(min)	0.015
End Time(min)	3.998
Intensity Units	
Intensity Multiplier	1
R.Time (min)	Intensity
0.01465	35.05
0.03132	35.05
0.04798	35.04
0.06465	35.04
0.08132	35.03
0.09798	35.04
0.11465	35.04
0.13132	35.04
0.14798	35.04
0.16465	35.03
0.18132	35.03
0.19798	35.03
0.21465	35.03
0.23132	35.03
0.24798	35.02
0.26465	35.02
0.28132	35.02
0.29798	35.02
0.31465	35.02
0.33132	35.02
0.34798	35.02
0.36465	35.01
0.38132	35.01
0.39798	35.00
0.41465	35.00
0.43132	35.00
0.44798	35.00
0.46465	35.00
0.48132	35.00
0.49798	35.00
0.51465	35.00
0.53132	35.01
0.54798	35.01
0.56465	35.00
0.58132	35.00
0.59798	35.00
0.61465	35.01
0.63132	35.01
0.64798	35.00
0.66465	35.00
0.68132	35.00
0.69798	35.00
0.71465	35.00
0.73132	34.99
0.74798	34.99
0.76465	34.98
0.78132	34.98
0.79798	34.98
0.81465	34.99
0.83132	34.99
0.84798	34.99
0.86465	34.99
0.88132	34.99
0.89798	34.99
0.91465	34.99
0.93132	35.00
0.94798	35.00
0.96465	34.99
0.98132	34.99
0.99798	35.00
1.01465	35.00
1.03132	35.00
1.04798	35.00
1.06465	35.00
1.08132	35.00
1.09798	35.00
1.11465	34.98
1.13132	34.99
1.14798	34.99
1.16465	34.99
1.18132	34.99
1.19798	34.99
1.21465	34.99
1.23132	34.99
1.24798	34.99
1.26465	34.99
1.28132	34.99
1.29798	34.99
1.31465	35.00
1.33132	35.00
1.34798	35.00
1.36465	34.99
1.38132	35.00
1.39798	34.99
1.41465	34.99
1.43132	34.99
1.44798	35.00
1.46465	34.99
1.48132	34.99
1.49798	34.99
1.51465	34.99
1.53132	34.99
1.54798	34.99
1.56465	34.99
1.58132	34.99
1.59798	35.02
1.61465	35.10
1.63132	35.25
1.64798	35.46
1.66465	35.73
1.68132	36.10
1.69798	36.46
1.71465	36.81
1.73132	37.13
1.74798	37.46
1.76465	37.79
1.78132	38.13
1.79798	38.46
1.81465	38.80
1.83132	39.13
1.84798	39.45
1.86465	39.79
1.88132	40.12
1.89798	40.44
1.91465	40.79
1.93132	41.11
1.94798	41.44
1.96465	41.77
1.98132	42.11
1.99798	42.44
2.01465	42.78
2.03132	43.08
2.04798	43.41
2.06465	43.74
2.08132	44.07
2.09798	44.38
2.11465	44.70
2.13132	45.03
2.14798	45.35
2.16465	45.69
2.18132	46.01
2.19798	46.34
2.21465	46.66
2.23132	47.01
2.24798	47.32
2.26465	47.65
2.28132	47.98
2.29798	48.29
2.31465	48.65
2.33132	48.97
2.34798	49.26
2.36465	49.52
2.38132	49.66
2.39798	49.70
2.41465	49.68
2.43132	49.69
2.44798	49.69
2.46465	49.71
2.48132	49.72
2.49798	49.72
2.51465	49.74
2.53132	49.75
2.54798	49.75
2.56465	49.77
2.58132	49.79
2.59798	49.80
2.61465	49.81
2.63132	49.83
2.64798	49.83
2.66465	49.84
2.68132	49.85
2.69798	49.86
2.71465	49.85
2.73132	49.84
2.74798	49.86
2.76465	49.89
2.78132	49.89
2.79798	49.88
2.81465	49.87
2.83132	49.88
2.84798	49.88
2.86465	49.89
2.88132	49.90
2.89798	49.92
2.91465	49.93
2.93132	49.94
2.94798	49.95
2.96465	49.96
2.98132	49.97
2.99798	49.98
3.01465	49.99
3.03132	49.99
3.04798	50.00
3.06465	50.02
3.08132	50.02
3.09798	50.02
3.11465	50.02
3.13132	50.03
3.14798	50.04
3.16465	50.05
3.18132	50.06
3.19798	50.07
3.21465	50.08
3.23132	50.09
3.24798	50.09
3.26465	50.09
3.28132	50.10
3.29798	50.11
3.31465	50.10
3.33132	50.09
3.34798	50.08
3.36465	50.07
3.38132	50.07
3.39798	50.06
3.41465	50.07
3.43132	50.06
3.44798	50.06
3.46465	50.05
3.48132	50.05
3.49798	50.05
3.51465	50.05
3.53132	50.05
3.54798	50.05
3.56465	50.04
3.58132	50.04
3.59798	50.05
3.61465	50.05
3.63132	50.05
3.64798	50.06
3.66465	50.06
3.68132	50.06
3.69798	50.07
3.71465	50.06
3.73132	50.07
3.74798	50.07
3.76465	50.07
3.78132	50.07
3.79798	50.07
3.81465	50.07
3.83132	50.06
3.84798	50.06
3.86465	50.05
3.88132	50.06
3.89798	50.06
3.91465	50.06
3.93132	50.06
3.94798	50.06
3.96465	50.06
3.98132	50.06
3.99798	50.05

[Status Trace (Injection Unit Temperature)]
Interval(msec)	1000
# of Points	240
Start Time(min)	0.015
End Time(min)	3.998
Intensity Units	
Intensity Multiplier	1
R.Time (min)	Intensity
0.01465	99.98
0.03132	99.97
0.04798	99.98
0.06465	99.98
0.08132	99.98
0.09798	99.98
0.11465	99.98
0.13132	99.97
0.14798	99.97
0.16465	99.98
0.18132	99.97
0.19798	99.97
0.21465	99.98
0.23132	99.97
0.24798	99.98
0.26465	99.98
0.28132	99.98
0.29798	99.98
0.31465	99.97
0.33132	99.98
0.34798	99.98
0.36465	99.97
0.38132	99.97
0.39798	99.98
0.41465	99.97
0.43132	99.97
0.44798	99.97
0.46465	99.98
0.48132	99.98
0.49798	99.98
0.51465	99.98
0.53132	99.98
0.54798	99.98
0.56465	99.98
0.58132	99.98
0.59798	99.98
0.61465	99.98
0.63132	99.98
0.64798	99.98
0.66465	99.98
0.68132	99.98
0.69798	99.98
0.71465	99.98
0.73132	99.98
0.74798	99.98
0.76465	99.98
0.78132	99.98
0.79798	99.98
0.81465	99.98
0.83132	99.98
0.84798	99.98
0.86465	99.98
0.88132	99.98
0.89798	99.98
0.91465	99.99
0.93132	99.98
0.94798	99.98
0.96465	99.98
0.98132	99.98
0.99798	99.98
1.01465	99.98
1.03132	99.98
1.04798	99.98
1.06465	99.98
1.08132	99.98
1.09798	99.99
1.11465	99.98
1.13132	99.98
1.14798	99.98
1.16465	99.98
1.18132	99.98
1.19798	99.98
1.21465	99.98
1.23132	99.99
1.24798	99.98
1.26465	99.98
1.28132	99.98
1.29798	99.98
1.31465	99.98
1.33132	99.98
1.34798	99.98
1.36465	99.98
1.38132	99.98
1.39798	99.98
1.41465	99.98
1.43132	99.98
1.44798	99.98
1.46465	99.98
1.48132	99.98
1.49798	99.98
1.51465	99.98
1.53132	99.98
1.54798	99.98
1.56465	99.98
1.58132	99.98
1.59798	99.98
1.61465	99.98
1.63132	99.98
1.64798	99.98
1.66465	99.98
1.68132	99.98
1.69798	99.98
1.71465	99.98
1.73132	99.98
1.74798	99.98
1.76465	99.98
1.78132	99.98
1.79798	99.98
1.81465	99.98
1.83132	99.98
1.84798	99.98
1.86465	99.98
1.88132	99.98
1.89798	99.98
1.91465	99.98
1.93132	99.98
1.94798	99.98
1.96465	99.98
1.98132	99.97
1.99798	99.97
2.01465	99.97
2.03132	99.98
2.04798	99.98
2.06465	99.97
2.08132	99.97
2.09798	99.97
2.11465	99.97
2.13132	99.97
2.14798	99.97
2.16465	99.97
2.18132	99.97
2.19798	99.97
2.21465	99.96
2.23132	99.96
2.24798	99.96
2.26465	99.96
2.28132	99.96
2.29798	99.96
2.31465	99.96
2.33132	99.96
2.34798	99.96
2.36465	99.96
2.38132	99.96
2.39798	99.96
2.41465	99.96
2.43132	99.96
2.44798	99.96
2.46465	99.96
2.48132	99.96
2.49798	99.96
2.51465	99.96
2.53132	99.96
2.54798	99.96
2.56465	99.96
2.58132	99.97
2.59798	99.96
2.61465	99.97
2.63132	99.97
2.64798	99.97
2.66465	99.97
2.68132	99.98
2.69798	99.98
2.71465	99.98
2.73132	99.98
2.74798	99.98
2.76465	99.98
2.78132	99.98
2.79798	99.99
2.81465	99.99
2.83132	99.99
2.84798	99.99
2.86465	99.99
2.88132	99.99
2.89798	99.99
2.91465	99.99
2.93132	100.00
2.94798	100.00
2.96465	100.00
2.98132	100.00
2.99798	100.00
3.01465	100.00
3.03132	100.00
3.04798	100.01
3.06465	100.01
3.08132	100.01
3.09798	100.01
3.11465	100.01
3.13132	100.02
3.14798	100.01
3.16465	100.01
3.18132	100.02
3.19798	100.02
3.21465	100.02
3.23132	100.02
3.24798	100.02
3.26465	100.02
3.28132	100.02
3.29798	100.03
3.31465	100.03
3.33132	100.03
3.34798	100.03
3.36465	100.03
3.38132	100.03
3.39798	100.03
3.41465	100.03
3.43132	100.03
3.44798	100.03
3.46465	100.03
3.48132	100.03
3.49798	100.04
3.51465	100.04
3.53132	100.04
3.54798	100.04
3.56465	100.04
3.58132	100.04
3.59798	100.04
3.61465	100.04
3.63132	100.04
3.64798	100.04
3.66465	100.04
3.68132	100.04
3.69798	100.04
3.71465	100.04
3.73132	100.04
3.74798	100.04
3.76465	100.04
3.78132	100.04
3.79798	100.04
3.81465	100.05
3.83132	100.04
3.84798	100.05
3.86465	100.04
3.88132	100.04
3.89798	100.04
3.91465	100.05
3.93132	100.04
3.94798	100.04
3.96465	100.04
3.98132	100.04
3.99798	100.05

[Status Trace (Carrier Gas Pressure)]
Interval(msec)	1000
# of Points	240
Start Time(min)	0.015
End Time(min)	3.998
Intensity Units	
Intensity Multiplier	1
R.Time (min)	Intensity
0.01465	57.48
0.03132	55.52
0.04798	57.99
0.06465	59.82
0.08132	58.73
0.09798	57.98
0.11465	57.99
0.13132	58.01
0.14798	58.01
0.16465	58.00
0.18132	58.00
0.19798	58.00
0.21465	58.00
0.23132	58.00
0.24798	58.00
0.26465	58.00
0.28132	58.00
0.29798	58.00
0.31465	58.00
0.33132	58.00
0.34798	58.00
0.36465	58.00
0.38132	58.00
0.39798	58.00
0.41465	58.00
0.43132	58.00
0.44798	58.00
0.46465	58.00
0.48132	58.00
0.49798	58.00
0.51465	58.00
0.53132	58.00
0.54798	58.00
0.56465	58.00
0.58132	58.00
0.59798	58.00
0.61465	58.00
0.63132	58.00
0.64798	58.00
0.66465	58.00
0.68132	58.00
0.69798	58.00
0.71465	58.00
0.73132	58.00
0.74798	58.00
0.76465	58.00
0.78132	58.00
0.79798	58.00
0.81465	58.00
0.83132	58.00
0.84798	58.00
0.86465	58.00
0.88132	58.00
0.89798	58.00
0.91465	58.00
0.93132	58.00
0.94798	58.00
0.96465	58.00
0.98132	58.00
0.99798	58.00
1.01465	58.00
1.03132	58.00
1.04798	58.00
1.06465	58.00
1.08132	58.00
1.09798	58.00
1.11465	58.00
1.13132	58.00
1.14798	58.00
1.16465	58.00
1.18132	58.00
1.19798	58.00
1.21465	58.00
1.23132	58.00
1.24798	58.00
1.26465	58.00
1.28132	58.00
1.29798	58.00
1.31465	58.00
1.33132	58.00
1.34798	58.00
1.36465	58.00
1.38132	58.00
1.39798	58.00
1.41465	58.00
1.43132	58.00
1.44798	58.00
1.46465	58.00
1.48132	58.00
1.49798	58.00
1.51465	58.00
1.53132	58.00
1.54798	58.00
1.56465	58.00
1.58132	58.00
1.59798	58.00
1.61465	58.00
1.63132	58.00
1.64798	58.00
1.66465	58.00
1.68132	58.01
1.69798	58.00
1.71465	58.00
1.73132	58.00
1.74798	58.00
1.76465	58.00
1.78132	58.00
1.79798	58.00
1.81465	58.00
1.83132	58.00
1.84798	58.00
1.86465	58.00
1.88132	58.00
1.89798	58.00
1.91465	58.00
1.93132	58.00
1.94798	58.00
1.96465	58.00
1.98132	58.00
1.99798	58.00
2.01465	58.00
2.03132	58.00
2.04798	58.00
2.06465	58.00
2.08132	58.00
2.09798	58.00
2.11465	58.00
2.13132	58.00
2.14798	58.00
2.16465	58.00
2.18132	58.00
2.19798	58.00
2.21465	58.00
2.23132	58.00
2.24798	58.00
2.26465	58.00
2.28132	58.00
2.29798	58.00
2.31465	58.00
2.33132	58.00
2.34798	58.00
2.36465	58.00
2.38132	58.00
2.39798	57.99
2.41465	58.00
2.43132	58.00
2.44798	58.00
2.46465	58.00
2.48132	58.00
2.49798	58.00
2.51465	57.99
2.53132	57.99
2.54798	58.00
2.56465	58.00
2.58132	58.00
2.59798	58.00
2.61465	58.00
2.63132	58.00
2.64798	58.00
2.66465	58.00
2.68132	58.00
2.69798	58.00
2.71465	58.00
2.73132	58.00
2.74798	58.00
2.76465	58.00
2.78132	58.00
2.79798	58.00
2.81465	58.00
2.83132	58.00
2.84798	58.00
2.86465	58.00
2.88132	58.00
2.89798	58.00
2.91465	58.00
2.93132	58.00
2.94798	58.00
2.96465	58.00
2.98132	58.00
2.99798	58.00
3.01465	58.00
3.03132	58.00
3.04798	58.00
3.06465	58.00
3.08132	58.00
3.09798	58.00
3.11465	58.00
3.13132	58.00
3.14798	58.00
3.16465	58.00
3.18132	58.00
3.19798	58.00
3.21465	58.00
3.23132	58.00
3.24798	58.00
3.26465	58.00
3.28132	58.00
3.29798	58.00
3.31465	58.00
3.33132	58.00
3.34798	58.00
3.36465	58.00
3.38132	58.00
3.39798	58.00
3.41465	58.00
3.43132	58.00
3.44798	58.00
3.46465	58.00
3.48132	58.00
3.49798	58.00
3.51465	58.00
3.53132	58.00
3.54798	58.00
3.56465	58.00
3.58132	58.00
3.59798	58.00
3.61465	58.00
3.63132	58.00
3.64798	58.00
3.66465	58.00
3.68132	58.00
3.69798	58.00
3.71465	58.00
3.73132	58.00
3.74798	58.00
3.76465	58.00
3.78132	58.00
3.79798	58.00
3.81465	58.00
3.83132	58.00
3.84798	58.00
3.86465	58.00
3.88132	58.00
3.89798	58.00
3.91465	58.00
3.93132	58.00
3.94798	58.00
3.96465	58.00
3.98132	58.00
3.99798	58.00

[Status Trace (Carrier Gas Flow)]
Interval(msec)	1000
# of Points	240
Start Time(min)	0.015
End Time(min)	3.998
Intensity Units	
Intensity Multiplier	1
R.Time (min)	Intensity
0.01465	34.13
0.03132	34.54
0.04798	34.55
0.06465	34.52
0.08132	34.51
0.09798	34.52
0.11465	34.52
0.13132	34.52
0.14798	34.52
0.16465	34.52
0.18132	34.52
0.19798	34.52
0.21465	34.52
0.23132	34.52
0.24798	34.52
0.26465	34.52
0.28132	34.52
0.29798	34.52
0.31465	34.52
0.33132	34.52
0.34798	34.52
0.36465	34.52
0.38132	34.52
0.39798	34.52
0.41465	34.52
0.43132	34.52
0.44798	34.52
0.46465	34.52
0.48132	34.52
0.49798	34.51
0.51465	34.52
0.53132	34.52
0.54798	34.52
0.56465	34.52
0.58132	34.52
0.59798	34.52
0.61465	34.52
0.63132	34.52
0.64798	34.52
0.66465	34.52
0.68132	34.52
0.69798	34.52
0.71465	34.52
0.73132	34.52
0.74798	34.53
0.76465	34.51
0.78132	34.52
0.79798	34.52
0.81465	34.52
0.83132	34.52
0.84798	34.52
0.86465	34.52
0.88132	34.52
0.89798	34.52
0.91465	34.52
0.93132	34.52
0.94798	34.52
0.96465	34.52
0.98132	34.52
0.99798	34.52
1.01465	34.52
1.03132	34.52
1.04798	34.52
1.06465	34.52
1.08132	34.52
1.09798	34.52
1.11465	34.51
1.13132	34.52
1.14798	34.52
1.16465	34.52
1.18132	34.51
1.19798	34.52
1.21465	34.52
1.23132	34.52
1.24798	34.52
1.26465	34.53
1.28132	34.51
1.29798	34.52
1.31465	34.52
1.33132	34.52
1.34798	34.51
1.36465	34.52
1.38132	34.52
1.39798	34.52
1.41465	34.52
1.43132	34.53
1.44798	34.52
1.46465	34.52
1.48132	34.51
1.49798	34.52
1.51465	34.52
1.53132	34.53
1.54798	34.52
1.56465	34.52
1.58132	34.52
1.59798	34.52
1.61465	34.52
1.63132	34.51
1.64798	34.52
1.66465	34.52
1.68132	34.51
1.69798	34.52
1.71465	34.52
1.73132	34.52
1.74798	34.52
1.76465	34.52
1.78132	34.52
1.79798	34.52
1.81465	34.52
1.83132	34.52
1.84798	34.52
1.86465	34.52
1.88132	34.52
1.89798	34.52
1.91465	34.52
1.93132	34.52
1.94798	34.52
1.96465	34.52
1.98132	34.52
1.99798	34.52
2.01465	34.52
2.03132	34.52
2.04798	34.52
2.06465	34.52
2.08132	34.52
2.09798	34.52
2.11465	34.52
2.13132	34.51
2.14798	34.52
2.16465	34.52
2.18132	34.51
2.19798	34.51
2.21465	34.52
2.23132	34.53
2.24798	34.52
2.26465	34.52
2.28132	34.51
2.29798	34.52
2.31465	34.52
2.33132	34.52
2.34798	34.52
2.36465	34.53
2.38132	34.52
2.39798	34.52
2.41465	34.51
2.43132	34.51
2.44798	34.52
2.46465	34.52
2.48132	34.51
2.49798	34.52
2.51465	34.51
2.53132	34.52
2.54798	34.51
2.56465	34.52
2.58132	34.52
2.59798	34.52
2.61465	34.52
2.63132	34.52
2.64798	34.52
2.66465	34.51
2.68132	34.52
2.69798	34.52
2.71465	34.51
2.73132	34.52
2.74798	34.52
2.76465	34.52
2.78132	34.52
2.79798	34.52
2.81465	34.52
2.83132	34.51
2.84798	34.52
2.86465	34.52
2.88132	34.52
2.89798	34.52
2.91465	34.52
2.93132	34.52
2.94798	34.52
2.96465	34.53
2.98132	34.52
2.99798	34.52
3.01465	34.52
3.03132	34.53
3.04798	34.52
3.06465	34.52
3.08132	34.52
3.09798	34.52
3.11465	34.51
3.13132	34.52
3.14798	34.52
3.16465	34.52
3.18132	34.52
3.19798	34.52
3.21465	34.52
3.23132	34.51
3.24798	34.52
3.26465	34.52
3.28132	34.52
3.29798	34.52
3.31465	34.52
3.33132	34.52
3.34798	34.51
3.36465	34.52
3.38132	34.52
3.39798	34.52
3.41465	34.52
3.43132	34.52
3.44798	34.51
3.46465	34.52
3.48132	34.52
3.49798	34.52
3.51465	34.51
3.53132	34.52
3.54798	34.52
3.56465	34.52
3.58132	34.52
3.59798	34.52
3.61465	34.52
3.63132	34.52
3.64798	34.52
3.66465	34.52
3.68132	34.52
3.69798	34.52
3.71465	34.52
3.73132	34.52
3.74798	34.52
3.76465	34.52
3.78132	34.52
3.79798	34.52
3.81465	34.52
3.83132	34.52
3.84798	34.52
3.86465	34.52
3.88132	34.52
3.89798	34.52
3.91465	34.52
3.93132	34.52
3.94798	34.52
3.96465	34.52
3.98132	34.51
3.99798	34.51

[Status Trace (Column Flow)]
Interval(msec)	1000
# of Points	240
Start Time(min)	0.015
End Time(min)	3.998
Intensity Units	
Intensity Multiplier	1
R.Time (min)	Intensity
0.01465	5.44
0.03132	5.22
0.04798	5.50
0.06465	5.72
0.08132	5.59
0.09798	5.50
0.11465	5.50
0.13132	5.50
0.14798	5.50
0.16465	5.50
0.18132	5.50
0.19798	5.50
0.21465	5.50
0.23132	5.50
0.24798	5.50
0.26465	5.50
0.28132	5.50
0.29798	5.50
0.31465	5.50
0.33132	5.50
0.34798	5.50
0.36465	5.50
0.38132	5.50
0.39798	5.50
0.41465	5.50
0.43132	5.50
0.44798	5.50
0.46465	5.50
0.48132	5.50
0.49798	5.50
0.51465	5.50
0.53132	5.50
0.54798	5.50
0.56465	5.50
0.58132	5.50
0.59798	5.50
0.61465	5.50
0.63132	5.50
0.64798	5.50
0.66465	5.50
0.68132	5.50
0.69798	5.50
0.71465	5.50
0.73132	5.50
0.74798	5.50
0.76465	5.50
0.78132	5.50
0.79798	5.50
0.81465	5.50
0.83132	5.50
0.84798	5.50
0.86465	5.50
0.88132	5.50
0.89798	5.50
0.91465	5.50
0.93132	5.50
0.94798	5.50
0.96465	5.50
0.98132	5.50
0.99798	5.50
1.01465	5.50
1.03132	5.50
1.04798	5.50
1.06465	5.50
1.08132	5.50
1.09798	5.50
1.11465	5.50
1.13132	5.50
1.14798	5.50
1.16465	5.50
1.18132	5.50
1.19798	5.50
1.21465	5.50
1.23132	5.50
1.24798	5.50
1.26465	5.50
1.28132	5.50
1.29798	5.50
1.31465	5.50
1.33132	5.50
1.34798	5.50
1.36465	5.50
1.38132	5.50
1.39798	5.50
1.41465	5.50
1.43132	5.50
1.44798	5.50
1.46465	5.50
1.48132	5.50
1.49798	5.50
1.51465	5.50
1.53132	5.50
1.54798	5.50
1.56465	5.50
1.58132	5.50
1.59798	5.50
1.61465	5.50
1.63132	5.50
1.64798	5.49
1.66465	5.48
1.68132	5.47
1.69798	5.46
1.71465	5.45
1.73132	5.44
1.74798	5.43
1.76465	5.42
1.78132	5.41
1.79798	5.40
1.81465	5.39
1.83132	5.38
1.84798	5.37
1.86465	5.36
1.88132	5.35
1.89798	5.34
1.91465	5.33
1.93132	5.32
1.94798	5.31
1.96465	5.30
1.98132	5.29
1.99798	5.28
2.01465	5.27
2.03132	5.26
2.04798	5.25
2.06465	5.24
2.08132	5.23
2.09798	5.22
2.11465	5.21
2.13132	5.20
2.14798	5.19
2.16465	5.18
2.18132	5.17
2.19798	5.16
2.21465	5.16
2.23132	5.15
2.24798	5.14
2.26465	5.13
2.28132	5.12
2.29798	5.11
2.31465	5.10
2.33132	5.09
2.34798	5.08
2.36465	5.08
2.38132	5.07
2.39798	5.07
2.41465	5.07
2.43132	5.07
2.44798	5.07
2.46465	5.07
2.48132	5.07
2.49798	5.07
2.51465	5.07
2.53132	5.07
2.54798	5.07
2.56465	5.07
2.58132	5.07
2.59798	5.07
2.61465	5.07
2.63132	5.07
2.64798	5.07
2.66465	5.07
2.68132	5.07
2.69798	5.07
2.71465	5.07
2.73132	5.07
2.74798	5.07
2.76465	5.07
2.78132	5.06
2.79798	5.07
2.81465	5.07
2.83132	5.07
2.84798	5.07
2.86465	5.06
2.88132	5.06
2.89798	5.06
2.91465	5.06
2.93132	5.06
2.94798	5.06
2.96465	5.06
2.98132	5.06
2.99798	5.06
3.01465	5.06
3.03132	5.06
3.04798	5.06
3.06465	5.06
3.08132	5.06
3.09798	5.06
3.11465	5.06
3.13132	5.06
3.14798	5.06
3.16465	5.06
3.18132	5.06
3.19798	5.06
3.21465	5.06
3.23132	5.06
3.24798	5.06
3.26465	5.06
3.28132	5.06
3.29798	5.06
3.31465	5.06
3.33132	5.06
3.34798	5.06
3.36465	5.06
3.38132	5.06
3.39798	5.06
3.41465	5.06
3.43132	5.06
3.44798	5.06
3.46465	5.06
3.48132	5.06
3.49798	5.06
3.51465	5.06
3.53132	5.06
3.54798	5.06
3.56465	5.06
3.58132	5.06
3.59798	5.06
3.61465	5.06
3.63132	5.06
3.64798	5.06
3.66465	5.06
3.68132	5.06
3.69798	5.06
3.71465	5.06
3.73132	5.06
3.74798	5.06
3.76465	5.06
3.78132	5.06
3.79798	5.06
3.81465	5.06
3.83132	5.06
3.84798	5.06
3.86465	5.06
3.88132	5.06
3.89798	5.06
3.91465	5.06
3.93132	5.06
3.94798	5.06
3.96465	5.06
3.98132	5.06
3.99798	5.06

[Status Trace (Linear Velocity)]
Interval(msec)	1000
# of Points	240
Start Time(min)	0.015
End Time(min)	3.998
Intensity Units	
Intensity Multiplier	1
R.Time (min)	Intensity
0.01465	38.67
0.03132	37.38
0.04798	39.00
0.06465	40.20
0.08132	39.49
0.09798	39.00
0.11465	39.00
0.13132	39.02
0.14798	39.01
0.16465	39.01
0.18132	39.01
0.19798	39.01
0.21465	39.01
0.23132	39.01
0.24798	39.01
0.26465	39.01
0.28132	39.01
0.29798	39.01
0.31465	39.01
0.33132	39.01
0.34798	39.01
0.36465	39.01
0.38132	39.01
0.39798	39.01
0.41465	39.01
0.43132	39.01
0.44798	39.01
0.46465	39.01
0.48132	39.01
0.49798	39.01
0.51465	39.01
0.53132	39.01
0.54798	39.01
0.56465	39.01
0.58132	39.01
0.59798	39.01
0.61465	39.01
0.63132	39.01
0.64798	39.01
0.66465	39.01
0.68132	39.01
0.69798	39.01
0.71465	39.01
0.73132	39.01
0.74798	39.01
0.76465	39.01
0.78132	39.01
0.79798	39.01
0.81465	39.01
0.83132	39.01
0.84798	39.01
0.86465	39.01
0.88132	39.01
0.89798	39.01
0.91465	39.01
0.93132	39.01
0.94798	39.01
0.96465	39.01
0.98132	39.01
0.99798	39.01
1.01465	39.01
1.03132	39.01
1.04798	39.01
1.06465	39.01
1.08132	39.01
1.09798	39.01
1.11465	39.01
1.13132	39.01
1.14798	39.01
1.16465	39.01
1.18132	39.01
1.19798	39.01
1.21465	39.01
1.23132	39.01
1.24798	39.01
1.26465	39.01
1.28132	39.01
1.29798	39.01
1.31465	39.01
1.33132	39.01
1.34798	39.01
1.36465	39.01
1.38132	39.01
1.39798	39.01
1.41465	39.01
1.43132	39.01
1.44798	39.01
1.46465	39.01
1.48132	39.01
1.49798	39.01
1.51465	39.01
1.53132	39.01
1.54798	39.01
1.56465	39.01
1.58132	39.01
1.59798	39.01
1.61465	39.00
1.63132	38.99
1.64798	38.97
1.66465	38.95
1.68132	38.91
1.69798	38.87
1.71465	38.84
1.73132	38.81
1.74798	38.78
1.76465	38.75
1.78132	38.71
1.79798	38.68
1.81465	38.65
1.83132	38.62
1.84798	38.59
1.86465	38.56
1.88132	38.53
1.89798	38.50
1.91465	38.47
1.93132	38.43
1.94798	38.40
1.96465	38.37
1.98132	38.34
1.99798	38.31
2.01465	38.28
2.03132	38.25
2.04798	38.22
2.06465	38.19
2.08132	38.16
2.09798	38.13
2.11465	38.10
2.13132	38.07
2.14798	38.04
2.16465	38.01
2.18132	37.98
2.19798	37.96
2.21465	37.93
2.23132	37.90
2.24798	37.87
2.26465	37.84
2.28132	37.81
2.29798	37.78
2.31465	37.75
2.33132	37.72
2.34798	37.69
2.36465	37.67
2.38132	37.66
2.39798	37.65
2.41465	37.65
2.43132	37.66
2.44798	37.65
2.46465	37.65
2.48132	37.65
2.49798	37.65
2.51465	37.64
2.53132	37.64
2.54798	37.65
2.56465	37.65
2.58132	37.65
2.59798	37.65
2.61465	37.64
2.63132	37.64
2.64798	37.64
2.66465	37.64
2.68132	37.64
2.69798	37.64
2.71465	37.64
2.73132	37.64
2.74798	37.64
2.76465	37.64
2.78132	37.64
2.79798	37.64
2.81465	37.64
2.83132	37.64
2.84798	37.64
2.86465	37.64
2.88132	37.64
2.89798	37.64
2.91465	37.63
2.93132	37.63
2.94798	37.63
2.96465	37.63
2.98132	37.63
2.99798	37.63
3.01465	37.63
3.03132	37.63
3.04798	37.63
3.06465	37.63
3.08132	37.63
3.09798	37.63
3.11465	37.63
3.13132	37.63
3.14798	37.63
3.16465	37.62
3.18132	37.62
3.19798	37.62
3.21465	37.62
3.23132	37.62
3.24798	37.62
3.26465	37.62
3.28132	37.62
3.29798	37.62
3.31465	37.62
3.33132	37.62
3.34798	37.62
3.36465	37.62
3.38132	37.62
3.39798	37.62
3.41465	37.62
3.43132	37.62
3.44798	37.62
3.46465	37.62
3.48132	37.62
3.49798	37.62
3.51465	37.62
3.53132	37.62
3.54798	37.62
3.56465	37.62
3.58132	37.63
3.59798	37.62
3.61465	37.62
3.63132	37.62
3.64798	37.62
3.66465	37.62
3.68132	37.62
3.69798	37.62
3.71465	37.62
3.73132	37.62
3.74798	37.62
3.76465	37.62
3.78132	37.62
3.79798	37.62
3.81465	37.62
3.83132	37.62
3.84798	37.62
3.86465	37.62
3.88132	37.62
3.89798	37.62
3.91465	37.62
3.93132	37.62
3.94798	37.62
3.96465	37.62
3.98132	37.62
3.99798	37.62

