[Header]
Application Name	LabSolutions
Version	5.110
Data File Name	C:\Users\User\Desktop\Junior\UIC Prairie Sampling\7.18.23\071823_080.gcd
Output Date	8/29/2023
Output Time	10:40:25 AM

[File Information]
Type	Data File
Generated	8/28/2023 11:07:23 PM
Generated by	System Administrator
Modified	8/28/2023 11:14:01 PM
Modified by	System Administrator

[Sample Information]
Operator Name	System Administrator
Acquired	8/28/2023 11:09:59 PM
Sample Type	0:Unknown
Level	0
Sample Name	080
Sample ID	080
ISTD Amount1	1
ISTD Amount2	1
ISTD Amount3	1
ISTD Amount4	1
ISTD Amount5	1
ISTD Amount6	1
ISTD Amount7	1
ISTD Amount8	1
ISTD Amount9	1
ISTD Amount10	1
ISTD Amount11	1
ISTD Amount12	1
ISTD Amount13	1
ISTD Amount14	1
ISTD Amount15	1
ISTD Amount16	1
ISTD Amount17	1
ISTD Amount18	1
ISTD Amount19	1
ISTD Amount20	1
ISTD Amount21	1
ISTD Amount22	1
ISTD Amount23	1
ISTD Amount24	1
ISTD Amount25	1
ISTD Amount26	1
ISTD Amount27	1
ISTD Amount28	1
ISTD Amount29	1
ISTD Amount30	1
ISTD Amount31	1
ISTD Amount32	1
Sample Amount	1
Dilution Factor	1
Vial#	79
Injection Volume	1
Injection Count	1
Bar Code	

[Original Files]
Data File	C:\Users\User\Desktop\Junior\UIC Prairie Sampling\7.18.23\071823_080.gcd
Method File	C:\LabSolutions\Data\GHG_4min_2022\ghg3_togas_w_acet_4 min_new_int.gcm
Batch File	C:\LabSolutions\Data\BATCH FILES\071823.gcb
Report Format File	c:\LabSolutions\System\DEFAULT.lsr

[File Description]


[Configuration]
Instrument Name	C0B7VH3-Instrument1
Instrument #	1
Line #	1
# of Detectors	3
Detector ID	DET#1	DET#2	DET#3
Detector Name	FID	PTCD	ECD
# of Channels	1	1	1

[Peak Table(Ch1)]
# of Peaks	4
Peak#	R.Time	I.Time	F.Time	Area	Height	A/H	Conc.	Mark	ID#	Name	k'	Plate #	Plate Ht.	Tailing	Resolution	Sep.Factor	Area Ratio	Height Ratio	Conc. %	Norm Conc.
1	0.328	0.218	0.442	1190	181	6.594	0.000	   			0.000	52	2905.528	1.016	0.000	0.000	0	0	0.000	0.000
2	1.472	1.439	1.531	10848	5425	1.999	0.000	   	1	CO	3.488	9976	15.036	1.293	9.472	0.000	0	0	0.000	0.000
3	1.564	1.531	1.622	4460	2247	1.985	21.745	 V 	2	CH4	3.767	11341	13.227	1.156	1.558	1.080	0	0	3.756	3.756
4	1.989	1.941	2.521	2890801	1388616	2.082	557.110	   	3	CO2	5.064	17370	8.636	1.296	7.142	1.344	0	0	96.244	96.244

[Peak Table(Ch2)]
# of Peaks	0

[Peak Table(Ch3)]
# of Peaks	5
Peak#	R.Time	I.Time	F.Time	Area	Height	A/H	Conc.	Mark	ID#	Name	k'	Plate #	Plate Ht.	Tailing	Resolution	Sep.Factor	Area Ratio	Height Ratio	Conc. %	Norm Conc.
1	2.458	2.337	2.565	898	266	3.382	0.000	   			0.000	15605	9.612	1.262	0.000	0.000	0	0	0.000	0.000
2	2.620	2.565	2.686	277	79	3.511	0.000	 V 			0.066	11271	13.308	0.000	1.819	0.000	0	0	0.000	0.000
3	2.891	2.711	3.016	16455	4114	4.000	0.243	   	1	N2O	0.176	13062	11.484	1.718	2.715	2.682	0	0	100.000	100.000
4	3.085	3.019	3.346	15050	972	15.478	0.000	   	2	SF6	0.255	203	737.850	0.000	0.402	1.449	0	0	0.000	0.000
5	3.423	3.346	3.995	12030	679	17.722	0.000	 V 			0.392	208	721.771	0.000	0.372	1.538	0	0	0.000	0.000

[Compound Results(Ch1)]
# of IDs	6
ID#	Name	R.Time	Area	Height	Conc.	Curve	3rd	2nd	1st	Constant	Area Ratio	Height Ratio	Conc. %	Norm Conc.
1	CO	1.472	10848	5425	0.000	Linear	0.000000e+00	0.000000e+00	0.000000e+00	0.000000e+00	0	0	0.000	0.000
2	CH4	1.564	4460	2247	21.745	Linear	0.000000e+00	0.000000e+00	2.051179e+002	0.000000e+00	0	0	3.756	3.756
3	CO2	1.989	2890801	1388616	557.110	Linear	0.000000e+00	0.000000e+00	5.188919e+003	0.000000e+00	0	0	96.244	96.244
4	Ethylene	0.000	0	0	0.000	Linear	0.000000e+00	0.000000e+00	0.000000e+00	0.000000e+00	0	0	0.000	0.000
5	Acetylene	0.000	0	0	0.000	Linear	0.000000e+00	0.000000e+00	0.000000e+00	0.000000e+00	0	0	0.000	0.000
6	Ethane	0.000	0	0	0.000	Linear	0.000000e+00	0.000000e+00	0.000000e+00	0.000000e+00	0	0	0.000	0.000

[Compound Results(Ch2)]
# of IDs	5
ID#	Name	R.Time	Area	Height	Conc.	Curve	3rd	2nd	1st	Constant	Area Ratio	Height Ratio	Conc. %	Norm Conc.
1	Hydrogen	0.000	0	0	0.000	Linear	0.000000e+00	0.000000e+00	0.000000e+00	0.000000e+00	0	0	0.000	0.000
2	Oxygen	0.000	0	0	0.000	Linear	0.000000e+00	0.000000e+00	0.000000e+00	0.000000e+00	0	0	0.000	0.000
3	Nitrogen	0.000	0	0	0.000	Linear	0.000000e+00	0.000000e+00	0.000000e+00	0.000000e+00	0	0	0.000	0.000
4	Methane	0.000	0	0	0.000	Linear	0.000000e+00	0.000000e+00	0.000000e+00	0.000000e+00	0	0	0.000	0.000
5	Carbon Monoxide	0.000	0	0	0.000	Linear	0.000000e+00	0.000000e+00	0.000000e+00	0.000000e+00	0	0	0.000	0.000

[Compound Results(Ch3)]
# of IDs	2
ID#	Name	R.Time	Area	Height	Conc.	Curve	3rd	2nd	1st	Constant	Area Ratio	Height Ratio	Conc. %	Norm Conc.
1	N2O	2.891	16455	4114	0.243	Linear	0.000000e+00	0.000000e+00	6.759880e+004	0.000000e+00	0	0	100.000	100.000
2	SF6	3.085	15050	972	0.000	Linear	0.000000e+00	0.000000e+00	0.000000e+00	0.000000e+00	0	0	0.000	0.000

[Group Results(Ch1)]
# of Groups	0

[Group Results(Ch2)]
# of Groups	0

[Group Results(Ch3)]
# of Groups	0

[Chromatogram (Ch1)]
Interval(msec)	220
# of Points	1091
Start Time(min)	0.002
End Time(min)	3.998
R.Time (min)	Intensity
0.00167	-12
0.00533	-13
0.00900	-13
0.01267	-12
0.01633	-11
0.02000	-10
0.02367	-10
0.02733	-11
0.03100	-13
0.03467	-17
0.03833	-20
0.04200	-18
0.04567	-13
0.04933	-9
0.05300	-10
0.05667	-15
0.06033	-21
0.06400	-24
0.06767	-28
0.07133	-31
0.07500	-32
0.07867	-29
0.08233	-26
0.08600	-24
0.08967	-22
0.09333	-18
0.09700	-16
0.10067	-16
0.10433	-20
0.10800	-21
0.11167	-16
0.11533	-12
0.11900	-13
0.12267	-18
0.12633	-21
0.13000	-24
0.13367	-24
0.13733	-21
0.14100	-15
0.14467	-11
0.14833	-9
0.15200	-12
0.15567	-15
0.15933	-18
0.16300	-22
0.16667	-28
0.17033	-32
0.17400	-32
0.17767	-28
0.18133	-24
0.18500	-22
0.18867	-18
0.19233	-13
0.19600	-10
0.19967	-9
0.20333	-9
0.20700	-9
0.21067	-9
0.21433	-8
0.21800	-3
0.22167	4
0.22533	11
0.22900	20
0.23267	31
0.23633	41
0.24000	49
0.24367	54
0.24733	55
0.25100	51
0.25467	47
0.25833	46
0.26200	49
0.26567	58
0.26933	72
0.27300	88
0.27667	101
0.28033	112
0.28400	121
0.28767	125
0.29133	125
0.29500	125
0.29867	128
0.30233	132
0.30600	137
0.30967	146
0.31333	156
0.31700	166
0.32067	176
0.32433	183
0.32800	186
0.33167	185
0.33533	183
0.33900	180
0.34267	176
0.34633	172
0.35000	164
0.35367	152
0.35733	142
0.36100	134
0.36467	127
0.36833	122
0.37200	117
0.37567	111
0.37933	102
0.38300	94
0.38667	87
0.39033	82
0.39400	76
0.39767	69
0.40133	61
0.40500	56
0.40867	55
0.41233	54
0.41600	49
0.41967	44
0.42333	39
0.42700	35
0.43067	31
0.43433	26
0.43800	21
0.44167	14
0.44533	7
0.44900	-0
0.45267	-6
0.45633	-9
0.46000	-8
0.46367	-6
0.46733	-5
0.47100	-4
0.47467	-4
0.47833	-2
0.48200	1
0.48567	4
0.48933	5
0.49300	4
0.49667	2
0.50033	-1
0.50400	-4
0.50767	-11
0.51133	-23
0.51500	-33
0.51867	-36
0.52233	-34
0.52600	-30
0.52967	-27
0.53333	-24
0.53700	-21
0.54067	-18
0.54433	-14
0.54800	-11
0.55167	-8
0.55533	-6
0.55900	-7
0.56267	-10
0.56633	-12
0.57000	-13
0.57367	-12
0.57733	-12
0.58100	-11
0.58467	-14
0.58833	-19
0.59200	-23
0.59567	-24
0.59933	-22
0.60300	-19
0.60667	-17
0.61033	-15
0.61400	-11
0.61767	-7
0.62133	-6
0.62500	-9
0.62867	-9
0.63233	-7
0.63600	-5
0.63967	-1
0.64333	4
0.64700	7
0.65067	9
0.65433	13
0.65800	18
0.66167	20
0.66533	19
0.66900	12
0.67267	9
0.67633	11
0.68000	14
0.68367	15
0.68733	10
0.69100	3
0.69467	-5
0.69833	-14
0.70200	-22
0.70567	-29
0.70933	-34
0.71300	-34
0.71667	-32
0.72033	-28
0.72400	-23
0.72767	-19
0.73133	-16
0.73500	-17
0.73867	-17
0.74233	-18
0.74600	-19
0.74967	-20
0.75333	-19
0.75700	-19
0.76067	-21
0.76433	-20
0.76800	-18
0.77167	-17
0.77533	-19
0.77900	-22
0.78267	-24
0.78633	-26
0.79000	-26
0.79367	-21
0.79733	-14
0.80100	-9
0.80467	-7
0.80833	-6
0.81200	-5
0.81567	-5
0.81933	-5
0.82300	-6
0.82667	-8
0.83033	-9
0.83400	-9
0.83767	-9
0.84133	-10
0.84500	-10
0.84867	-7
0.85233	-2
0.85600	1
0.85967	2
0.86333	2
0.86700	-0
0.87067	0
0.87433	3
0.87800	5
0.88167	6
0.88533	4
0.88900	1
0.89267	1
0.89633	3
0.90000	6
0.90367	9
0.90733	11
0.91100	8
0.91467	-1
0.91833	-11
0.92200	-19
0.92567	-24
0.92933	-30
0.93300	-35
0.93667	-32
0.94033	-25
0.94400	-17
0.94767	-9
0.95133	-2
0.95500	2
0.95867	7
0.96233	11
0.96600	13
0.96967	12
0.97333	11
0.97700	9
0.98067	6
0.98433	3
0.98800	1
0.99167	0
0.99533	1
0.99900	3
1.00267	4
1.00633	5
1.01000	8
1.01367	7
1.01733	3
1.02100	-1
1.02467	-6
1.02833	-12
1.03200	-17
1.03567	-20
1.03933	-23
1.04300	-25
1.04667	-29
1.05033	-31
1.05400	-28
1.05767	-26
1.06133	-25
1.06500	-23
1.06867	-24
1.07233	-25
1.07600	-24
1.07967	-22
1.08333	-20
1.08700	-19
1.09067	-16
1.09433	-9
1.09800	-3
1.10167	0
1.10533	2
1.10900	2
1.11267	1
1.11633	-2
1.12000	-5
1.12367	-8
1.12733	-12
1.13100	-18
1.13467	-25
1.13833	-31
1.14200	-34
1.14567	-34
1.14933	-32
1.15300	-32
1.15667	-32
1.16033	-33
1.16400	-35
1.16767	-35
1.17133	-32
1.17500	-29
1.17867	-26
1.18233	-23
1.18600	-22
1.18967	-21
1.19333	-21
1.19700	-24
1.20067	-26
1.20433	-26
1.20800	-25
1.21167	-26
1.21533	-26
1.21900	-23
1.22267	-20
1.22633	-18
1.23000	-17
1.23367	-15
1.23733	-13
1.24100	-14
1.24467	-16
1.24833	-16
1.25200	-15
1.25567	-15
1.25933	-18
1.26300	-24
1.26667	-29
1.27033	-28
1.27400	-24
1.27767	-20
1.28133	-19
1.28500	-21
1.28867	-27
1.29233	-35
1.29600	-39
1.29967	-39
1.30333	-38
1.30700	-35
1.31067	-29
1.31433	-25
1.31800	-24
1.32167	-25
1.32533	-24
1.32900	-25
1.33267	-26
1.33633	-27
1.34000	-27
1.34367	-26
1.34733	-25
1.35100	-25
1.35467	-25
1.35833	-22
1.36200	-21
1.36567	-24
1.36933	-34
1.37300	-42
1.37667	-46
1.38033	-46
1.38400	-44
1.38767	-39
1.39133	-34
1.39500	-30
1.39867	-28
1.40233	-26
1.40600	-24
1.40967	-24
1.41333	-25
1.41700	-25
1.42067	-25
1.42433	-26
1.42800	-31
1.43167	-36
1.43533	-33
1.43900	-22
1.44267	15
1.44633	218
1.45000	806
1.45367	1777
1.45733	2892
1.46100	3914
1.46467	4715
1.46833	5233
1.47200	5399
1.47567	5169
1.47933	4587
1.48300	3790
1.48667	2948
1.49033	2186
1.49400	1569
1.49767	1102
1.50133	766
1.50500	528
1.50867	359
1.51233	243
1.51600	163
1.51967	109
1.52333	73
1.52700	48
1.53067	39
1.53433	65
1.53800	177
1.54167	432
1.54533	818
1.54900	1254
1.55267	1652
1.55633	1963
1.56000	2159
1.56367	2210
1.56733	2092
1.57100	1822
1.57467	1465
1.57833	1101
1.58200	783
1.58567	532
1.58933	349
1.59300	223
1.59667	138
1.60033	83
1.60400	45
1.60767	16
1.61133	-8
1.61500	-25
1.61867	-36
1.62233	-44
1.62600	-49
1.62967	-49
1.63333	-49
1.63700	-49
1.64067	-47
1.64433	-43
1.64800	-34
1.65167	-26
1.65533	-22
1.65900	-20
1.66267	-18
1.66633	-15
1.67000	-10
1.67367	-8
1.67733	-10
1.68100	-14
1.68467	-19
1.68833	-24
1.69200	-28
1.69567	-31
1.69933	-35
1.70300	-36
1.70667	-34
1.71033	-30
1.71400	-29
1.71767	-32
1.72133	-39
1.72500	-46
1.72867	-51
1.73233	-55
1.73600	-53
1.73967	-46
1.74333	-41
1.74700	-40
1.75067	-41
1.75433	-44
1.75800	-48
1.76167	-49
1.76533	-47
1.76900	-48
1.77267	-51
1.77633	-52
1.78000	-52
1.78367	-51
1.78733	-49
1.79100	-46
1.79467	-42
1.79833	-39
1.80200	-38
1.80567	-38
1.80933	-39
1.81300	-40
1.81667	-42
1.82033	-46
1.82400	-50
1.82767	-56
1.83133	-59
1.83500	-61
1.83867	-63
1.84233	-63
1.84600	-61
1.84967	-58
1.85333	-57
1.85700	-60
1.86067	-60
1.86433	-60
1.86800	-60
1.87167	-58
1.87533	-56
1.87900	-50
1.88267	-44
1.88633	-41
1.89000	-40
1.89367	-43
1.89733	-48
1.90100	-50
1.90467	-50
1.90833	-51
1.91200	-54
1.91567	-57
1.91933	-56
1.92300	-50
1.92667	-45
1.93033	-41
1.93400	-42
1.93767	-45
1.94133	-47
1.94500	-29
1.94867	133
1.95233	1189
1.95600	6459
1.95967	26118
1.96333	81774
1.96700	201840
1.97067	400751
1.97433	659589
1.97800	931739
1.98167	1166319
1.98533	1325554
1.98900	1388614
1.99267	1351709
1.99633	1228689
2.00000	1047473
2.00367	842321
2.00733	644212
2.01100	473430
2.01467	338039
2.01833	237070
2.02200	164961
2.02567	114958
2.02933	80921
2.03300	57977
2.03667	42548
2.04033	32130
2.04400	25024
2.04767	20097
2.05133	16612
2.05500	14083
2.05867	12198
2.06233	10757
2.06600	9628
2.06967	8720
2.07333	7974
2.07700	7351
2.08067	6819
2.08433	6354
2.08800	5946
2.09167	5586
2.09533	5267
2.09900	4985
2.10267	4734
2.10633	4513
2.11000	4312
2.11367	4124
2.11733	3946
2.12100	3780
2.12467	3628
2.12833	3486
2.13200	3351
2.13567	3223
2.13933	3102
2.14300	2985
2.14667	2875
2.15033	2781
2.15400	2698
2.15767	2619
2.16133	2544
2.16500	2472
2.16867	2401
2.17233	2331
2.17600	2263
2.17967	2200
2.18333	2140
2.18700	2080
2.19067	2021
2.19433	1967
2.19800	1917
2.20167	1869
2.20533	1825
2.20900	1782
2.21267	1738
2.21633	1695
2.22000	1655
2.22367	1619
2.22733	1581
2.23100	1540
2.23467	1502
2.23833	1466
2.24200	1429
2.24567	1398
2.24933	1372
2.25300	1347
2.25667	1321
2.26033	1293
2.26400	1266
2.26767	1240
2.27133	1213
2.27500	1190
2.27867	1169
2.28233	1151
2.28600	1133
2.28967	1117
2.29333	1102
2.29700	1083
2.30067	1065
2.30433	1049
2.30800	1032
2.31167	1012
2.31533	993
2.31900	974
2.32267	957
2.32633	943
2.33000	928
2.33367	912
2.33733	896
2.34100	881
2.34467	868
2.34833	856
2.35200	845
2.35567	834
2.35933	823
2.36300	810
2.36667	799
2.37033	788
2.37400	778
2.37767	764
2.38133	749
2.38500	735
2.38867	723
2.39233	714
2.39600	706
2.39967	695
2.40333	685
2.40700	677
2.41067	673
2.41433	671
2.41800	666
2.42167	660
2.42533	653
2.42900	645
2.43267	637
2.43633	632
2.44000	626
2.44367	618
2.44733	608
2.45100	599
2.45467	591
2.45833	582
2.46200	572
2.46567	559
2.46933	543
2.47300	529
2.47667	518
2.48033	511
2.48400	512
2.48767	516
2.49133	517
2.49500	513
2.49867	510
2.50233	507
2.50600	505
2.50967	504
2.51333	503
2.51700	500
2.52067	495
2.52433	487
2.52800	478
2.53167	467
2.53533	458
2.53900	454
2.54267	452
2.54633	450
2.55000	446
2.55367	437
2.55733	429
2.56100	423
2.56467	419
2.56833	412
2.57200	404
2.57567	397
2.57933	392
2.58300	387
2.58667	381
2.59033	376
2.59400	375
2.59767	376
2.60133	375
2.60500	372
2.60867	368
2.61233	363
2.61600	358
2.61967	356
2.62333	356
2.62700	354
2.63067	350
2.63433	344
2.63800	338
2.64167	332
2.64533	326
2.64900	322
2.65267	321
2.65633	324
2.66000	325
2.66367	322
2.66733	319
2.67100	318
2.67467	319
2.67833	318
2.68200	315
2.68567	310
2.68933	306
2.69300	303
2.69667	299
2.70033	295
2.70400	288
2.70767	283
2.71133	280
2.71500	279
2.71867	280
2.72233	281
2.72600	281
2.72967	276
2.73333	270
2.73700	266
2.74067	267
2.74433	269
2.74800	268
2.75167	267
2.75533	267
2.75900	268
2.76267	267
2.76633	265
2.77000	265
2.77367	266
2.77733	264
2.78100	261
2.78467	257
2.78833	253
2.79200	251
2.79567	246
2.79933	239
2.80300	233
2.80667	228
2.81033	226
2.81400	227
2.81767	231
2.82133	231
2.82500	224
2.82867	212
2.83233	201
2.83600	195
2.83967	195
2.84333	199
2.84700	202
2.85067	202
2.85433	203
2.85800	205
2.86167	208
2.86533	208
2.86900	207
2.87267	207
2.87633	204
2.88000	199
2.88367	196
2.88733	192
2.89100	189
2.89467	189
2.89833	190
2.90200	189
2.90567	186
2.90933	181
2.91300	176
2.91667	171
2.92033	168
2.92400	167
2.92767	170
2.93133	171
2.93500	171
2.93867	171
2.94233	169
2.94600	164
2.94967	160
2.95333	158
2.95700	160
2.96067	162
2.96433	162
2.96800	159
2.97167	157
2.97533	155
2.97900	155
2.98267	156
2.98633	158
2.99000	161
2.99367	163
2.99733	163
3.00100	162
3.00467	159
3.00833	156
3.01200	153
3.01567	155
3.01933	158
3.02300	161
3.02667	162
3.03033	161
3.03400	158
3.03767	155
3.04133	150
3.04500	148
3.04867	147
3.05233	147
3.05600	143
3.05967	138
3.06333	132
3.06700	127
3.07067	124
3.07433	122
3.07800	121
3.08167	122
3.08533	124
3.08900	124
3.09267	122
3.09633	120
3.10000	119
3.10367	119
3.10733	120
3.11100	121
3.11467	118
3.11833	115
3.12200	113
3.12567	113
3.12933	111
3.13300	108
3.13667	105
3.14033	102
3.14400	100
3.14767	101
3.15133	102
3.15500	104
3.15867	110
3.16233	114
3.16600	113
3.16967	107
3.17333	100
3.17700	96
3.18067	95
3.18433	96
3.18800	97
3.19167	96
3.19533	91
3.19900	87
3.20267	86
3.20633	84
3.21000	81
3.21367	79
3.21733	80
3.22100	83
3.22467	86
3.22833	87
3.23200	87
3.23567	86
3.23933	83
3.24300	80
3.24667	75
3.25033	68
3.25400	62
3.25767	59
3.26133	58
3.26500	58
3.26867	59
3.27233	60
3.27600	61
3.27967	65
3.28333	70
3.28700	76
3.29067	79
3.29433	78
3.29800	77
3.30167	75
3.30533	72
3.30900	70
3.31267	70
3.31633	71
3.32000	71
3.32367	72
3.32733	73
3.33100	69
3.33467	65
3.33833	61
3.34200	57
3.34567	51
3.34933	45
3.35300	42
3.35667	42
3.36033	40
3.36400	40
3.36767	41
3.37133	42
3.37500	39
3.37867	37
3.38233	38
3.38600	42
3.38967	48
3.39333	53
3.39700	55
3.40067	54
3.40433	53
3.40800	53
3.41167	52
3.41533	52
3.41900	53
3.42267	50
3.42633	47
3.43000	46
3.43367	42
3.43733	36
3.44100	31
3.44467	30
3.44833	34
3.45200	40
3.45567	44
3.45933	43
3.46300	40
3.46667	39
3.47033	36
3.47400	31
3.47767	26
3.48133	21
3.48500	18
3.48867	17
3.49233	17
3.49600	19
3.49967	23
3.50333	28
3.50700	32
3.51067	32
3.51433	30
3.51800	28
3.52167	22
3.52533	15
3.52900	11
3.53267	12
3.53633	14
3.54000	16
3.54367	15
3.54733	15
3.55100	18
3.55467	20
3.55833	21
3.56200	24
3.56567	26
3.56933	28
3.57300	28
3.57667	26
3.58033	20
3.58400	15
3.58767	13
3.59133	13
3.59500	14
3.59867	13
3.60233	10
3.60600	9
3.60967	9
3.61333	9
3.61700	9
3.62067	10
3.62433	11
3.62800	14
3.63167	19
3.63533	23
3.63900	24
3.64267	21
3.64633	19
3.65000	18
3.65367	16
3.65733	13
3.66100	12
3.66467	13
3.66833	14
3.67200	13
3.67567	9
3.67933	2
3.68300	-4
3.68667	-8
3.69033	-11
3.69400	-10
3.69767	-4
3.70133	2
3.70500	4
3.70867	4
3.71233	4
3.71600	5
3.71967	8
3.72333	13
3.72700	17
3.73067	18
3.73433	17
3.73800	15
3.74167	13
3.74533	8
3.74900	5
3.75267	5
3.75633	9
3.76000	11
3.76367	11
3.76733	9
3.77100	7
3.77467	4
3.77833	2
3.78200	-1
3.78567	-4
3.78933	-6
3.79300	-10
3.79667	-14
3.80033	-16
3.80400	-14
3.80767	-9
3.81133	-9
3.81500	-14
3.81867	-17
3.82233	-18
3.82600	-14
3.82967	-11
3.83333	-9
3.83700	-7
3.84067	-5
3.84433	-3
3.84800	-1
3.85167	-2
3.85533	-6
3.85900	-9
3.86267	-16
3.86633	-22
3.87000	-27
3.87367	-28
3.87733	-24
3.88100	-22
3.88467	-25
3.88833	-28
3.89200	-27
3.89567	-24
3.89933	-20
3.90300	-18
3.90667	-19
3.91033	-19
3.91400	-19
3.91767	-23
3.92133	-26
3.92500	-28
3.92867	-27
3.93233	-24
3.93600	-24
3.93967	-25
3.94333	-25
3.94700	-24
3.95067	-23
3.95433	-23
3.95800	-25
3.96167	-26
3.96533	-27
3.96900	-26
3.97267	-25
3.97633	-25
3.98000	-26
3.98367	-31
3.98733	-35
3.99100	-35
3.99467	-34
3.99833	-34

[Chromatogram (Ch2)]
Interval(msec)	220
# of Points	1091
Start Time(min)	0.002
End Time(min)	3.998
R.Time (min)	Intensity
0.00167	-0
0.00533	-0
0.00900	-0
0.01267	-0
0.01633	-0
0.02000	-1
0.02367	-1
0.02733	-1
0.03100	-1
0.03467	-1
0.03833	-1
0.04200	-1
0.04567	-1
0.04933	-1
0.05300	-1
0.05667	-2
0.06033	-2
0.06400	-2
0.06767	-2
0.07133	-2
0.07500	-2
0.07867	-1
0.08233	-1
0.08600	-1
0.08967	-1
0.09333	-0
0.09700	-0
0.10067	-0
0.10433	-0
0.10800	0
0.11167	0
0.11533	0
0.11900	1
0.12267	1
0.12633	1
0.13000	1
0.13367	1
0.13733	1
0.14100	1
0.14467	1
0.14833	0
0.15200	0
0.15567	0
0.15933	-0
0.16300	0
0.16667	0
0.17033	0
0.17400	0
0.17767	1
0.18133	1
0.18500	1
0.18867	1
0.19233	0
0.19600	0
0.19967	0
0.20333	-0
0.20700	-0
0.21067	-0
0.21433	-0
0.21800	-0
0.22167	-0
0.22533	-0
0.22900	-0
0.23267	-0
0.23633	-0
0.24000	-1
0.24367	-1
0.24733	-1
0.25100	-1
0.25467	-0
0.25833	-0
0.26200	-1
0.26567	-1
0.26933	-1
0.27300	-1
0.27667	-1
0.28033	-1
0.28400	-1
0.28767	-1
0.29133	-1
0.29500	-1
0.29867	-1
0.30233	-1
0.30600	-1
0.30967	-1
0.31333	-1
0.31700	-1
0.32067	-2
0.32433	-2
0.32800	-2
0.33167	-2
0.33533	-2
0.33900	-2
0.34267	-2
0.34633	-2
0.35000	-2
0.35367	-2
0.35733	-2
0.36100	-2
0.36467	-3
0.36833	-3
0.37200	-3
0.37567	-2
0.37933	-2
0.38300	-2
0.38667	-1
0.39033	-1
0.39400	-1
0.39767	-1
0.40133	-1
0.40500	-1
0.40867	-1
0.41233	-1
0.41600	-1
0.41967	-1
0.42333	-1
0.42700	-1
0.43067	-1
0.43433	-1
0.43800	-1
0.44167	-1
0.44533	-1
0.44900	-1
0.45267	-1
0.45633	-1
0.46000	-2
0.46367	-2
0.46733	-2
0.47100	-2
0.47467	-2
0.47833	-2
0.48200	-2
0.48567	-2
0.48933	-2
0.49300	-2
0.49667	-2
0.50033	-2
0.50400	-2
0.50767	-2
0.51133	-2
0.51500	-2
0.51867	-2
0.52233	-2
0.52600	-2
0.52967	-2
0.53333	-2
0.53700	-2
0.54067	-2
0.54433	-1
0.54800	-1
0.55167	-1
0.55533	-1
0.55900	-1
0.56267	-1
0.56633	-1
0.57000	-1
0.57367	-2
0.57733	-2
0.58100	-2
0.58467	-2
0.58833	-2
0.59200	-1
0.59567	-1
0.59933	-1
0.60300	-1
0.60667	-1
0.61033	-1
0.61400	-1
0.61767	-1
0.62133	-2
0.62500	-2
0.62867	-2
0.63233	-2
0.63600	-2
0.63967	-1
0.64333	-1
0.64700	-1
0.65067	-1
0.65433	-1
0.65800	-1
0.66167	-1
0.66533	-1
0.66900	-1
0.67267	-2
0.67633	-2
0.68000	-1
0.68367	-1
0.68733	-1
0.69100	-1
0.69467	-0
0.69833	-0
0.70200	-0
0.70567	-1
0.70933	-1
0.71300	-2
0.71667	-2
0.72033	-2
0.72400	-2
0.72767	-2
0.73133	-3
0.73500	-3
0.73867	-3
0.74233	-2
0.74600	-2
0.74967	-2
0.75333	-2
0.75700	-2
0.76067	-2
0.76433	-2
0.76800	-2
0.77167	-2
0.77533	-2
0.77900	-1
0.78267	-1
0.78633	-2
0.79000	-2
0.79367	-2
0.79733	-2
0.80100	-1
0.80467	-1
0.80833	-1
0.81200	-1
0.81567	-1
0.81933	-1
0.82300	-2
0.82667	-2
0.83033	-2
0.83400	-2
0.83767	-2
0.84133	-2
0.84500	-2
0.84867	-2
0.85233	-2
0.85600	-2
0.85967	-2
0.86333	-2
0.86700	-2
0.87067	-2
0.87433	-2
0.87800	-2
0.88167	-2
0.88533	-2
0.88900	-3
0.89267	-3
0.89633	-3
0.90000	-3
0.90367	-3
0.90733	-2
0.91100	-2
0.91467	-2
0.91833	-2
0.92200	-2
0.92567	-2
0.92933	-2
0.93300	-3
0.93667	-3
0.94033	-3
0.94400	-3
0.94767	-3
0.95133	-2
0.95500	-2
0.95867	-2
0.96233	-2
0.96600	-2
0.96967	-2
0.97333	-2
0.97700	-2
0.98067	-1
0.98433	-2
0.98800	-2
0.99167	-2
0.99533	-2
0.99900	-2
1.00267	-2
1.00633	-2
1.01000	-2
1.01367	-2
1.01733	-2
1.02100	-3
1.02467	-3
1.02833	-3
1.03200	-3
1.03567	-3
1.03933	-2
1.04300	-2
1.04667	-2
1.05033	-2
1.05400	-2
1.05767	-2
1.06133	-2
1.06500	-2
1.06867	-2
1.07233	-2
1.07600	-2
1.07967	-3
1.08333	-3
1.08700	-3
1.09067	-3
1.09433	-2
1.09800	-2
1.10167	-2
1.10533	-2
1.10900	-2
1.11267	-2
1.11633	-2
1.12000	-2
1.12367	-2
1.12733	-3
1.13100	-3
1.13467	-3
1.13833	-3
1.14200	-3
1.14567	-3
1.14933	-3
1.15300	-3
1.15667	-3
1.16033	-3
1.16400	-3
1.16767	-3
1.17133	-3
1.17500	-3
1.17867	-3
1.18233	-2
1.18600	-2
1.18967	-2
1.19333	-2
1.19700	-2
1.20067	-2
1.20433	-2
1.20800	-3
1.21167	-3
1.21533	-3
1.21900	-3
1.22267	-3
1.22633	-3
1.23000	-3
1.23367	-3
1.23733	-2
1.24100	-2
1.24467	-3
1.24833	-3
1.25200	-3
1.25567	-3
1.25933	-3
1.26300	-3
1.26667	-3
1.27033	-3
1.27400	-3
1.27767	-3
1.28133	-3
1.28500	-3
1.28867	-3
1.29233	-3
1.29600	-3
1.29967	-3
1.30333	-3
1.30700	-3
1.31067	-3
1.31433	-3
1.31800	-3
1.32167	-3
1.32533	-3
1.32900	-3
1.33267	-3
1.33633	-3
1.34000	-3
1.34367	-2
1.34733	-2
1.35100	-2
1.35467	-2
1.35833	-2
1.36200	-3
1.36567	-3
1.36933	-3
1.37300	-3
1.37667	-3
1.38033	-2
1.38400	-2
1.38767	-2
1.39133	-3
1.39500	-3
1.39867	-3
1.40233	-3
1.40600	-3
1.40967	-3
1.41333	-2
1.41700	-2
1.42067	-2
1.42433	-2
1.42800	-2
1.43167	-1
1.43533	-2
1.43900	-2
1.44267	-2
1.44633	-2
1.45000	-2
1.45367	-2
1.45733	-2
1.46100	-2
1.46467	-2
1.46833	-2
1.47200	-2
1.47567	-3
1.47933	-3
1.48300	-3
1.48667	-3
1.49033	-3
1.49400	-3
1.49767	-3
1.50133	-3
1.50500	-3
1.50867	-3
1.51233	-3
1.51600	-3
1.51967	-3
1.52333	-3
1.52700	-3
1.53067	-3
1.53433	-3
1.53800	-3
1.54167	-3
1.54533	-3
1.54900	-3
1.55267	-3
1.55633	-3
1.56000	-3
1.56367	-3
1.56733	-3
1.57100	-3
1.57467	-3
1.57833	-3
1.58200	-3
1.58567	-4
1.58933	-4
1.59300	-4
1.59667	-5
1.60033	-5
1.60400	-6
1.60767	-7
1.61133	-9
1.61500	-11
1.61867	-13
1.62233	-15
1.62600	-18
1.62967	-21
1.63333	-23
1.63700	-26
1.64067	-30
1.64433	-33
1.64800	-36
1.65167	-40
1.65533	-43
1.65900	-47
1.66267	-50
1.66633	-54
1.67000	-58
1.67367	-62
1.67733	-67
1.68100	-71
1.68467	-76
1.68833	-80
1.69200	-83
1.69567	-86
1.69933	-88
1.70300	-90
1.70667	-92
1.71033	-93
1.71400	-94
1.71767	-95
1.72133	-95
1.72500	-95
1.72867	-96
1.73233	-96
1.73600	-95
1.73967	-95
1.74333	-94
1.74700	-94
1.75067	-93
1.75433	-93
1.75800	-93
1.76167	-94
1.76533	-94
1.76900	-95
1.77267	-96
1.77633	-96
1.78000	-97
1.78367	-97
1.78733	-98
1.79100	-99
1.79467	-99
1.79833	-100
1.80200	-100
1.80567	-101
1.80933	-101
1.81300	-101
1.81667	-101
1.82033	-102
1.82400	-102
1.82767	-102
1.83133	-101
1.83500	-100
1.83867	-100
1.84233	-99
1.84600	-99
1.84967	-100
1.85333	-100
1.85700	-101
1.86067	-102
1.86433	-102
1.86800	-102
1.87167	-102
1.87533	-102
1.87900	-101
1.88267	-100
1.88633	-100
1.89000	-99
1.89367	-99
1.89733	-99
1.90100	-99
1.90467	-99
1.90833	-99
1.91200	-99
1.91567	-98
1.91933	-97
1.92300	-97
1.92667	-97
1.93033	-97
1.93400	-97
1.93767	-97
1.94133	-97
1.94500	-98
1.94867	-98
1.95233	-98
1.95600	-99
1.95967	-98
1.96333	-98
1.96700	-97
1.97067	-95
1.97433	-94
1.97800	-93
1.98167	-92
1.98533	-92
1.98900	-92
1.99267	-92
1.99633	-92
2.00000	-92
2.00367	-92
2.00733	-92
2.01100	-93
2.01467	-93
2.01833	-93
2.02200	-94
2.02567	-94
2.02933	-93
2.03300	-93
2.03667	-92
2.04033	-91
2.04400	-91
2.04767	-90
2.05133	-90
2.05500	-89
2.05867	-89
2.06233	-89
2.06600	-89
2.06967	-89
2.07333	-89
2.07700	-89
2.08067	-89
2.08433	-88
2.08800	-88
2.09167	-87
2.09533	-87
2.09900	-86
2.10267	-86
2.10633	-85
2.11000	-85
2.11367	-84
2.11733	-84
2.12100	-84
2.12467	-83
2.12833	-83
2.13200	-83
2.13567	-82
2.13933	-81
2.14300	-81
2.14667	-80
2.15033	-80
2.15400	-80
2.15767	-80
2.16133	-80
2.16500	-80
2.16867	-79
2.17233	-79
2.17600	-79
2.17967	-79
2.18333	-79
2.18700	-80
2.19067	-80
2.19433	-80
2.19800	-80
2.20167	-80
2.20533	-80
2.20900	-80
2.21267	-80
2.21633	-79
2.22000	-79
2.22367	-78
2.22733	-78
2.23100	-77
2.23467	-77
2.23833	-77
2.24200	-76
2.24567	-75
2.24933	-74
2.25300	-73
2.25667	-73
2.26033	-73
2.26400	-73
2.26767	-73
2.27133	-73
2.27500	-72
2.27867	-72
2.28233	-72
2.28600	-72
2.28967	-72
2.29333	-72
2.29700	-72
2.30067	-72
2.30433	-71
2.30800	-70
2.31167	-70
2.31533	-69
2.31900	-69
2.32267	-69
2.32633	-68
2.33000	-68
2.33367	-68
2.33733	-67
2.34100	-66
2.34467	-66
2.34833	-65
2.35200	-64
2.35567	-64
2.35933	-62
2.36300	-61
2.36667	-60
2.37033	-58
2.37400	-55
2.37767	-53
2.38133	-49
2.38500	-46
2.38867	-42
2.39233	-37
2.39600	-33
2.39967	-29
2.40333	-25
2.40700	-21
2.41067	-17
2.41433	-14
2.41800	-11
2.42167	-8
2.42533	-5
2.42900	-3
2.43267	-1
2.43633	0
2.44000	1
2.44367	3
2.44733	4
2.45100	5
2.45467	6
2.45833	7
2.46200	8
2.46567	9
2.46933	9
2.47300	9
2.47667	10
2.48033	11
2.48400	12
2.48767	12
2.49133	13
2.49500	13
2.49867	14
2.50233	14
2.50600	14
2.50967	15
2.51333	15
2.51700	15
2.52067	16
2.52433	16
2.52800	16
2.53167	17
2.53533	17
2.53900	17
2.54267	17
2.54633	16
2.55000	15
2.55367	14
2.55733	13
2.56100	12
2.56467	12
2.56833	11
2.57200	11
2.57567	11
2.57933	11
2.58300	10
2.58667	11
2.59033	11
2.59400	11
2.59767	12
2.60133	13
2.60500	14
2.60867	15
2.61233	16
2.61600	16
2.61967	17
2.62333	17
2.62700	17
2.63067	18
2.63433	18
2.63800	18
2.64167	19
2.64533	19
2.64900	19
2.65267	19
2.65633	19
2.66000	19
2.66367	19
2.66733	20
2.67100	20
2.67467	20
2.67833	21
2.68200	21
2.68567	22
2.68933	22
2.69300	23
2.69667	23
2.70033	24
2.70400	24
2.70767	24
2.71133	23
2.71500	23
2.71867	23
2.72233	23
2.72600	23
2.72967	23
2.73333	24
2.73700	24
2.74067	25
2.74433	25
2.74800	26
2.75167	26
2.75533	27
2.75900	27
2.76267	27
2.76633	27
2.77000	28
2.77367	28
2.77733	28
2.78100	28
2.78467	29
2.78833	28
2.79200	28
2.79567	28
2.79933	28
2.80300	28
2.80667	27
2.81033	26
2.81400	26
2.81767	25
2.82133	25
2.82500	25
2.82867	24
2.83233	24
2.83600	24
2.83967	24
2.84333	24
2.84700	24
2.85067	24
2.85433	24
2.85800	23
2.86167	21
2.86533	17
2.86900	11
2.87267	1
2.87633	-14
2.88000	-33
2.88367	-58
2.88733	-88
2.89100	-123
2.89467	-164
2.89833	-209
2.90200	-260
2.90567	-315
2.90933	-373
2.91300	-434
2.91667	-497
2.92033	-561
2.92400	-625
2.92767	-690
2.93133	-752
2.93500	-812
2.93867	-868
2.94233	-922
2.94600	-976
2.94967	-1030
2.95333	-1078
2.95700	-1110
2.96067	-1118
2.96433	-1101
2.96800	-1062
2.97167	-1004
2.97533	-933
2.97900	-854
2.98267	-773
2.98633	-692
2.99000	-614
2.99367	-541
2.99733	-473
3.00100	-411
3.00467	-355
3.00833	-306
3.01200	-262
3.01567	-224
3.01933	-190
3.02300	-161
3.02667	-136
3.03033	-114
3.03400	-96
3.03767	-80
3.04133	-66
3.04500	-54
3.04867	-44
3.05233	-35
3.05600	-28
3.05967	-21
3.06333	-16
3.06700	-11
3.07067	-7
3.07433	-4
3.07800	-1
3.08167	1
3.08533	3
3.08900	4
3.09267	6
3.09633	8
3.10000	9
3.10367	10
3.10733	11
3.11100	12
3.11467	13
3.11833	13
3.12200	14
3.12567	15
3.12933	15
3.13300	16
3.13667	16
3.14033	17
3.14400	17
3.14767	18
3.15133	18
3.15500	18
3.15867	19
3.16233	19
3.16600	20
3.16967	20
3.17333	20
3.17700	20
3.18067	21
3.18433	21
3.18800	21
3.19167	21
3.19533	22
3.19900	22
3.20267	22
3.20633	22
3.21000	22
3.21367	22
3.21733	22
3.22100	22
3.22467	22
3.22833	22
3.23200	22
3.23567	22
3.23933	23
3.24300	23
3.24667	23
3.25033	23
3.25400	23
3.25767	23
3.26133	23
3.26500	23
3.26867	23
3.27233	23
3.27600	23
3.27967	23
3.28333	23
3.28700	24
3.29067	24
3.29433	24
3.29800	24
3.30167	24
3.30533	24
3.30900	24
3.31267	24
3.31633	24
3.32000	25
3.32367	25
3.32733	25
3.33100	25
3.33467	25
3.33833	25
3.34200	25
3.34567	26
3.34933	26
3.35300	26
3.35667	26
3.36033	26
3.36400	26
3.36767	26
3.37133	26
3.37500	26
3.37867	26
3.38233	26
3.38600	26
3.38967	26
3.39333	26
3.39700	26
3.40067	26
3.40433	26
3.40800	26
3.41167	26
3.41533	26
3.41900	27
3.42267	27
3.42633	27
3.43000	27
3.43367	27
3.43733	27
3.44100	27
3.44467	28
3.44833	28
3.45200	28
3.45567	28
3.45933	28
3.46300	28
3.46667	28
3.47033	28
3.47400	29
3.47767	29
3.48133	29
3.48500	30
3.48867	30
3.49233	30
3.49600	30
3.49967	30
3.50333	30
3.50700	30
3.51067	30
3.51433	30
3.51800	30
3.52167	29
3.52533	30
3.52900	30
3.53267	30
3.53633	30
3.54000	30
3.54367	30
3.54733	30
3.55100	30
3.55467	29
3.55833	29
3.56200	29
3.56567	29
3.56933	29
3.57300	29
3.57667	29
3.58033	29
3.58400	29
3.58767	29
3.59133	29
3.59500	28
3.59867	28
3.60233	28
3.60600	28
3.60967	28
3.61333	28
3.61700	28
3.62067	28
3.62433	29
3.62800	29
3.63167	29
3.63533	29
3.63900	28
3.64267	28
3.64633	28
3.65000	28
3.65367	28
3.65733	28
3.66100	28
3.66467	28
3.66833	28
3.67200	28
3.67567	28
3.67933	28
3.68300	28
3.68667	28
3.69033	28
3.69400	28
3.69767	28
3.70133	28
3.70500	28
3.70867	28
3.71233	28
3.71600	28
3.71967	28
3.72333	28
3.72700	28
3.73067	28
3.73433	28
3.73800	28
3.74167	28
3.74533	28
3.74900	28
3.75267	28
3.75633	28
3.76000	28
3.76367	28
3.76733	28
3.77100	28
3.77467	28
3.77833	28
3.78200	28
3.78567	28
3.78933	28
3.79300	28
3.79667	28
3.80033	28
3.80400	28
3.80767	28
3.81133	28
3.81500	27
3.81867	27
3.82233	27
3.82600	27
3.82967	27
3.83333	27
3.83700	28
3.84067	28
3.84433	28
3.84800	28
3.85167	29
3.85533	29
3.85900	29
3.86267	29
3.86633	29
3.87000	29
3.87367	29
3.87733	29
3.88100	28
3.88467	28
3.88833	28
3.89200	28
3.89567	28
3.89933	28
3.90300	28
3.90667	28
3.91033	28
3.91400	28
3.91767	28
3.92133	28
3.92500	28
3.92867	28
3.93233	28
3.93600	28
3.93967	28
3.94333	28
3.94700	28
3.95067	28
3.95433	27
3.95800	27
3.96167	27
3.96533	27
3.96900	27
3.97267	27
3.97633	27
3.98000	27
3.98367	27
3.98733	27
3.99100	27
3.99467	27
3.99833	27

[Chromatogram (Ch3)]
Interval(msec)	220
# of Points	1091
Start Time(min)	0.002
End Time(min)	3.998
R.Time (min)	Intensity
0.00167	-1
0.00533	-1
0.00900	-0
0.01267	1
0.01633	1
0.02000	-0
0.02367	-3
0.02733	-4
0.03100	-5
0.03467	-3
0.03833	-2
0.04200	-2
0.04567	-1
0.04933	1
0.05300	2
0.05667	3
0.06033	2
0.06400	2
0.06767	4
0.07133	6
0.07500	6
0.07867	5
0.08233	4
0.08600	6
0.08967	9
0.09333	10
0.09700	11
0.10067	9
0.10433	6
0.10800	3
0.11167	2
0.11533	0
0.11900	-1
0.12267	-3
0.12633	-3
0.13000	-2
0.13367	-1
0.13733	3
0.14100	4
0.14467	3
0.14833	1
0.15200	-0
0.15567	0
0.15933	-1
0.16300	0
0.16667	1
0.17033	2
0.17400	3
0.17767	3
0.18133	2
0.18500	2
0.18867	2
0.19233	3
0.19600	2
0.19967	1
0.20333	1
0.20700	1
0.21067	2
0.21433	0
0.21800	0
0.22167	1
0.22533	-1
0.22900	-2
0.23267	-0
0.23633	1
0.24000	2
0.24367	3
0.24733	4
0.25100	6
0.25467	5
0.25833	3
0.26200	1
0.26567	-2
0.26933	-4
0.27300	-5
0.27667	-4
0.28033	-3
0.28400	-1
0.28767	1
0.29133	1
0.29500	0
0.29867	-1
0.30233	-2
0.30600	1
0.30967	-0
0.31333	-2
0.31700	-1
0.32067	1
0.32433	4
0.32800	5
0.33167	3
0.33533	0
0.33900	-0
0.34267	-2
0.34633	-1
0.35000	1
0.35367	3
0.35733	5
0.36100	5
0.36467	2
0.36833	-0
0.37200	1
0.37567	0
0.37933	2
0.38300	4
0.38667	7
0.39033	9
0.39400	10
0.39767	8
0.40133	6
0.40500	6
0.40867	5
0.41233	1
0.41600	-0
0.41967	-2
0.42333	-3
0.42700	-4
0.43067	-4
0.43433	-3
0.43800	-3
0.44167	-5
0.44533	-5
0.44900	-4
0.45267	-7
0.45633	-8
0.46000	-6
0.46367	-4
0.46733	-4
0.47100	-5
0.47467	-6
0.47833	-4
0.48200	-4
0.48567	-4
0.48933	-2
0.49300	-0
0.49667	-1
0.50033	-1
0.50400	-1
0.50767	-2
0.51133	-1
0.51500	0
0.51867	-1
0.52233	-2
0.52600	-1
0.52967	-0
0.53333	-1
0.53700	-0
0.54067	1
0.54433	3
0.54800	7
0.55167	10
0.55533	10
0.55900	8
0.56267	6
0.56633	5
0.57000	5
0.57367	6
0.57733	8
0.58100	11
0.58467	11
0.58833	8
0.59200	9
0.59567	9
0.59933	8
0.60300	8
0.60667	7
0.61033	5
0.61400	5
0.61767	6
0.62133	5
0.62500	6
0.62867	9
0.63233	9
0.63600	6
0.63967	2
0.64333	2
0.64700	1
0.65067	1
0.65433	3
0.65800	4
0.66167	5
0.66533	3
0.66900	1
0.67267	2
0.67633	2
0.68000	2
0.68367	2
0.68733	3
0.69100	6
0.69467	7
0.69833	7
0.70200	7
0.70567	6
0.70933	5
0.71300	4
0.71667	2
0.72033	0
0.72400	-0
0.72767	2
0.73133	2
0.73500	1
0.73867	1
0.74233	0
0.74600	1
0.74967	2
0.75333	1
0.75700	1
0.76067	2
0.76433	2
0.76800	0
0.77167	-0
0.77533	0
0.77900	-0
0.78267	-2
0.78633	-0
0.79000	1
0.79367	2
0.79733	2
0.80100	-0
0.80467	-1
0.80833	1
0.81200	4
0.81567	6
0.81933	7
0.82300	9
0.82667	10
0.83033	9
0.83400	8
0.83767	7
0.84133	5
0.84500	6
0.84867	9
0.85233	9
0.85600	8
0.85967	7
0.86333	7
0.86700	6
0.87067	6
0.87433	6
0.87800	5
0.88167	5
0.88533	4
0.88900	2
0.89267	2
0.89633	5
0.90000	6
0.90367	7
0.90733	10
0.91100	11
0.91467	10
0.91833	9
0.92200	8
0.92567	8
0.92933	8
0.93300	8
0.93667	7
0.94033	8
0.94400	9
0.94767	11
0.95133	11
0.95500	12
0.95867	12
0.96233	9
0.96600	7
0.96967	8
0.97333	11
0.97700	12
0.98067	9
0.98433	6
0.98800	5
0.99167	6
0.99533	7
0.99900	7
1.00267	9
1.00633	10
1.01000	9
1.01367	11
1.01733	11
1.02100	12
1.02467	11
1.02833	9
1.03200	10
1.03567	10
1.03933	9
1.04300	10
1.04667	12
1.05033	12
1.05400	11
1.05767	10
1.06133	12
1.06500	9
1.06867	5
1.07233	7
1.07600	11
1.07967	12
1.08333	13
1.08700	10
1.09067	10
1.09433	10
1.09800	10
1.10167	7
1.10533	7
1.10900	8
1.11267	9
1.11633	9
1.12000	9
1.12367	8
1.12733	8
1.13100	10
1.13467	13
1.13833	13
1.14200	9
1.14567	8
1.14933	7
1.15300	4
1.15667	3
1.16033	4
1.16400	5
1.16767	7
1.17133	8
1.17500	9
1.17867	11
1.18233	11
1.18600	12
1.18967	12
1.19333	10
1.19700	9
1.20067	9
1.20433	7
1.20800	5
1.21167	3
1.21533	3
1.21900	4
1.22267	6
1.22633	7
1.23000	9
1.23367	8
1.23733	7
1.24100	7
1.24467	7
1.24833	7
1.25200	8
1.25567	8
1.25933	7
1.26300	6
1.26667	6
1.27033	6
1.27400	7
1.27767	5
1.28133	3
1.28500	0
1.28867	-1
1.29233	1
1.29600	2
1.29967	3
1.30333	4
1.30700	8
1.31067	12
1.31433	13
1.31800	17
1.32167	19
1.32533	19
1.32900	18
1.33267	18
1.33633	18
1.34000	17
1.34367	16
1.34733	13
1.35100	12
1.35467	11
1.35833	12
1.36200	12
1.36567	12
1.36933	13
1.37300	15
1.37667	13
1.38033	10
1.38400	11
1.38767	14
1.39133	14
1.39500	15
1.39867	16
1.40233	16
1.40600	15
1.40967	16
1.41333	17
1.41700	15
1.42067	14
1.42433	12
1.42800	11
1.43167	10
1.43533	11
1.43900	13
1.44267	15
1.44633	17
1.45000	15
1.45367	12
1.45733	9
1.46100	8
1.46467	10
1.46833	13
1.47200	13
1.47567	12
1.47933	12
1.48300	11
1.48667	11
1.49033	12
1.49400	13
1.49767	14
1.50133	13
1.50500	14
1.50867	15
1.51233	15
1.51600	13
1.51967	10
1.52333	8
1.52700	9
1.53067	9
1.53433	9
1.53800	11
1.54167	13
1.54533	13
1.54900	11
1.55267	9
1.55633	8
1.56000	7
1.56367	8
1.56733	11
1.57100	10
1.57467	8
1.57833	6
1.58200	6
1.58567	5
1.58933	8
1.59300	11
1.59667	9
1.60033	8
1.60400	7
1.60767	5
1.61133	6
1.61500	8
1.61867	8
1.62233	11
1.62600	13
1.62967	15
1.63333	17
1.63700	16
1.64067	15
1.64433	17
1.64800	19
1.65167	19
1.65533	16
1.65900	11
1.66267	6
1.66633	7
1.67000	11
1.67367	14
1.67733	16
1.68100	16
1.68467	15
1.68833	17
1.69200	19
1.69567	17
1.69933	14
1.70300	14
1.70667	13
1.71033	14
1.71400	15
1.71767	15
1.72133	15
1.72500	16
1.72867	20
1.73233	21
1.73600	21
1.73967	20
1.74333	18
1.74700	18
1.75067	18
1.75433	19
1.75800	16
1.76167	14
1.76533	15
1.76900	17
1.77267	19
1.77633	21
1.78000	23
1.78367	24
1.78733	26
1.79100	27
1.79467	29
1.79833	29
1.80200	28
1.80567	28
1.80933	28
1.81300	29
1.81667	29
1.82033	30
1.82400	30
1.82767	28
1.83133	25
1.83500	23
1.83867	22
1.84233	21
1.84600	22
1.84967	22
1.85333	22
1.85700	23
1.86067	23
1.86433	22
1.86800	22
1.87167	23
1.87533	24
1.87900	25
1.88267	29
1.88633	31
1.89000	31
1.89367	30
1.89733	31
1.90100	30
1.90467	31
1.90833	31
1.91200	33
1.91567	33
1.91933	33
1.92300	32
1.92667	32
1.93033	32
1.93400	30
1.93767	31
1.94133	33
1.94500	32
1.94867	32
1.95233	34
1.95600	36
1.95967	40
1.96333	44
1.96700	43
1.97067	40
1.97433	37
1.97800	35
1.98167	34
1.98533	35
1.98900	38
1.99267	39
1.99633	42
2.00000	44
2.00367	44
2.00733	45
2.01100	46
2.01467	47
2.01833	49
2.02200	50
2.02567	51
2.02933	52
2.03300	49
2.03667	46
2.04033	45
2.04400	44
2.04767	45
2.05133	49
2.05500	55
2.05867	57
2.06233	57
2.06600	57
2.06967	55
2.07333	56
2.07700	56
2.08067	57
2.08433	57
2.08800	57
2.09167	56
2.09533	55
2.09900	54
2.10267	54
2.10633	56
2.11000	57
2.11367	59
2.11733	60
2.12100	60
2.12467	61
2.12833	64
2.13200	67
2.13567	68
2.13933	65
2.14300	64
2.14667	64
2.15033	63
2.15400	65
2.15767	67
2.16133	67
2.16500	69
2.16867	69
2.17233	75
2.17600	78
2.17967	79
2.18333	77
2.18700	75
2.19067	76
2.19433	75
2.19800	74
2.20167	74
2.20533	74
2.20900	75
2.21267	76
2.21633	72
2.22000	71
2.22367	72
2.22733	73
2.23100	75
2.23467	73
2.23833	73
2.24200	75
2.24567	78
2.24933	80
2.25300	81
2.25667	81
2.26033	81
2.26400	83
2.26767	85
2.27133	85
2.27500	85
2.27867	85
2.28233	84
2.28600	86
2.28967	86
2.29333	81
2.29700	82
2.30067	84
2.30433	87
2.30800	90
2.31167	91
2.31533	91
2.31900	93
2.32267	95
2.32633	94
2.33000	93
2.33367	94
2.33733	95
2.34100	96
2.34467	98
2.34833	99
2.35200	96
2.35567	93
2.35933	92
2.36300	92
2.36667	90
2.37033	91
2.37400	93
2.37767	92
2.38133	90
2.38500	86
2.38867	81
2.39233	81
2.39600	86
2.39967	93
2.40333	101
2.40700	109
2.41067	113
2.41433	117
2.41800	117
2.42167	117
2.42533	116
2.42900	116
2.43267	116
2.43633	116
2.44000	122
2.44367	160
2.44733	227
2.45100	285
2.45467	317
2.45833	320
2.46200	298
2.46567	272
2.46933	251
2.47300	235
2.47667	218
2.48033	196
2.48400	173
2.48767	151
2.49133	133
2.49500	119
2.49867	112
2.50233	106
2.50600	102
2.50967	102
2.51333	103
2.51700	106
2.52067	106
2.52433	99
2.52800	92
2.53167	82
2.53533	71
2.53900	61
2.54267	51
2.54633	44
2.55000	38
2.55367	34
2.55733	28
2.56100	24
2.56467	24
2.56833	25
2.57200	25
2.57567	27
2.57933	32
2.58300	38
2.58667	46
2.59033	53
2.59400	59
2.59767	64
2.60133	68
2.60500	74
2.60867	77
2.61233	78
2.61600	79
2.61967	79
2.62333	76
2.62700	72
2.63067	66
2.63433	59
2.63800	49
2.64167	41
2.64533	34
2.64900	25
2.65267	16
2.65633	6
2.66000	1
2.66367	-1
2.66733	-6
2.67100	-13
2.67467	-15
2.67833	-18
2.68200	-20
2.68567	-22
2.68933	-26
2.69300	-27
2.69667	-28
2.70033	-30
2.70400	-31
2.70767	-31
2.71133	-31
2.71500	-29
2.71867	-27
2.72233	-25
2.72600	-22
2.72967	-19
2.73333	-13
2.73700	-8
2.74067	-6
2.74433	-6
2.74800	-5
2.75167	-3
2.75533	-2
2.75900	3
2.76267	9
2.76633	15
2.77000	20
2.77367	21
2.77733	22
2.78100	25
2.78467	28
2.78833	33
2.79200	37
2.79567	38
2.79933	39
2.80300	41
2.80667	45
2.81033	50
2.81400	54
2.81767	58
2.82133	64
2.82500	64
2.82867	62
2.83233	63
2.83600	70
2.83967	88
2.84333	126
2.84700	199
2.85067	321
2.85433	514
2.85800	793
2.86167	1159
2.86533	1602
2.86900	2092
2.87267	2593
2.87633	3069
2.88000	3476
2.88367	3782
2.88733	3969
2.89100	4035
2.89467	3987
2.89833	3846
2.90200	3631
2.90567	3367
2.90933	3081
2.91300	2787
2.91667	2497
2.92033	2220
2.92400	1961
2.92767	1725
2.93133	1516
2.93500	1329
2.93867	1163
2.94233	1016
2.94600	886
2.94967	771
2.95333	668
2.95700	581
2.96067	505
2.96433	443
2.96800	387
2.97167	337
2.97533	295
2.97900	261
2.98267	230
2.98633	203
2.99000	182
2.99367	165
2.99733	150
3.00100	137
3.00467	111
3.00833	44
3.01200	-48
3.01567	-111
3.01933	-114
3.02300	-62
3.02667	22
3.03033	125
3.03400	238
3.03767	349
3.04133	451
3.04500	541
3.04867	620
3.05233	683
3.05600	731
3.05967	770
3.06333	802
3.06700	828
3.07067	850
3.07433	867
3.07800	881
3.08167	890
3.08533	896
3.08900	897
3.09267	895
3.09633	895
3.10000	896
3.10367	895
3.10733	894
3.11100	892
3.11467	892
3.11833	889
3.12200	886
3.12567	883
3.12933	877
3.13300	874
3.13667	872
3.14033	868
3.14400	864
3.14767	859
3.15133	854
3.15500	851
3.15867	849
3.16233	846
3.16600	843
3.16967	838
3.17333	837
3.17700	838
3.18067	837
3.18433	834
3.18800	828
3.19167	822
3.19533	817
3.19900	810
3.20267	804
3.20633	800
3.21000	799
3.21367	795
3.21733	788
3.22100	785
3.22467	783
3.22833	781
3.23200	777
3.23567	773
3.23933	770
3.24300	766
3.24667	759
3.25033	754
3.25400	749
3.25767	747
3.26133	745
3.26500	742
3.26867	738
3.27233	734
3.27600	732
3.27967	729
3.28333	726
3.28700	725
3.29067	723
3.29433	720
3.29800	715
3.30167	714
3.30533	716
3.30900	713
3.31267	708
3.31633	705
3.32000	703
3.32367	701
3.32733	700
3.33100	700
3.33467	700
3.33833	700
3.34200	700
3.34567	702
3.34933	707
3.35300	711
3.35667	713
3.36033	716
3.36400	717
3.36767	721
3.37133	728
3.37500	736
3.37867	743
3.38233	751
3.38600	760
3.38967	767
3.39333	770
3.39700	774
3.40067	778
3.40433	781
3.40800	783
3.41167	785
3.41533	787
3.41900	789
3.42267	791
3.42633	793
3.43000	791
3.43367	785
3.43733	779
3.44100	773
3.44467	768
3.44833	762
3.45200	754
3.45567	748
3.45933	744
3.46300	741
3.46667	732
3.47033	720
3.47400	711
3.47767	701
3.48133	693
3.48500	688
3.48867	681
3.49233	674
3.49600	663
3.49967	653
3.50333	641
3.50700	630
3.51067	624
3.51433	620
3.51800	616
3.52167	611
3.52533	604
3.52900	600
3.53267	594
3.53633	591
3.54000	591
3.54367	588
3.54733	586
3.55100	582
3.55467	581
3.55833	577
3.56200	573
3.56567	571
3.56933	569
3.57300	567
3.57667	566
3.58033	567
3.58400	564
3.58767	560
3.59133	559
3.59500	555
3.59867	550
3.60233	544
3.60600	540
3.60967	537
3.61333	536
3.61700	533
3.62067	534
3.62433	534
3.62800	531
3.63167	526
3.63533	521
3.63900	516
3.64267	515
3.64633	515
3.65000	514
3.65367	515
3.65733	515
3.66100	515
3.66467	514
3.66833	509
3.67200	506
3.67567	506
3.67933	505
3.68300	504
3.68667	504
3.69033	503
3.69400	503
3.69767	502
3.70133	500
3.70500	499
3.70867	498
3.71233	498
3.71600	497
3.71967	497
3.72333	497
3.72700	495
3.73067	496
3.73433	498
3.73800	497
3.74167	494
3.74533	491
3.74900	490
3.75267	489
3.75633	487
3.76000	486
3.76367	489
3.76733	490
3.77100	490
3.77467	490
3.77833	488
3.78200	486
3.78567	484
3.78933	482
3.79300	484
3.79667	484
3.80033	479
3.80400	475
3.80767	473
3.81133	474
3.81500	474
3.81867	470
3.82233	468
3.82600	468
3.82967	467
3.83333	465
3.83700	465
3.84067	470
3.84433	472
3.84800	472
3.85167	471
3.85533	470
3.85900	466
3.86267	464
3.86633	465
3.87000	466
3.87367	465
3.87733	463
3.88100	459
3.88467	459
3.88833	457
3.89200	455
3.89567	457
3.89933	459
3.90300	460
3.90667	458
3.91033	455
3.91400	452
3.91767	454
3.92133	455
3.92500	452
3.92867	450
3.93233	449
3.93600	450
3.93967	451
3.94333	450
3.94700	449
3.95067	449
3.95433	447
3.95800	446
3.96167	445
3.96533	444
3.96900	443
3.97267	441
3.97633	437
3.98000	437
3.98367	438
3.98733	437
3.99100	436
3.99467	433
3.99833	428

[Status Trace (Column Oven Temperature)]
Interval(msec)	1000
# of Points	240
Start Time(min)	0.006
End Time(min)	3.990
Intensity Units	
Intensity Multiplier	1
R.Time (min)	Intensity
0.00630	35.03
0.02297	35.04
0.03963	35.05
0.05630	35.05
0.07297	35.06
0.08963	35.05
0.10630	35.04
0.12297	35.04
0.13963	35.03
0.15630	35.04
0.17297	35.03
0.18963	35.02
0.20630	35.02
0.22297	35.02
0.23963	35.01
0.25630	35.01
0.27297	35.01
0.28963	35.02
0.30630	35.02
0.32297	35.02
0.33963	35.02
0.35630	35.00
0.37297	35.01
0.38963	35.01
0.40630	35.01
0.42297	35.01
0.43963	35.00
0.45630	35.00
0.47297	35.00
0.48963	35.00
0.50630	35.00
0.52297	35.00
0.53963	35.00
0.55630	35.01
0.57297	35.00
0.58963	35.01
0.60630	35.00
0.62297	35.01
0.63963	35.00
0.65630	35.00
0.67297	34.99
0.68963	35.00
0.70630	35.00
0.72297	35.00
0.73963	35.01
0.75630	35.00
0.77297	35.00
0.78963	35.00
0.80630	35.01
0.82297	35.01
0.83963	35.01
0.85630	35.00
0.87297	35.00
0.88963	34.99
0.90630	34.99
0.92297	35.01
0.93963	35.00
0.95630	35.00
0.97297	35.00
0.98963	35.00
1.00630	35.00
1.02297	35.00
1.03963	35.00
1.05630	35.00
1.07297	35.00
1.08963	35.00
1.10630	35.00
1.12297	34.99
1.13963	34.99
1.15630	34.99
1.17297	34.98
1.18963	34.98
1.20630	34.98
1.22297	34.98
1.23963	34.99
1.25630	34.99
1.27297	34.99
1.28963	35.00
1.30630	35.00
1.32297	35.00
1.33963	34.99
1.35630	34.99
1.37297	34.99
1.38963	35.00
1.40630	35.00
1.42297	35.00
1.43963	34.99
1.45630	35.00
1.47297	34.99
1.48963	34.99
1.50630	34.99
1.52297	34.99
1.53963	34.98
1.55630	34.99
1.57297	34.99
1.58963	35.00
1.60630	35.05
1.62297	35.17
1.63963	35.35
1.65630	35.59
1.67297	35.92
1.68963	36.28
1.70630	36.64
1.72297	36.99
1.73963	37.30
1.75630	37.61
1.77297	37.95
1.78963	38.28
1.80630	38.63
1.82297	38.96
1.83963	39.29
1.85630	39.63
1.87297	39.95
1.88963	40.27
1.90630	40.61
1.92297	40.92
1.93963	41.26
1.95630	41.61
1.97297	41.91
1.98963	42.24
2.00630	42.57
2.02297	42.90
2.03963	43.22
2.05630	43.54
2.07297	43.87
2.08963	44.20
2.10630	44.52
2.12297	44.85
2.13963	45.16
2.15630	45.50
2.17297	45.83
2.18963	46.15
2.20630	46.48
2.22297	46.81
2.23963	47.14
2.25630	47.47
2.27297	47.81
2.28963	48.14
2.30630	48.45
2.32297	48.79
2.33963	49.12
2.35630	49.41
2.37297	49.60
2.38963	49.66
2.40630	49.67
2.42297	49.67
2.43963	49.69
2.45630	49.69
2.47297	49.71
2.48963	49.71
2.50630	49.73
2.52297	49.75
2.53963	49.75
2.55630	49.78
2.57297	49.79
2.58963	49.82
2.60630	49.83
2.62297	49.84
2.63963	49.83
2.65630	49.85
2.67297	49.86
2.68963	49.85
2.70630	49.85
2.72297	49.88
2.73963	49.88
2.75630	49.88
2.77297	49.86
2.78963	49.85
2.80630	49.87
2.82297	49.89
2.83963	49.92
2.85630	49.92
2.87297	49.92
2.88963	49.93
2.90630	49.94
2.92297	49.95
2.93963	49.95
2.95630	49.96
2.97297	49.96
2.98963	49.97
3.00630	49.97
3.02297	49.98
3.03963	49.99
3.05630	49.99
3.07297	49.99
3.08963	50.00
3.10630	50.01
3.12297	50.01
3.13963	50.02
3.15630	50.02
3.17297	50.03
3.18963	50.03
3.20630	50.05
3.22297	50.06
3.23963	50.07
3.25630	50.08
3.27297	50.09
3.28963	50.09
3.30630	50.10
3.32297	50.10
3.33963	50.10
3.35630	50.09
3.37297	50.10
3.38963	50.10
3.40630	50.10
3.42297	50.11
3.43963	50.10
3.45630	50.10
3.47297	50.08
3.48963	50.06
3.50630	50.05
3.52297	50.05
3.53963	50.04
3.55630	50.04
3.57297	50.03
3.58963	50.03
3.60630	50.03
3.62297	50.03
3.63963	50.03
3.65630	50.03
3.67297	50.03
3.68963	50.03
3.70630	50.03
3.72297	50.03
3.73963	50.03
3.75630	50.03
3.77297	50.03
3.78963	50.04
3.80630	50.04
3.82297	50.05
3.83963	50.06
3.85630	50.05
3.87297	50.05
3.88963	50.05
3.90630	50.05
3.92297	50.05
3.93963	50.05
3.95630	50.05
3.97297	50.04
3.98963	50.05

[Status Trace (Injection Unit Temperature)]
Interval(msec)	1000
# of Points	240
Start Time(min)	0.006
End Time(min)	3.990
Intensity Units	
Intensity Multiplier	1
R.Time (min)	Intensity
0.00630	99.98
0.02297	99.98
0.03963	99.98
0.05630	99.98
0.07297	99.98
0.08963	99.98
0.10630	99.98
0.12297	99.98
0.13963	99.98
0.15630	99.98
0.17297	99.98
0.18963	99.98
0.20630	99.98
0.22297	99.98
0.23963	99.98
0.25630	99.98
0.27297	99.98
0.28963	99.98
0.30630	99.98
0.32297	99.98
0.33963	99.98
0.35630	99.99
0.37297	99.98
0.38963	99.98
0.40630	99.98
0.42297	99.99
0.43963	99.99
0.45630	99.98
0.47297	99.99
0.48963	99.98
0.50630	99.99
0.52297	99.98
0.53963	99.98
0.55630	99.99
0.57297	99.98
0.58963	99.98
0.60630	99.98
0.62297	99.99
0.63963	99.98
0.65630	99.99
0.67297	99.98
0.68963	99.98
0.70630	99.99
0.72297	99.99
0.73963	99.98
0.75630	99.99
0.77297	99.99
0.78963	99.98
0.80630	99.99
0.82297	99.98
0.83963	99.98
0.85630	99.98
0.87297	99.99
0.88963	99.98
0.90630	99.98
0.92297	99.99
0.93963	99.98
0.95630	99.98
0.97297	99.98
0.98963	99.98
1.00630	99.98
1.02297	99.98
1.03963	99.98
1.05630	99.98
1.07297	99.98
1.08963	99.98
1.10630	99.98
1.12297	99.98
1.13963	99.98
1.15630	99.98
1.17297	99.98
1.18963	99.98
1.20630	99.99
1.22297	99.98
1.23963	99.98
1.25630	99.99
1.27297	99.99
1.28963	99.98
1.30630	99.99
1.32297	99.98
1.33963	99.99
1.35630	99.99
1.37297	99.98
1.38963	99.99
1.40630	99.99
1.42297	99.98
1.43963	99.99
1.45630	99.99
1.47297	99.99
1.48963	99.99
1.50630	99.99
1.52297	99.99
1.53963	99.98
1.55630	99.99
1.57297	99.99
1.58963	99.99
1.60630	99.99
1.62297	99.99
1.63963	99.98
1.65630	99.99
1.67297	99.98
1.68963	99.98
1.70630	99.99
1.72297	99.99
1.73963	99.98
1.75630	99.98
1.77297	99.99
1.78963	99.98
1.80630	99.98
1.82297	99.98
1.83963	99.98
1.85630	99.98
1.87297	99.98
1.88963	99.98
1.90630	99.98
1.92297	99.98
1.93963	99.98
1.95630	99.98
1.97297	99.98
1.98963	99.97
2.00630	99.97
2.02297	99.97
2.03963	99.97
2.05630	99.97
2.07297	99.97
2.08963	99.97
2.10630	99.97
2.12297	99.97
2.13963	99.97
2.15630	99.96
2.17297	99.96
2.18963	99.96
2.20630	99.97
2.22297	99.96
2.23963	99.96
2.25630	99.96
2.27297	99.96
2.28963	99.96
2.30630	99.96
2.32297	99.96
2.33963	99.96
2.35630	99.96
2.37297	99.96
2.38963	99.96
2.40630	99.96
2.42297	99.96
2.43963	99.96
2.45630	99.96
2.47297	99.96
2.48963	99.96
2.50630	99.96
2.52297	99.96
2.53963	99.96
2.55630	99.96
2.57297	99.97
2.58963	99.96
2.60630	99.97
2.62297	99.97
2.63963	99.97
2.65630	99.97
2.67297	99.97
2.68963	99.97
2.70630	99.98
2.72297	99.98
2.73963	99.98
2.75630	99.98
2.77297	99.98
2.78963	99.98
2.80630	99.98
2.82297	99.98
2.83963	99.99
2.85630	99.99
2.87297	99.99
2.88963	99.99
2.90630	99.99
2.92297	100.00
2.93963	100.00
2.95630	100.00
2.97297	100.00
2.98963	100.00
3.00630	100.01
3.02297	100.00
3.03963	100.01
3.05630	100.01
3.07297	100.01
3.08963	100.01
3.10630	100.01
3.12297	100.01
3.13963	100.02
3.15630	100.01
3.17297	100.01
3.18963	100.02
3.20630	100.02
3.22297	100.02
3.23963	100.02
3.25630	100.02
3.27297	100.02
3.28963	100.02
3.30630	100.02
3.32297	100.02
3.33963	100.02
3.35630	100.02
3.37297	100.03
3.38963	100.03
3.40630	100.03
3.42297	100.03
3.43963	100.03
3.45630	100.03
3.47297	100.03
3.48963	100.03
3.50630	100.03
3.52297	100.03
3.53963	100.03
3.55630	100.03
3.57297	100.03
3.58963	100.03
3.60630	100.04
3.62297	100.03
3.63963	100.03
3.65630	100.04
3.67297	100.03
3.68963	100.04
3.70630	100.04
3.72297	100.03
3.73963	100.03
3.75630	100.04
3.77297	100.04
3.78963	100.04
3.80630	100.04
3.82297	100.04
3.83963	100.04
3.85630	100.04
3.87297	100.04
3.88963	100.04
3.90630	100.04
3.92297	100.04
3.93963	100.04
3.95630	100.04
3.97297	100.04
3.98963	100.04

[Status Trace (Carrier Gas Pressure)]
Interval(msec)	1000
# of Points	240
Start Time(min)	0.006
End Time(min)	3.990
Intensity Units	
Intensity Multiplier	1
R.Time (min)	Intensity
0.00630	58.00
0.02297	55.56
0.03963	56.78
0.05630	58.99
0.07297	59.64
0.08963	58.16
0.10630	57.97
0.12297	58.01
0.13963	58.01
0.15630	58.01
0.17297	58.00
0.18963	58.00
0.20630	58.00
0.22297	58.00
0.23963	58.00
0.25630	58.00
0.27297	58.00
0.28963	58.00
0.30630	58.00
0.32297	58.00
0.33963	58.00
0.35630	58.00
0.37297	58.00
0.38963	58.00
0.40630	58.00
0.42297	58.00
0.43963	58.00
0.45630	58.00
0.47297	58.00
0.48963	58.00
0.50630	58.00
0.52297	58.00
0.53963	58.00
0.55630	58.00
0.57297	58.00
0.58963	58.00
0.60630	58.00
0.62297	58.00
0.63963	58.00
0.65630	58.00
0.67297	58.00
0.68963	58.00
0.70630	58.00
0.72297	58.00
0.73963	58.00
0.75630	58.00
0.77297	58.00
0.78963	58.00
0.80630	58.00
0.82297	58.00
0.83963	58.00
0.85630	58.00
0.87297	58.00
0.88963	58.00
0.90630	58.00
0.92297	58.00
0.93963	58.00
0.95630	58.00
0.97297	58.00
0.98963	58.00
1.00630	58.00
1.02297	58.00
1.03963	58.00
1.05630	58.00
1.07297	58.00
1.08963	58.00
1.10630	58.00
1.12297	58.00
1.13963	58.00
1.15630	58.00
1.17297	58.00
1.18963	58.00
1.20630	58.00
1.22297	58.00
1.23963	58.00
1.25630	58.00
1.27297	58.00
1.28963	58.00
1.30630	58.00
1.32297	58.00
1.33963	58.00
1.35630	58.00
1.37297	58.00
1.38963	58.00
1.40630	58.00
1.42297	58.00
1.43963	58.00
1.45630	58.00
1.47297	58.00
1.48963	58.00
1.50630	58.00
1.52297	58.00
1.53963	58.00
1.55630	58.00
1.57297	58.00
1.58963	58.00
1.60630	58.00
1.62297	58.00
1.63963	58.01
1.65630	58.00
1.67297	58.01
1.68963	58.00
1.70630	58.00
1.72297	58.00
1.73963	58.00
1.75630	58.00
1.77297	58.00
1.78963	58.00
1.80630	58.00
1.82297	58.00
1.83963	58.00
1.85630	58.00
1.87297	58.00
1.88963	58.00
1.90630	58.00
1.92297	58.00
1.93963	58.00
1.95630	58.00
1.97297	58.00
1.98963	58.00
2.00630	58.00
2.02297	58.00
2.03963	58.00
2.05630	58.00
2.07297	58.00
2.08963	58.00
2.10630	58.00
2.12297	58.00
2.13963	58.00
2.15630	58.00
2.17297	58.00
2.18963	58.00
2.20630	58.00
2.22297	58.00
2.23963	58.00
2.25630	58.00
2.27297	58.00
2.28963	58.00
2.30630	58.00
2.32297	58.00
2.33963	58.00
2.35630	58.00
2.37297	58.00
2.38963	57.99
2.40630	58.00
2.42297	58.00
2.43963	58.00
2.45630	58.00
2.47297	58.00
2.48963	58.00
2.50630	57.99
2.52297	57.99
2.53963	58.00
2.55630	58.00
2.57297	58.00
2.58963	58.00
2.60630	58.00
2.62297	58.00
2.63963	58.00
2.65630	58.00
2.67297	58.00
2.68963	58.00
2.70630	58.00
2.72297	58.00
2.73963	58.00
2.75630	58.00
2.77297	58.00
2.78963	58.00
2.80630	58.00
2.82297	58.00
2.83963	58.00
2.85630	58.00
2.87297	58.00
2.88963	58.00
2.90630	58.00
2.92297	58.00
2.93963	58.00
2.95630	58.00
2.97297	58.00
2.98963	58.00
3.00630	58.00
3.02297	58.00
3.03963	58.00
3.05630	58.00
3.07297	58.00
3.08963	58.00
3.10630	58.00
3.12297	58.00
3.13963	58.00
3.15630	58.00
3.17297	58.00
3.18963	58.00
3.20630	58.00
3.22297	58.00
3.23963	58.00
3.25630	58.00
3.27297	58.00
3.28963	58.00
3.30630	58.00
3.32297	58.00
3.33963	58.00
3.35630	58.00
3.37297	58.00
3.38963	58.00
3.40630	58.00
3.42297	58.00
3.43963	58.00
3.45630	58.00
3.47297	58.00
3.48963	58.00
3.50630	58.00
3.52297	58.00
3.53963	58.00
3.55630	58.00
3.57297	58.00
3.58963	58.00
3.60630	58.00
3.62297	58.00
3.63963	58.00
3.65630	58.00
3.67297	58.00
3.68963	58.00
3.70630	58.00
3.72297	58.00
3.73963	58.00
3.75630	58.00
3.77297	58.00
3.78963	58.00
3.80630	58.00
3.82297	58.00
3.83963	58.00
3.85630	58.00
3.87297	58.00
3.88963	58.00
3.90630	58.00
3.92297	58.00
3.93963	58.00
3.95630	58.00
3.97297	58.00
3.98963	58.00

[Status Trace (Carrier Gas Flow)]
Interval(msec)	1000
# of Points	240
Start Time(min)	0.006
End Time(min)	3.990
Intensity Units	
Intensity Multiplier	1
R.Time (min)	Intensity
0.00630	34.52
0.02297	34.54
0.03963	34.54
0.05630	34.55
0.07297	34.49
0.08963	34.51
0.10630	34.52
0.12297	34.52
0.13963	34.52
0.15630	34.53
0.17297	34.53
0.18963	34.52
0.20630	34.52
0.22297	34.52
0.23963	34.52
0.25630	34.51
0.27297	34.52
0.28963	34.52
0.30630	34.52
0.32297	34.52
0.33963	34.52
0.35630	34.52
0.37297	34.52
0.38963	34.52
0.40630	34.52
0.42297	34.52
0.43963	34.51
0.45630	34.52
0.47297	34.52
0.48963	34.52
0.50630	34.51
0.52297	34.52
0.53963	34.52
0.55630	34.52
0.57297	34.52
0.58963	34.52
0.60630	34.52
0.62297	34.52
0.63963	34.51
0.65630	34.52
0.67297	34.52
0.68963	34.52
0.70630	34.52
0.72297	34.52
0.73963	34.52
0.75630	34.51
0.77297	34.52
0.78963	34.52
0.80630	34.52
0.82297	34.51
0.83963	34.52
0.85630	34.52
0.87297	34.52
0.88963	34.52
0.90630	34.52
0.92297	34.52
0.93963	34.52
0.95630	34.52
0.97297	34.52
0.98963	34.52
1.00630	34.52
1.02297	34.52
1.03963	34.52
1.05630	34.52
1.07297	34.52
1.08963	34.52
1.10630	34.52
1.12297	34.52
1.13963	34.51
1.15630	34.52
1.17297	34.52
1.18963	34.52
1.20630	34.51
1.22297	34.52
1.23963	34.53
1.25630	34.52
1.27297	34.51
1.28963	34.52
1.30630	34.52
1.32297	34.51
1.33963	34.52
1.35630	34.52
1.37297	34.52
1.38963	34.52
1.40630	34.53
1.42297	34.52
1.43963	34.53
1.45630	34.51
1.47297	34.52
1.48963	34.52
1.50630	34.52
1.52297	34.52
1.53963	34.52
1.55630	34.52
1.57297	34.52
1.58963	34.52
1.60630	34.51
1.62297	34.52
1.63963	34.52
1.65630	34.52
1.67297	34.52
1.68963	34.52
1.70630	34.52
1.72297	34.52
1.73963	34.52
1.75630	34.52
1.77297	34.52
1.78963	34.52
1.80630	34.52
1.82297	34.52
1.83963	34.52
1.85630	34.52
1.87297	34.52
1.88963	34.52
1.90630	34.52
1.92297	34.52
1.93963	34.52
1.95630	34.52
1.97297	34.53
1.98963	34.52
2.00630	34.52
2.02297	34.52
2.03963	34.53
2.05630	34.51
2.07297	34.51
2.08963	34.52
2.10630	34.51
2.12297	34.52
2.13963	34.52
2.15630	34.52
2.17297	34.52
2.18963	34.52
2.20630	34.52
2.22297	34.52
2.23963	34.51
2.25630	34.52
2.27297	34.52
2.28963	34.52
2.30630	34.52
2.32297	34.52
2.33963	34.52
2.35630	34.52
2.37297	34.52
2.38963	34.51
2.40630	34.52
2.42297	34.52
2.43963	34.52
2.45630	34.53
2.47297	34.52
2.48963	34.52
2.50630	34.47
2.52297	34.52
2.53963	34.52
2.55630	34.52
2.57297	34.52
2.58963	34.52
2.60630	34.51
2.62297	34.52
2.63963	34.52
2.65630	34.52
2.67297	34.52
2.68963	34.52
2.70630	34.52
2.72297	34.52
2.73963	34.52
2.75630	34.52
2.77297	34.52
2.78963	34.52
2.80630	34.52
2.82297	34.52
2.83963	34.52
2.85630	34.52
2.87297	34.52
2.88963	34.52
2.90630	34.52
2.92297	34.52
2.93963	34.52
2.95630	34.52
2.97297	34.52
2.98963	34.52
3.00630	34.52
3.02297	34.52
3.03963	34.52
3.05630	34.51
3.07297	34.52
3.08963	34.51
3.10630	34.52
3.12297	34.53
3.13963	34.52
3.15630	34.52
3.17297	34.52
3.18963	34.52
3.20630	34.52
3.22297	34.51
3.23963	34.52
3.25630	34.52
3.27297	34.52
3.28963	34.52
3.30630	34.52
3.32297	34.52
3.33963	34.52
3.35630	34.52
3.37297	34.52
3.38963	34.52
3.40630	34.52
3.42297	34.52
3.43963	34.52
3.45630	34.52
3.47297	34.52
3.48963	34.52
3.50630	34.52
3.52297	34.52
3.53963	34.52
3.55630	34.51
3.57297	34.52
3.58963	34.52
3.60630	34.52
3.62297	34.52
3.63963	34.52
3.65630	34.52
3.67297	34.52
3.68963	34.52
3.70630	34.52
3.72297	34.52
3.73963	34.52
3.75630	34.52
3.77297	34.52
3.78963	34.51
3.80630	34.52
3.82297	34.52
3.83963	34.52
3.85630	34.52
3.87297	34.52
3.88963	34.52
3.90630	34.52
3.92297	34.52
3.93963	34.52
3.95630	34.52
3.97297	34.52
3.98963	34.52

[Status Trace (Column Flow)]
Interval(msec)	1000
# of Points	240
Start Time(min)	0.006
End Time(min)	3.990
Intensity Units	
Intensity Multiplier	1
R.Time (min)	Intensity
0.00630	5.50
0.02297	5.22
0.03963	5.36
0.05630	5.62
0.07297	5.70
0.08963	5.52
0.10630	5.50
0.12297	5.51
0.13963	5.51
0.15630	5.51
0.17297	5.50
0.18963	5.51
0.20630	5.51
0.22297	5.51
0.23963	5.51
0.25630	5.51
0.27297	5.51
0.28963	5.50
0.30630	5.51
0.32297	5.51
0.33963	5.51
0.35630	5.51
0.37297	5.51
0.38963	5.51
0.40630	5.51
0.42297	5.51
0.43963	5.51
0.45630	5.51
0.47297	5.51
0.48963	5.51
0.50630	5.51
0.52297	5.51
0.53963	5.51
0.55630	5.51
0.57297	5.51
0.58963	5.51
0.60630	5.51
0.62297	5.51
0.63963	5.51
0.65630	5.51
0.67297	5.51
0.68963	5.51
0.70630	5.51
0.72297	5.51
0.73963	5.51
0.75630	5.51
0.77297	5.51
0.78963	5.51
0.80630	5.51
0.82297	5.51
0.83963	5.51
0.85630	5.51
0.87297	5.51
0.88963	5.51
0.90630	5.51
0.92297	5.51
0.93963	5.51
0.95630	5.51
0.97297	5.51
0.98963	5.51
1.00630	5.51
1.02297	5.51
1.03963	5.51
1.05630	5.51
1.07297	5.51
1.08963	5.51
1.10630	5.51
1.12297	5.51
1.13963	5.51
1.15630	5.51
1.17297	5.51
1.18963	5.51
1.20630	5.51
1.22297	5.51
1.23963	5.51
1.25630	5.51
1.27297	5.51
1.28963	5.51
1.30630	5.51
1.32297	5.51
1.33963	5.51
1.35630	5.51
1.37297	5.51
1.38963	5.51
1.40630	5.51
1.42297	5.51
1.43963	5.51
1.45630	5.51
1.47297	5.51
1.48963	5.51
1.50630	5.51
1.52297	5.51
1.53963	5.51
1.55630	5.51
1.57297	5.51
1.58963	5.51
1.60630	5.50
1.62297	5.50
1.63963	5.50
1.65630	5.49
1.67297	5.48
1.68963	5.47
1.70630	5.45
1.72297	5.44
1.73963	5.43
1.75630	5.42
1.77297	5.41
1.78963	5.40
1.80630	5.39
1.82297	5.38
1.83963	5.37
1.85630	5.36
1.87297	5.35
1.88963	5.34
1.90630	5.33
1.92297	5.32
1.93963	5.31
1.95630	5.30
1.97297	5.29
1.98963	5.29
2.00630	5.28
2.02297	5.27
2.03963	5.26
2.05630	5.25
2.07297	5.24
2.08963	5.23
2.10630	5.22
2.12297	5.21
2.13963	5.20
2.15630	5.19
2.17297	5.18
2.18963	5.17
2.20630	5.16
2.22297	5.15
2.23963	5.14
2.25630	5.13
2.27297	5.13
2.28963	5.12
2.30630	5.11
2.32297	5.10
2.33963	5.09
2.35630	5.08
2.37297	5.07
2.38963	5.07
2.40630	5.07
2.42297	5.07
2.43963	5.07
2.45630	5.07
2.47297	5.07
2.48963	5.07
2.50630	5.07
2.52297	5.07
2.53963	5.07
2.55630	5.07
2.57297	5.07
2.58963	5.07
2.60630	5.07
2.62297	5.07
2.63963	5.07
2.65630	5.07
2.67297	5.07
2.68963	5.07
2.70630	5.07
2.72297	5.07
2.73963	5.07
2.75630	5.07
2.77297	5.07
2.78963	5.07
2.80630	5.07
2.82297	5.07
2.83963	5.07
2.85630	5.07
2.87297	5.07
2.88963	5.07
2.90630	5.07
2.92297	5.07
2.93963	5.07
2.95630	5.07
2.97297	5.06
2.98963	5.06
3.00630	5.06
3.02297	5.06
3.03963	5.06
3.05630	5.06
3.07297	5.06
3.08963	5.06
3.10630	5.06
3.12297	5.06
3.13963	5.06
3.15630	5.06
3.17297	5.06
3.18963	5.06
3.20630	5.06
3.22297	5.06
3.23963	5.06
3.25630	5.06
3.27297	5.06
3.28963	5.06
3.30630	5.06
3.32297	5.06
3.33963	5.06
3.35630	5.06
3.37297	5.06
3.38963	5.06
3.40630	5.06
3.42297	5.06
3.43963	5.06
3.45630	5.06
3.47297	5.06
3.48963	5.06
3.50630	5.06
3.52297	5.06
3.53963	5.06
3.55630	5.06
3.57297	5.06
3.58963	5.06
3.60630	5.06
3.62297	5.06
3.63963	5.06
3.65630	5.06
3.67297	5.06
3.68963	5.06
3.70630	5.06
3.72297	5.06
3.73963	5.06
3.75630	5.06
3.77297	5.06
3.78963	5.06
3.80630	5.06
3.82297	5.06
3.83963	5.06
3.85630	5.06
3.87297	5.06
3.88963	5.06
3.90630	5.06
3.92297	5.06
3.93963	5.06
3.95630	5.06
3.97297	5.06
3.98963	5.06

[Status Trace (Linear Velocity)]
Interval(msec)	1000
# of Points	240
Start Time(min)	0.006
End Time(min)	3.990
Intensity Units	
Intensity Multiplier	1
R.Time (min)	Intensity
0.00630	39.01
0.02297	37.41
0.03963	38.21
0.05630	39.66
0.07297	40.08
0.08963	39.11
0.10630	38.99
0.12297	39.01
0.13963	39.02
0.15630	39.01
0.17297	39.01
0.18963	39.01
0.20630	39.01
0.22297	39.01
0.23963	39.01
0.25630	39.01
0.27297	39.01
0.28963	39.01
0.30630	39.01
0.32297	39.01
0.33963	39.01
0.35630	39.01
0.37297	39.01
0.38963	39.01
0.40630	39.01
0.42297	39.01
0.43963	39.01
0.45630	39.01
0.47297	39.01
0.48963	39.01
0.50630	39.01
0.52297	39.01
0.53963	39.01
0.55630	39.01
0.57297	39.01
0.58963	39.01
0.60630	39.01
0.62297	39.01
0.63963	39.01
0.65630	39.01
0.67297	39.01
0.68963	39.01
0.70630	39.01
0.72297	39.01
0.73963	39.01
0.75630	39.01
0.77297	39.01
0.78963	39.01
0.80630	39.01
0.82297	39.01
0.83963	39.01
0.85630	39.01
0.87297	39.01
0.88963	39.01
0.90630	39.01
0.92297	39.01
0.93963	39.01
0.95630	39.01
0.97297	39.01
0.98963	39.01
1.00630	39.01
1.02297	39.01
1.03963	39.01
1.05630	39.01
1.07297	39.01
1.08963	39.01
1.10630	39.01
1.12297	39.01
1.13963	39.01
1.15630	39.01
1.17297	39.01
1.18963	39.01
1.20630	39.01
1.22297	39.01
1.23963	39.01
1.25630	39.01
1.27297	39.01
1.28963	39.01
1.30630	39.01
1.32297	39.01
1.33963	39.01
1.35630	39.01
1.37297	39.01
1.38963	39.01
1.40630	39.01
1.42297	39.01
1.43963	39.01
1.45630	39.01
1.47297	39.01
1.48963	39.01
1.50630	39.01
1.52297	39.01
1.53963	39.01
1.55630	39.01
1.57297	39.01
1.58963	39.01
1.60630	39.01
1.62297	39.00
1.63963	38.98
1.65630	38.96
1.67297	38.93
1.68963	38.89
1.70630	38.86
1.72297	38.82
1.73963	38.79
1.75630	38.76
1.77297	38.73
1.78963	38.70
1.80630	38.67
1.82297	38.64
1.83963	38.60
1.85630	38.57
1.87297	38.54
1.88963	38.51
1.90630	38.48
1.92297	38.45
1.93963	38.42
1.95630	38.39
1.97297	38.36
1.98963	38.33
2.00630	38.30
2.02297	38.27
2.03963	38.24
2.05630	38.21
2.07297	38.18
2.08963	38.15
2.10630	38.12
2.12297	38.09
2.13963	38.06
2.15630	38.03
2.17297	38.00
2.18963	37.97
2.20630	37.94
2.22297	37.91
2.23963	37.88
2.25630	37.85
2.27297	37.82
2.28963	37.79
2.30630	37.77
2.32297	37.74
2.33963	37.71
2.35630	37.68
2.37297	37.66
2.38963	37.65
2.40630	37.65
2.42297	37.66
2.43963	37.66
2.45630	37.66
2.47297	37.65
2.48963	37.65
2.50630	37.65
2.52297	37.64
2.53963	37.65
2.55630	37.65
2.57297	37.65
2.58963	37.64
2.60630	37.64
2.62297	37.64
2.63963	37.64
2.65630	37.64
2.67297	37.64
2.68963	37.64
2.70630	37.64
2.72297	37.64
2.73963	37.64
2.75630	37.64
2.77297	37.64
2.78963	37.64
2.80630	37.64
2.82297	37.64
2.83963	37.64
2.85630	37.64
2.87297	37.64
2.88963	37.64
2.90630	37.63
2.92297	37.63
2.93963	37.63
2.95630	37.63
2.97297	37.63
2.98963	37.63
3.00630	37.63
3.02297	37.63
3.03963	37.63
3.05630	37.63
3.07297	37.63
3.08963	37.63
3.10630	37.63
3.12297	37.63
3.13963	37.63
3.15630	37.63
3.17297	37.63
3.18963	37.63
3.20630	37.62
3.22297	37.62
3.23963	37.62
3.25630	37.62
3.27297	37.62
3.28963	37.62
3.30630	37.62
3.32297	37.62
3.33963	37.62
3.35630	37.62
3.37297	37.62
3.38963	37.62
3.40630	37.62
3.42297	37.62
3.43963	37.62
3.45630	37.62
3.47297	37.62
3.48963	37.62
3.50630	37.62
3.52297	37.62
3.53963	37.62
3.55630	37.63
3.57297	37.63
3.58963	37.63
3.60630	37.63
3.62297	37.63
3.63963	37.63
3.65630	37.63
3.67297	37.63
3.68963	37.63
3.70630	37.63
3.72297	37.63
3.73963	37.63
3.75630	37.63
3.77297	37.63
3.78963	37.63
3.80630	37.63
3.82297	37.62
3.83963	37.62
3.85630	37.62
3.87297	37.62
3.88963	37.62
3.90630	37.62
3.92297	37.62
3.93963	37.62
3.95630	37.62
3.97297	37.63
3.98963	37.62

