[Header]
Application Name	LabSolutions
Version	5.110
Data File Name	C:\Users\User\Desktop\Junior\UIC Prairie Sampling\7.18.23\071823_004.gcd
Output Date	8/29/2023
Output Time	10:40:19 AM

[File Information]
Type	Data File
Generated	8/28/2023 2:37:32 PM
Generated by	System Administrator
Modified	8/28/2023 2:44:10 PM
Modified by	System Administrator

[Sample Information]
Operator Name	System Administrator
Acquired	8/28/2023 2:40:10 PM
Sample Type	0:Unknown
Level	0
Sample Name	004
Sample ID	004
ISTD Amount1	1
ISTD Amount2	1
ISTD Amount3	1
ISTD Amount4	1
ISTD Amount5	1
ISTD Amount6	1
ISTD Amount7	1
ISTD Amount8	1
ISTD Amount9	1
ISTD Amount10	1
ISTD Amount11	1
ISTD Amount12	1
ISTD Amount13	1
ISTD Amount14	1
ISTD Amount15	1
ISTD Amount16	1
ISTD Amount17	1
ISTD Amount18	1
ISTD Amount19	1
ISTD Amount20	1
ISTD Amount21	1
ISTD Amount22	1
ISTD Amount23	1
ISTD Amount24	1
ISTD Amount25	1
ISTD Amount26	1
ISTD Amount27	1
ISTD Amount28	1
ISTD Amount29	1
ISTD Amount30	1
ISTD Amount31	1
ISTD Amount32	1
Sample Amount	1
Dilution Factor	1
Vial#	3
Injection Volume	1
Injection Count	1
Bar Code	

[Original Files]
Data File	C:\Users\User\Desktop\Junior\UIC Prairie Sampling\7.18.23\071823_004.gcd
Method File	C:\LabSolutions\Data\GHG_4min_2022\ghg3_togas_w_acet_4 min_new_int.gcm
Batch File	C:\LabSolutions\Data\BATCH FILES\071823.gcb
Report Format File	c:\LabSolutions\System\DEFAULT.lsr

[File Description]


[Configuration]
Instrument Name	C0B7VH3-Instrument1
Instrument #	1
Line #	1
# of Detectors	3
Detector ID	DET#1	DET#2	DET#3
Detector Name	FID	PTCD	ECD
# of Channels	1	1	1

[Peak Table(Ch1)]
# of Peaks	3
Peak#	R.Time	I.Time	F.Time	Area	Height	A/H	Conc.	Mark	ID#	Name	k'	Plate #	Plate Ht.	Tailing	Resolution	Sep.Factor	Area Ratio	Height Ratio	Conc. %	Norm Conc.
1	1.476	1.432	1.527	2522	1261	2.001	0.000	   	1	CO	0.000	9981	15.029	1.139	0.000	0.000	0	0	0.000	0.000
2	1.564	1.527	1.641	19565	10043	1.948	95.384	 V 	2	CH4	0.060	11683	12.839	1.174	1.505	0.000	0	0	19.770	19.770
3	1.989	1.941	2.590	2008599	965282	2.081	387.094	   	3	CO2	0.348	17553	8.545	1.317	7.214	5.833	0	0	80.230	80.230

[Peak Table(Ch2)]
# of Peaks	0

[Peak Table(Ch3)]
# of Peaks	4
Peak#	R.Time	I.Time	F.Time	Area	Height	A/H	Conc.	Mark	ID#	Name	k'	Plate #	Plate Ht.	Tailing	Resolution	Sep.Factor	Area Ratio	Height Ratio	Conc. %	Norm Conc.
1	2.466	2.396	2.543	1038	257	4.044	0.000	   			0.000	6480	23.147	0.000	0.000	0.000	0	0	0.000	0.000
2	2.587	2.543	2.671	491	126	3.908	0.000	 V 			0.049	6894	21.759	0.000	0.979	0.000	0	0	0.000	0.000
3	2.891	2.829	3.078	43183	11460	3.768	0.639	   	1	N2O	0.173	13126	11.427	1.595	2.699	3.515	0	0	100.000	100.000
4	3.415	3.335	3.782	6176	484	12.762	0.000	   			0.385	1485	100.994	2.806	2.303	2.233	0	0	0.000	0.000

[Compound Results(Ch1)]
# of IDs	6
ID#	Name	R.Time	Area	Height	Conc.	Curve	3rd	2nd	1st	Constant	Area Ratio	Height Ratio	Conc. %	Norm Conc.
1	CO	1.476	2522	1261	0.000	Linear	0.000000e+00	0.000000e+00	0.000000e+00	0.000000e+00	0	0	0.000	0.000
2	CH4	1.564	19565	10043	95.384	Linear	0.000000e+00	0.000000e+00	2.051179e+002	0.000000e+00	0	0	19.770	19.770
3	CO2	1.989	2008599	965282	387.094	Linear	0.000000e+00	0.000000e+00	5.188919e+003	0.000000e+00	0	0	80.230	80.230
4	Ethylene	0.000	0	0	0.000	Linear	0.000000e+00	0.000000e+00	0.000000e+00	0.000000e+00	0	0	0.000	0.000
5	Acetylene	0.000	0	0	0.000	Linear	0.000000e+00	0.000000e+00	0.000000e+00	0.000000e+00	0	0	0.000	0.000
6	Ethane	0.000	0	0	0.000	Linear	0.000000e+00	0.000000e+00	0.000000e+00	0.000000e+00	0	0	0.000	0.000

[Compound Results(Ch2)]
# of IDs	5
ID#	Name	R.Time	Area	Height	Conc.	Curve	3rd	2nd	1st	Constant	Area Ratio	Height Ratio	Conc. %	Norm Conc.
1	Hydrogen	0.000	0	0	0.000	Linear	0.000000e+00	0.000000e+00	0.000000e+00	0.000000e+00	0	0	0.000	0.000
2	Oxygen	0.000	0	0	0.000	Linear	0.000000e+00	0.000000e+00	0.000000e+00	0.000000e+00	0	0	0.000	0.000
3	Nitrogen	0.000	0	0	0.000	Linear	0.000000e+00	0.000000e+00	0.000000e+00	0.000000e+00	0	0	0.000	0.000
4	Methane	0.000	0	0	0.000	Linear	0.000000e+00	0.000000e+00	0.000000e+00	0.000000e+00	0	0	0.000	0.000
5	Carbon Monoxide	0.000	0	0	0.000	Linear	0.000000e+00	0.000000e+00	0.000000e+00	0.000000e+00	0	0	0.000	0.000

[Compound Results(Ch3)]
# of IDs	2
ID#	Name	R.Time	Area	Height	Conc.	Curve	3rd	2nd	1st	Constant	Area Ratio	Height Ratio	Conc. %	Norm Conc.
1	N2O	2.891	43183	11460	0.639	Linear	0.000000e+00	0.000000e+00	6.759880e+004	0.000000e+00	0	0	100.000	100.000
2	SF6	0.000	0	0	0.000	Linear	0.000000e+00	0.000000e+00	0.000000e+00	0.000000e+00	0	0	0.000	0.000

[Group Results(Ch1)]
# of Groups	0

[Group Results(Ch2)]
# of Groups	0

[Group Results(Ch3)]
# of Groups	0

[Chromatogram (Ch1)]
Interval(msec)	220
# of Points	1091
Start Time(min)	0.002
End Time(min)	3.998
R.Time (min)	Intensity
0.00167	0
0.00533	-1
0.00900	-2
0.01267	-3
0.01633	-1
0.02000	2
0.02367	5
0.02733	8
0.03100	10
0.03467	12
0.03833	14
0.04200	15
0.04567	15
0.04933	13
0.05300	14
0.05667	17
0.06033	20
0.06400	19
0.06767	17
0.07133	17
0.07500	19
0.07867	23
0.08233	26
0.08600	26
0.08967	24
0.09333	19
0.09700	12
0.10067	7
0.10433	2
0.10800	-1
0.11167	-3
0.11533	-3
0.11900	0
0.12267	0
0.12633	-2
0.13000	-4
0.13367	-6
0.13733	-5
0.14100	-1
0.14467	2
0.14833	3
0.15200	1
0.15567	-1
0.15933	-3
0.16300	-5
0.16667	-8
0.17033	-9
0.17400	-5
0.17767	2
0.18133	10
0.18500	19
0.18867	23
0.19233	24
0.19600	22
0.19967	20
0.20333	18
0.20700	14
0.21067	8
0.21433	5
0.21800	8
0.22167	13
0.22533	13
0.22900	9
0.23267	8
0.23633	8
0.24000	9
0.24367	11
0.24733	11
0.25100	12
0.25467	13
0.25833	12
0.26200	11
0.26567	9
0.26933	9
0.27300	8
0.27667	7
0.28033	5
0.28400	5
0.28767	7
0.29133	11
0.29500	12
0.29867	12
0.30233	13
0.30600	14
0.30967	17
0.31333	17
0.31700	14
0.32067	11
0.32433	8
0.32800	5
0.33167	3
0.33533	4
0.33900	7
0.34267	8
0.34633	8
0.35000	6
0.35367	4
0.35733	5
0.36100	8
0.36467	9
0.36833	7
0.37200	4
0.37567	1
0.37933	-1
0.38300	-0
0.38667	3
0.39033	3
0.39400	3
0.39767	6
0.40133	9
0.40500	11
0.40867	12
0.41233	10
0.41600	6
0.41967	4
0.42333	5
0.42700	7
0.43067	6
0.43433	5
0.43800	7
0.44167	8
0.44533	7
0.44900	4
0.45267	1
0.45633	-1
0.46000	-1
0.46367	-2
0.46733	-4
0.47100	-6
0.47467	-9
0.47833	-10
0.48200	-10
0.48567	-7
0.48933	-3
0.49300	-1
0.49667	-0
0.50033	3
0.50400	8
0.50767	11
0.51133	7
0.51500	1
0.51867	-1
0.52233	-2
0.52600	-4
0.52967	-6
0.53333	-8
0.53700	-9
0.54067	-10
0.54433	-8
0.54800	-6
0.55167	-3
0.55533	-1
0.55900	1
0.56267	2
0.56633	2
0.57000	1
0.57367	-1
0.57733	-4
0.58100	-6
0.58467	-8
0.58833	-9
0.59200	-5
0.59567	2
0.59933	10
0.60300	18
0.60667	24
0.61033	26
0.61400	25
0.61767	24
0.62133	23
0.62500	20
0.62867	15
0.63233	13
0.63600	14
0.63967	16
0.64333	22
0.64700	28
0.65067	30
0.65433	27
0.65800	20
0.66167	15
0.66533	12
0.66900	10
0.67267	7
0.67633	6
0.68000	7
0.68367	10
0.68733	14
0.69100	17
0.69467	21
0.69833	21
0.70200	17
0.70567	11
0.70933	7
0.71300	1
0.71667	-4
0.72033	-9
0.72400	-12
0.72767	-10
0.73133	-7
0.73500	-3
0.73867	1
0.74233	3
0.74600	4
0.74967	6
0.75333	10
0.75700	14
0.76067	15
0.76433	14
0.76800	12
0.77167	9
0.77533	6
0.77900	5
0.78267	5
0.78633	4
0.79000	-0
0.79367	-4
0.79733	-3
0.80100	0
0.80467	1
0.80833	-0
0.81200	-1
0.81567	-1
0.81933	2
0.82300	5
0.82667	8
0.83033	9
0.83400	9
0.83767	7
0.84133	7
0.84500	7
0.84867	5
0.85233	2
0.85600	-0
0.85967	1
0.86333	5
0.86700	9
0.87067	12
0.87433	12
0.87800	9
0.88167	6
0.88533	4
0.88900	4
0.89267	5
0.89633	5
0.90000	6
0.90367	8
0.90733	9
0.91100	8
0.91467	7
0.91833	6
0.92200	3
0.92567	1
0.92933	1
0.93300	4
0.93667	5
0.94033	4
0.94400	4
0.94767	4
0.95133	7
0.95500	9
0.95867	9
0.96233	8
0.96600	6
0.96967	6
0.97333	8
0.97700	12
0.98067	17
0.98433	21
0.98800	24
0.99167	28
0.99533	26
0.99900	19
1.00267	8
1.00633	-2
1.01000	-9
1.01367	-14
1.01733	-16
1.02100	-14
1.02467	-7
1.02833	-1
1.03200	-1
1.03567	-5
1.03933	-5
1.04300	-4
1.04667	0
1.05033	5
1.05400	8
1.05767	10
1.06133	9
1.06500	5
1.06867	-1
1.07233	-7
1.07600	-7
1.07967	-5
1.08333	-3
1.08700	-1
1.09067	1
1.09433	2
1.09800	2
1.10167	3
1.10533	2
1.10900	-1
1.11267	-2
1.11633	-0
1.12000	2
1.12367	3
1.12733	1
1.13100	-2
1.13467	-3
1.13833	-1
1.14200	3
1.14567	5
1.14933	6
1.15300	5
1.15667	5
1.16033	4
1.16400	1
1.16767	1
1.17133	2
1.17500	4
1.17867	7
1.18233	10
1.18600	11
1.18967	10
1.19333	8
1.19700	2
1.20067	-4
1.20433	-9
1.20800	-14
1.21167	-19
1.21533	-25
1.21900	-27
1.22267	-23
1.22633	-17
1.23000	-12
1.23367	-11
1.23733	-13
1.24100	-15
1.24467	-15
1.24833	-14
1.25200	-6
1.25567	4
1.25933	9
1.26300	8
1.26667	2
1.27033	-4
1.27400	-11
1.27767	-17
1.28133	-20
1.28500	-20
1.28867	-17
1.29233	-15
1.29600	-11
1.29967	-6
1.30333	-3
1.30700	-3
1.31067	-5
1.31433	-10
1.31800	-14
1.32167	-14
1.32533	-14
1.32900	-12
1.33267	-11
1.33633	-10
1.34000	-11
1.34367	-12
1.34733	-11
1.35100	-8
1.35467	-6
1.35833	-2
1.36200	2
1.36567	3
1.36933	2
1.37300	0
1.37667	1
1.38033	6
1.38400	10
1.38767	11
1.39133	8
1.39500	5
1.39867	6
1.40233	12
1.40600	17
1.40967	21
1.41333	23
1.41700	22
1.42067	22
1.42433	22
1.42800	20
1.43167	21
1.43533	32
1.43900	55
1.44267	67
1.44633	82
1.45000	169
1.45367	353
1.45733	586
1.46100	815
1.46467	1015
1.46833	1175
1.47200	1273
1.47567	1277
1.47933	1176
1.48300	998
1.48667	792
1.49033	595
1.49400	428
1.49767	299
1.50133	208
1.50500	147
1.50867	108
1.51233	80
1.51600	58
1.51967	39
1.52333	25
1.52700	19
1.53067	40
1.53433	185
1.53800	700
1.54167	1853
1.54533	3612
1.54900	5610
1.55267	7443
1.55633	8876
1.56000	9790
1.56367	10049
1.56733	9541
1.57100	8342
1.57467	6747
1.57833	5110
1.58200	3678
1.58567	2550
1.58933	1721
1.59300	1140
1.59667	746
1.60033	486
1.60400	316
1.60767	203
1.61133	128
1.61500	79
1.61867	48
1.62233	29
1.62600	18
1.62967	11
1.63333	6
1.63700	1
1.64067	-2
1.64433	-2
1.64800	1
1.65167	4
1.65533	4
1.65900	2
1.66267	-1
1.66633	-3
1.67000	-5
1.67367	-9
1.67733	-12
1.68100	-13
1.68467	-14
1.68833	-13
1.69200	-11
1.69567	-10
1.69933	-10
1.70300	-10
1.70667	-11
1.71033	-16
1.71400	-25
1.71767	-34
1.72133	-40
1.72500	-37
1.72867	-33
1.73233	-30
1.73600	-31
1.73967	-31
1.74333	-30
1.74700	-30
1.75067	-32
1.75433	-34
1.75800	-34
1.76167	-31
1.76533	-22
1.76900	-12
1.77267	-6
1.77633	-7
1.78000	-11
1.78367	-15
1.78733	-18
1.79100	-19
1.79467	-17
1.79833	-17
1.80200	-20
1.80567	-23
1.80933	-24
1.81300	-22
1.81667	-21
1.82033	-21
1.82400	-21
1.82767	-19
1.83133	-19
1.83500	-20
1.83867	-19
1.84233	-15
1.84600	-14
1.84967	-15
1.85333	-16
1.85700	-18
1.86067	-20
1.86433	-22
1.86800	-22
1.87167	-23
1.87533	-25
1.87900	-29
1.88267	-33
1.88633	-32
1.89000	-24
1.89367	-16
1.89733	-13
1.90100	-11
1.90467	-11
1.90833	-12
1.91200	-11
1.91567	-10
1.91933	-9
1.92300	-10
1.92667	-16
1.93033	-22
1.93400	-27
1.93767	-30
1.94133	-28
1.94500	-12
1.94867	92
1.95233	749
1.95600	4020
1.95967	16256
1.96333	50984
1.96700	126807
1.97067	255264
1.97433	427472
1.97800	615123
1.98167	784186
1.98533	906756
1.98900	965273
1.99267	953572
1.99633	877676
2.00000	755567
2.00367	611778
2.00733	469802
2.01100	345777
2.01467	246697
2.01833	172526
2.02200	119489
2.02567	82729
2.02933	57748
2.03300	40954
2.03667	29703
2.04033	22139
2.04400	17011
2.04767	13481
2.05133	11003
2.05500	9221
2.05867	7908
2.06233	6916
2.06600	6147
2.06967	5533
2.07333	5032
2.07700	4615
2.08067	4264
2.08433	3963
2.08800	3702
2.09167	3471
2.09533	3267
2.09900	3086
2.10267	2926
2.10633	2786
2.11000	2658
2.11367	2538
2.11733	2416
2.12100	2297
2.12467	2186
2.12833	2086
2.13200	1997
2.13567	1921
2.13933	1854
2.14300	1793
2.14667	1733
2.15033	1674
2.15400	1620
2.15767	1573
2.16133	1528
2.16500	1482
2.16867	1434
2.17233	1386
2.17600	1340
2.17967	1297
2.18333	1256
2.18700	1218
2.19067	1185
2.19433	1157
2.19800	1129
2.20167	1102
2.20533	1077
2.20900	1053
2.21267	1028
2.21633	1003
2.22000	978
2.22367	955
2.22733	933
2.23100	912
2.23467	893
2.23833	872
2.24200	850
2.24567	834
2.24933	822
2.25300	813
2.25667	797
2.26033	775
2.26400	752
2.26767	732
2.27133	714
2.27500	700
2.27867	688
2.28233	677
2.28600	668
2.28967	656
2.29333	641
2.29700	625
2.30067	611
2.30433	601
2.30800	592
2.31167	581
2.31533	570
2.31900	563
2.32267	556
2.32633	548
2.33000	542
2.33367	531
2.33733	514
2.34100	497
2.34467	485
2.34833	480
2.35200	478
2.35567	478
2.35933	477
2.36300	476
2.36667	470
2.37033	461
2.37400	451
2.37767	441
2.38133	434
2.38500	431
2.38867	429
2.39233	426
2.39600	420
2.39967	413
2.40333	407
2.40700	398
2.41067	387
2.41433	377
2.41800	367
2.42167	362
2.42533	359
2.42900	355
2.43267	353
2.43633	350
2.44000	346
2.44367	342
2.44733	341
2.45100	339
2.45467	334
2.45833	329
2.46200	327
2.46567	325
2.46933	320
2.47300	314
2.47667	310
2.48033	307
2.48400	303
2.48767	297
2.49133	292
2.49500	291
2.49867	291
2.50233	292
2.50600	288
2.50967	283
2.51333	282
2.51700	280
2.52067	275
2.52433	268
2.52800	263
2.53167	257
2.53533	251
2.53900	246
2.54267	242
2.54633	239
2.55000	237
2.55367	234
2.55733	230
2.56100	227
2.56467	225
2.56833	223
2.57200	224
2.57567	226
2.57933	228
2.58300	229
2.58667	230
2.59033	230
2.59400	228
2.59767	222
2.60133	216
2.60500	211
2.60867	209
2.61233	204
2.61600	198
2.61967	196
2.62333	195
2.62700	196
2.63067	198
2.63433	196
2.63800	188
2.64167	177
2.64533	170
2.64900	165
2.65267	162
2.65633	161
2.66000	161
2.66367	163
2.66733	164
2.67100	163
2.67467	161
2.67833	159
2.68200	160
2.68567	161
2.68933	161
2.69300	163
2.69667	164
2.70033	162
2.70400	158
2.70767	154
2.71133	150
2.71500	144
2.71867	138
2.72233	137
2.72600	139
2.72967	140
2.73333	139
2.73700	138
2.74067	137
2.74433	137
2.74800	140
2.75167	140
2.75533	139
2.75900	139
2.76267	140
2.76633	138
2.77000	133
2.77367	129
2.77733	125
2.78100	121
2.78467	115
2.78833	109
2.79200	108
2.79567	113
2.79933	118
2.80300	121
2.80667	121
2.81033	121
2.81400	122
2.81767	126
2.82133	129
2.82500	129
2.82867	123
2.83233	116
2.83600	111
2.83967	107
2.84333	102
2.84700	97
2.85067	93
2.85433	93
2.85800	92
2.86167	92
2.86533	93
2.86900	96
2.87267	101
2.87633	106
2.88000	108
2.88367	104
2.88733	100
2.89100	94
2.89467	88
2.89833	84
2.90200	84
2.90567	83
2.90933	83
2.91300	83
2.91667	79
2.92033	74
2.92400	76
2.92767	83
2.93133	90
2.93500	94
2.93867	94
2.94233	91
2.94600	89
2.94967	85
2.95333	80
2.95700	77
2.96067	76
2.96433	77
2.96800	77
2.97167	77
2.97533	77
2.97900	75
2.98267	74
2.98633	76
2.99000	76
2.99367	74
2.99733	75
3.00100	75
3.00467	76
3.00833	79
3.01200	82
3.01567	81
3.01933	79
3.02300	79
3.02667	82
3.03033	88
3.03400	94
3.03767	95
3.04133	91
3.04500	83
3.04867	74
3.05233	65
3.05600	60
3.05967	57
3.06333	55
3.06700	54
3.07067	52
3.07433	50
3.07800	50
3.08167	53
3.08533	58
3.08900	61
3.09267	63
3.09633	63
3.10000	61
3.10367	60
3.10733	58
3.11100	56
3.11467	54
3.11833	51
3.12200	49
3.12567	49
3.12933	50
3.13300	49
3.13667	47
3.14033	45
3.14400	46
3.14767	53
3.15133	63
3.15500	65
3.15867	61
3.16233	56
3.16600	51
3.16967	47
3.17333	42
3.17700	38
3.18067	35
3.18433	30
3.18800	28
3.19167	28
3.19533	30
3.19900	34
3.20267	38
3.20633	38
3.21000	37
3.21367	36
3.21733	36
3.22100	36
3.22467	36
3.22833	36
3.23200	34
3.23567	31
3.23933	29
3.24300	27
3.24667	26
3.25033	26
3.25400	30
3.25767	34
3.26133	37
3.26500	37
3.26867	37
3.27233	37
3.27600	38
3.27967	35
3.28333	30
3.28700	25
3.29067	21
3.29433	18
3.29800	17
3.30167	16
3.30533	15
3.30900	14
3.31267	12
3.31633	12
3.32000	11
3.32367	13
3.32733	17
3.33100	22
3.33467	24
3.33833	23
3.34200	19
3.34567	14
3.34933	11
3.35300	7
3.35667	3
3.36033	1
3.36400	3
3.36767	9
3.37133	16
3.37500	21
3.37867	25
3.38233	25
3.38600	24
3.38967	23
3.39333	23
3.39700	21
3.40067	17
3.40433	15
3.40800	15
3.41167	17
3.41533	17
3.41900	18
3.42267	20
3.42633	25
3.43000	30
3.43367	30
3.43733	26
3.44100	18
3.44467	10
3.44833	6
3.45200	6
3.45567	8
3.45933	10
3.46300	12
3.46667	13
3.47033	12
3.47400	13
3.47767	14
3.48133	14
3.48500	15
3.48867	17
3.49233	20
3.49600	21
3.49967	21
3.50333	20
3.50700	19
3.51067	18
3.51433	19
3.51800	18
3.52167	14
3.52533	7
3.52900	-1
3.53267	-5
3.53633	-7
3.54000	-8
3.54367	-11
3.54733	-14
3.55100	-13
3.55467	-9
3.55833	-5
3.56200	-3
3.56567	-2
3.56933	1
3.57300	3
3.57667	5
3.58033	5
3.58400	4
3.58767	6
3.59133	2
3.59500	-4
3.59867	-7
3.60233	-8
3.60600	-8
3.60967	-7
3.61333	-4
3.61700	2
3.62067	9
3.62433	17
3.62800	21
3.63167	19
3.63533	16
3.63900	11
3.64267	7
3.64633	2
3.65000	-4
3.65367	-9
3.65733	-13
3.66100	-13
3.66467	-10
3.66833	-8
3.67200	-10
3.67567	-12
3.67933	-15
3.68300	-18
3.68667	-18
3.69033	-17
3.69400	-16
3.69767	-15
3.70133	-13
3.70500	-13
3.70867	-14
3.71233	-17
3.71600	-18
3.71967	-16
3.72333	-12
3.72700	-7
3.73067	-4
3.73433	-5
3.73800	-9
3.74167	-14
3.74533	-16
3.74900	-17
3.75267	-17
3.75633	-16
3.76000	-13
3.76367	-8
3.76733	-2
3.77100	2
3.77467	-2
3.77833	-6
3.78200	-5
3.78567	-3
3.78933	1
3.79300	5
3.79667	9
3.80033	8
3.80400	3
3.80767	-0
3.81133	-3
3.81500	-3
3.81867	-4
3.82233	-4
3.82600	-5
3.82967	-7
3.83333	-7
3.83700	-7
3.84067	-8
3.84433	-11
3.84800	-15
3.85167	-18
3.85533	-17
3.85900	-12
3.86267	-9
3.86633	-6
3.87000	-2
3.87367	4
3.87733	6
3.88100	7
3.88467	6
3.88833	2
3.89200	-2
3.89567	-6
3.89933	-11
3.90300	-17
3.90667	-22
3.91033	-23
3.91400	-22
3.91767	-19
3.92133	-14
3.92500	-9
3.92867	-7
3.93233	-10
3.93600	-17
3.93967	-23
3.94333	-23
3.94700	-19
3.95067	-15
3.95433	-13
3.95800	-15
3.96167	-18
3.96533	-20
3.96900	-21
3.97267	-18
3.97633	-13
3.98000	-10
3.98367	-12
3.98733	-14
3.99100	-13
3.99467	-11
3.99833	-14

[Chromatogram (Ch2)]
Interval(msec)	220
# of Points	1091
Start Time(min)	0.002
End Time(min)	3.998
R.Time (min)	Intensity
0.00167	-0
0.00533	-1
0.00900	-1
0.01267	-1
0.01633	-1
0.02000	-2
0.02367	-2
0.02733	-1
0.03100	-1
0.03467	-1
0.03833	-1
0.04200	-1
0.04567	-1
0.04933	-1
0.05300	-2
0.05667	-2
0.06033	-2
0.06400	-2
0.06767	-2
0.07133	-2
0.07500	-2
0.07867	-2
0.08233	-2
0.08600	-1
0.08967	-1
0.09333	-1
0.09700	-1
0.10067	-0
0.10433	-0
0.10800	-0
0.11167	-0
0.11533	-0
0.11900	-0
0.12267	-0
0.12633	-1
0.13000	-1
0.13367	-1
0.13733	-1
0.14100	-1
0.14467	-1
0.14833	-1
0.15200	-1
0.15567	-1
0.15933	-1
0.16300	-1
0.16667	-2
0.17033	-2
0.17400	-2
0.17767	-3
0.18133	-3
0.18500	-3
0.18867	-3
0.19233	-3
0.19600	-3
0.19967	-3
0.20333	-3
0.20700	-3
0.21067	-3
0.21433	-2
0.21800	-2
0.22167	-2
0.22533	-2
0.22900	-2
0.23267	-1
0.23633	-1
0.24000	-1
0.24367	-1
0.24733	-2
0.25100	-2
0.25467	-2
0.25833	-2
0.26200	-2
0.26567	-1
0.26933	-1
0.27300	-2
0.27667	-2
0.28033	-2
0.28400	-2
0.28767	-2
0.29133	-2
0.29500	-2
0.29867	-2
0.30233	-2
0.30600	-2
0.30967	-2
0.31333	-2
0.31700	-2
0.32067	-2
0.32433	-2
0.32800	-2
0.33167	-2
0.33533	-2
0.33900	-2
0.34267	-1
0.34633	-1
0.35000	-1
0.35367	-1
0.35733	-1
0.36100	-2
0.36467	-2
0.36833	-2
0.37200	-2
0.37567	-3
0.37933	-3
0.38300	-2
0.38667	-2
0.39033	-2
0.39400	-2
0.39767	-2
0.40133	-2
0.40500	-2
0.40867	-2
0.41233	-2
0.41600	-2
0.41967	-2
0.42333	-2
0.42700	-2
0.43067	-3
0.43433	-3
0.43800	-3
0.44167	-3
0.44533	-3
0.44900	-3
0.45267	-4
0.45633	-4
0.46000	-3
0.46367	-3
0.46733	-3
0.47100	-4
0.47467	-4
0.47833	-4
0.48200	-4
0.48567	-4
0.48933	-4
0.49300	-4
0.49667	-4
0.50033	-3
0.50400	-3
0.50767	-2
0.51133	-2
0.51500	-2
0.51867	-2
0.52233	-2
0.52600	-2
0.52967	-2
0.53333	-2
0.53700	-2
0.54067	-2
0.54433	-2
0.54800	-2
0.55167	-2
0.55533	-2
0.55900	-2
0.56267	-2
0.56633	-2
0.57000	-2
0.57367	-2
0.57733	-2
0.58100	-2
0.58467	-3
0.58833	-3
0.59200	-3
0.59567	-3
0.59933	-3
0.60300	-4
0.60667	-4
0.61033	-4
0.61400	-4
0.61767	-4
0.62133	-4
0.62500	-5
0.62867	-5
0.63233	-5
0.63600	-4
0.63967	-4
0.64333	-4
0.64700	-4
0.65067	-4
0.65433	-4
0.65800	-4
0.66167	-4
0.66533	-4
0.66900	-3
0.67267	-3
0.67633	-3
0.68000	-3
0.68367	-2
0.68733	-2
0.69100	-2
0.69467	-2
0.69833	-2
0.70200	-2
0.70567	-2
0.70933	-2
0.71300	-2
0.71667	-3
0.72033	-3
0.72400	-3
0.72767	-3
0.73133	-3
0.73500	-3
0.73867	-4
0.74233	-4
0.74600	-4
0.74967	-4
0.75333	-4
0.75700	-4
0.76067	-4
0.76433	-3
0.76800	-3
0.77167	-3
0.77533	-3
0.77900	-3
0.78267	-3
0.78633	-3
0.79000	-3
0.79367	-3
0.79733	-3
0.80100	-4
0.80467	-4
0.80833	-4
0.81200	-4
0.81567	-4
0.81933	-4
0.82300	-4
0.82667	-4
0.83033	-4
0.83400	-4
0.83767	-4
0.84133	-4
0.84500	-4
0.84867	-4
0.85233	-3
0.85600	-3
0.85967	-3
0.86333	-3
0.86700	-3
0.87067	-3
0.87433	-3
0.87800	-3
0.88167	-3
0.88533	-3
0.88900	-3
0.89267	-3
0.89633	-3
0.90000	-3
0.90367	-3
0.90733	-4
0.91100	-3
0.91467	-3
0.91833	-3
0.92200	-3
0.92567	-3
0.92933	-3
0.93300	-3
0.93667	-3
0.94033	-3
0.94400	-3
0.94767	-3
0.95133	-4
0.95500	-4
0.95867	-4
0.96233	-4
0.96600	-4
0.96967	-4
0.97333	-4
0.97700	-4
0.98067	-3
0.98433	-3
0.98800	-3
0.99167	-3
0.99533	-3
0.99900	-3
1.00267	-3
1.00633	-4
1.01000	-4
1.01367	-4
1.01733	-4
1.02100	-4
1.02467	-4
1.02833	-4
1.03200	-4
1.03567	-4
1.03933	-4
1.04300	-4
1.04667	-4
1.05033	-4
1.05400	-4
1.05767	-4
1.06133	-4
1.06500	-4
1.06867	-4
1.07233	-4
1.07600	-4
1.07967	-5
1.08333	-5
1.08700	-5
1.09067	-5
1.09433	-5
1.09800	-5
1.10167	-5
1.10533	-5
1.10900	-5
1.11267	-5
1.11633	-5
1.12000	-5
1.12367	-5
1.12733	-5
1.13100	-5
1.13467	-5
1.13833	-5
1.14200	-5
1.14567	-5
1.14933	-5
1.15300	-5
1.15667	-5
1.16033	-4
1.16400	-4
1.16767	-4
1.17133	-4
1.17500	-4
1.17867	-4
1.18233	-4
1.18600	-4
1.18967	-4
1.19333	-4
1.19700	-4
1.20067	-4
1.20433	-4
1.20800	-4
1.21167	-4
1.21533	-4
1.21900	-4
1.22267	-4
1.22633	-4
1.23000	-4
1.23367	-4
1.23733	-4
1.24100	-4
1.24467	-4
1.24833	-4
1.25200	-4
1.25567	-4
1.25933	-4
1.26300	-4
1.26667	-4
1.27033	-4
1.27400	-3
1.27767	-4
1.28133	-4
1.28500	-4
1.28867	-4
1.29233	-5
1.29600	-5
1.29967	-5
1.30333	-5
1.30700	-5
1.31067	-5
1.31433	-5
1.31800	-5
1.32167	-5
1.32533	-5
1.32900	-5
1.33267	-5
1.33633	-5
1.34000	-5
1.34367	-5
1.34733	-5
1.35100	-5
1.35467	-5
1.35833	-6
1.36200	-6
1.36567	-6
1.36933	-7
1.37300	-7
1.37667	-7
1.38033	-7
1.38400	-8
1.38767	-7
1.39133	-7
1.39500	-7
1.39867	-8
1.40233	-8
1.40600	-8
1.40967	-8
1.41333	-8
1.41700	-8
1.42067	-8
1.42433	-8
1.42800	-7
1.43167	-7
1.43533	-7
1.43900	-6
1.44267	-5
1.44633	-5
1.45000	-4
1.45367	-4
1.45733	-3
1.46100	-3
1.46467	-3
1.46833	-3
1.47200	-3
1.47567	-2
1.47933	-2
1.48300	-2
1.48667	-2
1.49033	-2
1.49400	-2
1.49767	-2
1.50133	-2
1.50500	-2
1.50867	-2
1.51233	-2
1.51600	-3
1.51967	-3
1.52333	-3
1.52700	-3
1.53067	-3
1.53433	-3
1.53800	-2
1.54167	-2
1.54533	-3
1.54900	-3
1.55267	-3
1.55633	-3
1.56000	-3
1.56367	-4
1.56733	-4
1.57100	-4
1.57467	-4
1.57833	-4
1.58200	-4
1.58567	-4
1.58933	-5
1.59300	-5
1.59667	-5
1.60033	-6
1.60400	-7
1.60767	-9
1.61133	-10
1.61500	-12
1.61867	-14
1.62233	-17
1.62600	-19
1.62967	-22
1.63333	-25
1.63700	-28
1.64067	-31
1.64433	-34
1.64800	-38
1.65167	-41
1.65533	-45
1.65900	-48
1.66267	-52
1.66633	-56
1.67000	-60
1.67367	-65
1.67733	-70
1.68100	-75
1.68467	-79
1.68833	-83
1.69200	-87
1.69567	-90
1.69933	-92
1.70300	-94
1.70667	-95
1.71033	-96
1.71400	-96
1.71767	-97
1.72133	-97
1.72500	-97
1.72867	-97
1.73233	-97
1.73600	-97
1.73967	-98
1.74333	-99
1.74700	-99
1.75067	-100
1.75433	-101
1.75800	-102
1.76167	-103
1.76533	-103
1.76900	-103
1.77267	-102
1.77633	-102
1.78000	-102
1.78367	-101
1.78733	-101
1.79100	-101
1.79467	-102
1.79833	-102
1.80200	-102
1.80567	-103
1.80933	-103
1.81300	-103
1.81667	-103
1.82033	-102
1.82400	-102
1.82767	-102
1.83133	-101
1.83500	-101
1.83867	-101
1.84233	-101
1.84600	-101
1.84967	-101
1.85333	-102
1.85700	-102
1.86067	-103
1.86433	-103
1.86800	-103
1.87167	-103
1.87533	-102
1.87900	-102
1.88267	-102
1.88633	-101
1.89000	-101
1.89367	-101
1.89733	-101
1.90100	-101
1.90467	-101
1.90833	-101
1.91200	-101
1.91567	-101
1.91933	-101
1.92300	-100
1.92667	-99
1.93033	-99
1.93400	-98
1.93767	-97
1.94133	-97
1.94500	-96
1.94867	-96
1.95233	-96
1.95600	-96
1.95967	-96
1.96333	-95
1.96700	-95
1.97067	-95
1.97433	-94
1.97800	-94
1.98167	-94
1.98533	-94
1.98900	-94
1.99267	-94
1.99633	-94
2.00000	-94
2.00367	-94
2.00733	-95
2.01100	-95
2.01467	-95
2.01833	-95
2.02200	-95
2.02567	-94
2.02933	-94
2.03300	-93
2.03667	-93
2.04033	-93
2.04400	-93
2.04767	-92
2.05133	-92
2.05500	-91
2.05867	-91
2.06233	-91
2.06600	-91
2.06967	-90
2.07333	-90
2.07700	-90
2.08067	-90
2.08433	-89
2.08800	-89
2.09167	-88
2.09533	-88
2.09900	-87
2.10267	-86
2.10633	-85
2.11000	-85
2.11367	-84
2.11733	-84
2.12100	-84
2.12467	-84
2.12833	-84
2.13200	-84
2.13567	-84
2.13933	-84
2.14300	-84
2.14667	-83
2.15033	-83
2.15400	-82
2.15767	-81
2.16133	-81
2.16500	-81
2.16867	-81
2.17233	-82
2.17600	-81
2.17967	-81
2.18333	-80
2.18700	-80
2.19067	-79
2.19433	-79
2.19800	-79
2.20167	-79
2.20533	-79
2.20900	-80
2.21267	-80
2.21633	-79
2.22000	-79
2.22367	-78
2.22733	-78
2.23100	-77
2.23467	-76
2.23833	-76
2.24200	-75
2.24567	-74
2.24933	-73
2.25300	-72
2.25667	-72
2.26033	-71
2.26400	-71
2.26767	-71
2.27133	-72
2.27500	-72
2.27867	-74
2.28233	-75
2.28600	-75
2.28967	-75
2.29333	-76
2.29700	-75
2.30067	-75
2.30433	-75
2.30800	-75
2.31167	-74
2.31533	-74
2.31900	-73
2.32267	-72
2.32633	-71
2.33000	-71
2.33367	-70
2.33733	-69
2.34100	-69
2.34467	-69
2.34833	-68
2.35200	-67
2.35567	-66
2.35933	-64
2.36300	-63
2.36667	-61
2.37033	-59
2.37400	-57
2.37767	-54
2.38133	-51
2.38500	-47
2.38867	-43
2.39233	-39
2.39600	-35
2.39967	-30
2.40333	-26
2.40700	-22
2.41067	-18
2.41433	-14
2.41800	-11
2.42167	-8
2.42533	-6
2.42900	-4
2.43267	-2
2.43633	-1
2.44000	1
2.44367	3
2.44733	4
2.45100	5
2.45467	6
2.45833	7
2.46200	7
2.46567	7
2.46933	8
2.47300	8
2.47667	8
2.48033	9
2.48400	11
2.48767	12
2.49133	13
2.49500	14
2.49867	14
2.50233	15
2.50600	15
2.50967	15
2.51333	15
2.51700	15
2.52067	15
2.52433	16
2.52800	16
2.53167	16
2.53533	17
2.53900	17
2.54267	17
2.54633	16
2.55000	15
2.55367	14
2.55733	13
2.56100	12
2.56467	11
2.56833	10
2.57200	10
2.57567	10
2.57933	11
2.58300	11
2.58667	11
2.59033	12
2.59400	12
2.59767	13
2.60133	13
2.60500	14
2.60867	15
2.61233	15
2.61600	16
2.61967	17
2.62333	17
2.62700	18
2.63067	19
2.63433	19
2.63800	20
2.64167	20
2.64533	20
2.64900	20
2.65267	20
2.65633	20
2.66000	21
2.66367	21
2.66733	22
2.67100	22
2.67467	23
2.67833	23
2.68200	23
2.68567	24
2.68933	24
2.69300	24
2.69667	25
2.70033	25
2.70400	25
2.70767	25
2.71133	24
2.71500	24
2.71867	24
2.72233	25
2.72600	25
2.72967	25
2.73333	25
2.73700	25
2.74067	25
2.74433	25
2.74800	26
2.75167	26
2.75533	26
2.75900	26
2.76267	27
2.76633	27
2.77000	27
2.77367	26
2.77733	26
2.78100	25
2.78467	25
2.78833	25
2.79200	24
2.79567	24
2.79933	24
2.80300	23
2.80667	23
2.81033	23
2.81400	24
2.81767	24
2.82133	24
2.82500	24
2.82867	24
2.83233	24
2.83600	25
2.83967	25
2.84333	25
2.84700	25
2.85067	25
2.85433	24
2.85800	23
2.86167	21
2.86533	16
2.86900	9
2.87267	-3
2.87633	-19
2.88000	-40
2.88367	-67
2.88733	-101
2.89100	-142
2.89467	-189
2.89833	-243
2.90200	-303
2.90567	-369
2.90933	-441
2.91300	-518
2.91667	-599
2.92033	-685
2.92400	-774
2.92767	-867
2.93133	-962
2.93500	-1061
2.93867	-1161
2.94233	-1263
2.94600	-1367
2.94967	-1465
2.95333	-1543
2.95700	-1591
2.96067	-1599
2.96433	-1570
2.96800	-1507
2.97167	-1420
2.97533	-1316
2.97900	-1203
2.98267	-1087
2.98633	-972
2.99000	-863
2.99367	-761
2.99733	-666
3.00100	-581
3.00467	-504
3.00833	-436
3.01200	-375
3.01567	-322
3.01933	-276
3.02300	-235
3.02667	-200
3.03033	-170
3.03400	-144
3.03767	-122
3.04133	-103
3.04500	-87
3.04867	-73
3.05233	-61
3.05600	-51
3.05967	-42
3.06333	-35
3.06700	-28
3.07067	-23
3.07433	-18
3.07800	-14
3.08167	-10
3.08533	-7
3.08900	-4
3.09267	-2
3.09633	-0
3.10000	1
3.10367	3
3.10733	4
3.11100	5
3.11467	6
3.11833	7
3.12200	8
3.12567	9
3.12933	10
3.13300	11
3.13667	11
3.14033	12
3.14400	12
3.14767	13
3.15133	13
3.15500	14
3.15867	14
3.16233	15
3.16600	15
3.16967	15
3.17333	16
3.17700	16
3.18067	16
3.18433	16
3.18800	17
3.19167	17
3.19533	17
3.19900	17
3.20267	17
3.20633	17
3.21000	17
3.21367	18
3.21733	18
3.22100	18
3.22467	19
3.22833	19
3.23200	20
3.23567	20
3.23933	20
3.24300	21
3.24667	21
3.25033	21
3.25400	21
3.25767	22
3.26133	22
3.26500	22
3.26867	23
3.27233	23
3.27600	24
3.27967	24
3.28333	24
3.28700	25
3.29067	25
3.29433	25
3.29800	25
3.30167	25
3.30533	25
3.30900	25
3.31267	25
3.31633	25
3.32000	25
3.32367	25
3.32733	25
3.33100	25
3.33467	25
3.33833	25
3.34200	25
3.34567	25
3.34933	25
3.35300	25
3.35667	25
3.36033	25
3.36400	25
3.36767	25
3.37133	25
3.37500	25
3.37867	25
3.38233	25
3.38600	25
3.38967	26
3.39333	26
3.39700	26
3.40067	26
3.40433	26
3.40800	26
3.41167	26
3.41533	26
3.41900	27
3.42267	27
3.42633	27
3.43000	27
3.43367	27
3.43733	27
3.44100	26
3.44467	26
3.44833	26
3.45200	26
3.45567	27
3.45933	27
3.46300	27
3.46667	27
3.47033	27
3.47400	26
3.47767	26
3.48133	26
3.48500	26
3.48867	26
3.49233	26
3.49600	26
3.49967	27
3.50333	27
3.50700	27
3.51067	27
3.51433	27
3.51800	27
3.52167	27
3.52533	27
3.52900	27
3.53267	27
3.53633	27
3.54000	27
3.54367	27
3.54733	27
3.55100	27
3.55467	27
3.55833	27
3.56200	27
3.56567	27
3.56933	28
3.57300	28
3.57667	28
3.58033	28
3.58400	28
3.58767	28
3.59133	28
3.59500	28
3.59867	28
3.60233	28
3.60600	28
3.60967	28
3.61333	28
3.61700	28
3.62067	29
3.62433	29
3.62800	29
3.63167	29
3.63533	29
3.63900	29
3.64267	29
3.64633	29
3.65000	29
3.65367	29
3.65733	29
3.66100	29
3.66467	29
3.66833	29
3.67200	29
3.67567	29
3.67933	28
3.68300	28
3.68667	28
3.69033	28
3.69400	28
3.69767	27
3.70133	27
3.70500	27
3.70867	27
3.71233	28
3.71600	28
3.71967	28
3.72333	28
3.72700	28
3.73067	28
3.73433	28
3.73800	28
3.74167	27
3.74533	27
3.74900	27
3.75267	27
3.75633	27
3.76000	27
3.76367	27
3.76733	27
3.77100	27
3.77467	27
3.77833	27
3.78200	27
3.78567	27
3.78933	27
3.79300	27
3.79667	27
3.80033	27
3.80400	27
3.80767	27
3.81133	27
3.81500	26
3.81867	27
3.82233	27
3.82600	27
3.82967	27
3.83333	27
3.83700	27
3.84067	27
3.84433	27
3.84800	27
3.85167	27
3.85533	27
3.85900	27
3.86267	27
3.86633	27
3.87000	27
3.87367	27
3.87733	27
3.88100	27
3.88467	28
3.88833	28
3.89200	28
3.89567	27
3.89933	27
3.90300	27
3.90667	27
3.91033	27
3.91400	27
3.91767	27
3.92133	27
3.92500	27
3.92867	27
3.93233	27
3.93600	27
3.93967	28
3.94333	28
3.94700	28
3.95067	28
3.95433	28
3.95800	28
3.96167	28
3.96533	28
3.96900	28
3.97267	28
3.97633	28
3.98000	29
3.98367	29
3.98733	29
3.99100	29
3.99467	28
3.99833	28

[Chromatogram (Ch3)]
Interval(msec)	220
# of Points	1091
Start Time(min)	0.002
End Time(min)	3.998
R.Time (min)	Intensity
0.00167	-0
0.00533	-0
0.00900	1
0.01267	-1
0.01633	-4
0.02000	-8
0.02367	-11
0.02733	-12
0.03100	-8
0.03467	-3
0.03833	-2
0.04200	-4
0.04567	-3
0.04933	-2
0.05300	-2
0.05667	-4
0.06033	-5
0.06400	-6
0.06767	-6
0.07133	-7
0.07500	-3
0.07867	2
0.08233	2
0.08600	-0
0.08967	-2
0.09333	-2
0.09700	-5
0.10067	-9
0.10433	-13
0.10800	-13
0.11167	-10
0.11533	-9
0.11900	-9
0.12267	-6
0.12633	-5
0.13000	-2
0.13367	-1
0.13733	-1
0.14100	-1
0.14467	-3
0.14833	-4
0.15200	-4
0.15567	-5
0.15933	-6
0.16300	-6
0.16667	-9
0.17033	-14
0.17400	-15
0.17767	-13
0.18133	-11
0.18500	-9
0.18867	-6
0.19233	-5
0.19600	-6
0.19967	-3
0.20333	0
0.20700	0
0.21067	-0
0.21433	-2
0.21800	-4
0.22167	-3
0.22533	-2
0.22900	1
0.23267	1
0.23633	3
0.24000	5
0.24367	4
0.24733	2
0.25100	-1
0.25467	-2
0.25833	-5
0.26200	-7
0.26567	-6
0.26933	-6
0.27300	-7
0.27667	-9
0.28033	-10
0.28400	-11
0.28767	-11
0.29133	-10
0.29500	-9
0.29867	-9
0.30233	-8
0.30600	-10
0.30967	-13
0.31333	-12
0.31700	-14
0.32067	-14
0.32433	-14
0.32800	-13
0.33167	-11
0.33533	-10
0.33900	-9
0.34267	-9
0.34633	-12
0.35000	-14
0.35367	-15
0.35733	-13
0.36100	-13
0.36467	-12
0.36833	-11
0.37200	-10
0.37567	-9
0.37933	-10
0.38300	-13
0.38667	-15
0.39033	-14
0.39400	-10
0.39767	-11
0.40133	-12
0.40500	-13
0.40867	-14
0.41233	-17
0.41600	-17
0.41967	-14
0.42333	-11
0.42700	-9
0.43067	-8
0.43433	-6
0.43800	-4
0.44167	-6
0.44533	-8
0.44900	-9
0.45267	-7
0.45633	-5
0.46000	-3
0.46367	-1
0.46733	-0
0.47100	-3
0.47467	-4
0.47833	-6
0.48200	-8
0.48567	-12
0.48933	-14
0.49300	-15
0.49667	-13
0.50033	-11
0.50400	-9
0.50767	-10
0.51133	-9
0.51500	-10
0.51867	-11
0.52233	-9
0.52600	-8
0.52967	-9
0.53333	-13
0.53700	-16
0.54067	-20
0.54433	-21
0.54800	-18
0.55167	-15
0.55533	-16
0.55900	-15
0.56267	-12
0.56633	-11
0.57000	-9
0.57367	-8
0.57733	-9
0.58100	-6
0.58467	-4
0.58833	-6
0.59200	-9
0.59567	-11
0.59933	-11
0.60300	-12
0.60667	-13
0.61033	-13
0.61400	-13
0.61767	-13
0.62133	-10
0.62500	-10
0.62867	-11
0.63233	-13
0.63600	-13
0.63967	-12
0.64333	-10
0.64700	-4
0.65067	-1
0.65433	-2
0.65800	-4
0.66167	-6
0.66533	-7
0.66900	-5
0.67267	-3
0.67633	-0
0.68000	0
0.68367	-1
0.68733	-6
0.69100	-7
0.69467	-7
0.69833	-7
0.70200	-7
0.70567	-9
0.70933	-11
0.71300	-11
0.71667	-11
0.72033	-9
0.72400	-6
0.72767	-4
0.73133	-3
0.73500	-1
0.73867	-1
0.74233	-1
0.74600	-2
0.74967	-4
0.75333	-5
0.75700	-6
0.76067	-5
0.76433	-7
0.76800	-9
0.77167	-12
0.77533	-13
0.77900	-10
0.78267	-6
0.78633	-3
0.79000	-1
0.79367	-3
0.79733	-5
0.80100	-4
0.80467	-5
0.80833	-5
0.81200	-6
0.81567	-7
0.81933	-6
0.82300	-4
0.82667	-4
0.83033	-5
0.83400	-5
0.83767	-9
0.84133	-12
0.84500	-14
0.84867	-13
0.85233	-12
0.85600	-13
0.85967	-12
0.86333	-13
0.86700	-12
0.87067	-12
0.87433	-13
0.87800	-14
0.88167	-15
0.88533	-14
0.88900	-12
0.89267	-13
0.89633	-13
0.90000	-11
0.90367	-11
0.90733	-13
0.91100	-14
0.91467	-14
0.91833	-13
0.92200	-13
0.92567	-13
0.92933	-13
0.93300	-11
0.93667	-9
0.94033	-10
0.94400	-13
0.94767	-13
0.95133	-11
0.95500	-11
0.95867	-9
0.96233	-7
0.96600	-8
0.96967	-7
0.97333	-9
0.97700	-11
0.98067	-12
0.98433	-13
0.98800	-14
0.99167	-15
0.99533	-16
0.99900	-17
1.00267	-14
1.00633	-13
1.01000	-15
1.01367	-17
1.01733	-17
1.02100	-18
1.02467	-18
1.02833	-18
1.03200	-16
1.03567	-13
1.03933	-7
1.04300	-5
1.04667	-8
1.05033	-11
1.05400	-11
1.05767	-11
1.06133	-12
1.06500	-13
1.06867	-12
1.07233	-11
1.07600	-11
1.07967	-8
1.08333	-6
1.08700	-6
1.09067	-8
1.09433	-11
1.09800	-11
1.10167	-9
1.10533	-9
1.10900	-10
1.11267	-12
1.11633	-15
1.12000	-16
1.12367	-16
1.12733	-15
1.13100	-13
1.13467	-13
1.13833	-13
1.14200	-15
1.14567	-15
1.14933	-14
1.15300	-14
1.15667	-14
1.16033	-17
1.16400	-20
1.16767	-22
1.17133	-20
1.17500	-17
1.17867	-15
1.18233	-13
1.18600	-11
1.18967	-11
1.19333	-14
1.19700	-17
1.20067	-18
1.20433	-19
1.20800	-19
1.21167	-17
1.21533	-15
1.21900	-14
1.22267	-13
1.22633	-14
1.23000	-14
1.23367	-12
1.23733	-10
1.24100	-9
1.24467	-11
1.24833	-12
1.25200	-13
1.25567	-12
1.25933	-9
1.26300	-10
1.26667	-12
1.27033	-13
1.27400	-12
1.27767	-10
1.28133	-7
1.28500	-7
1.28867	-11
1.29233	-14
1.29600	-14
1.29967	-14
1.30333	-14
1.30700	-12
1.31067	-12
1.31433	-12
1.31800	-14
1.32167	-12
1.32533	-11
1.32900	-14
1.33267	-12
1.33633	-12
1.34000	-14
1.34367	-15
1.34733	-14
1.35100	-16
1.35467	-16
1.35833	-13
1.36200	-12
1.36567	-14
1.36933	-16
1.37300	-15
1.37667	-15
1.38033	-15
1.38400	-13
1.38767	-10
1.39133	-8
1.39500	-7
1.39867	-5
1.40233	-4
1.40600	-7
1.40967	-9
1.41333	-9
1.41700	-7
1.42067	-5
1.42433	-7
1.42800	-7
1.43167	-7
1.43533	-6
1.43900	-5
1.44267	-6
1.44633	-7
1.45000	-8
1.45367	-9
1.45733	-9
1.46100	-9
1.46467	-9
1.46833	-8
1.47200	-7
1.47567	-5
1.47933	-3
1.48300	-4
1.48667	-4
1.49033	-2
1.49400	-2
1.49767	-4
1.50133	-4
1.50500	-4
1.50867	-3
1.51233	-2
1.51600	-2
1.51967	-3
1.52333	-3
1.52700	-1
1.53067	-2
1.53433	-3
1.53800	-4
1.54167	-5
1.54533	-7
1.54900	-6
1.55267	-7
1.55633	-7
1.56000	-7
1.56367	-7
1.56733	-7
1.57100	-9
1.57467	-10
1.57833	-10
1.58200	-7
1.58567	-5
1.58933	-7
1.59300	-9
1.59667	-10
1.60033	-12
1.60400	-15
1.60767	-14
1.61133	-15
1.61500	-17
1.61867	-16
1.62233	-13
1.62600	-11
1.62967	-12
1.63333	-14
1.63700	-17
1.64067	-19
1.64433	-18
1.64800	-16
1.65167	-14
1.65533	-16
1.65900	-13
1.66267	-10
1.66633	-10
1.67000	-8
1.67367	-7
1.67733	-5
1.68100	-2
1.68467	-2
1.68833	-2
1.69200	-2
1.69567	-1
1.69933	-1
1.70300	-5
1.70667	-9
1.71033	-10
1.71400	-10
1.71767	-10
1.72133	-12
1.72500	-14
1.72867	-12
1.73233	-12
1.73600	-11
1.73967	-7
1.74333	-2
1.74700	-1
1.75067	-2
1.75433	-4
1.75800	-5
1.76167	-7
1.76533	-7
1.76900	-4
1.77267	-4
1.77633	-3
1.78000	-0
1.78367	2
1.78733	1
1.79100	-2
1.79467	-3
1.79833	-3
1.80200	-2
1.80567	-1
1.80933	-2
1.81300	-1
1.81667	2
1.82033	5
1.82400	8
1.82767	6
1.83133	3
1.83500	2
1.83867	2
1.84233	2
1.84600	1
1.84967	2
1.85333	4
1.85700	3
1.86067	3
1.86433	5
1.86800	7
1.87167	8
1.87533	10
1.87900	9
1.88267	7
1.88633	8
1.89000	11
1.89367	13
1.89733	15
1.90100	17
1.90467	18
1.90833	16
1.91200	13
1.91567	11
1.91933	12
1.92300	13
1.92667	13
1.93033	12
1.93400	13
1.93767	15
1.94133	18
1.94500	21
1.94867	25
1.95233	27
1.95600	28
1.95967	28
1.96333	25
1.96700	24
1.97067	24
1.97433	23
1.97800	22
1.98167	21
1.98533	21
1.98900	22
1.99267	24
1.99633	24
2.00000	26
2.00367	26
2.00733	24
2.01100	25
2.01467	27
2.01833	27
2.02200	29
2.02567	31
2.02933	32
2.03300	32
2.03667	31
2.04033	32
2.04400	33
2.04767	33
2.05133	32
2.05500	31
2.05867	30
2.06233	30
2.06600	31
2.06967	29
2.07333	28
2.07700	29
2.08067	32
2.08433	33
2.08800	36
2.09167	38
2.09533	40
2.09900	39
2.10267	38
2.10633	35
2.11000	33
2.11367	35
2.11733	37
2.12100	37
2.12467	38
2.12833	36
2.13200	33
2.13567	29
2.13933	28
2.14300	31
2.14667	33
2.15033	34
2.15400	32
2.15767	29
2.16133	30
2.16500	33
2.16867	35
2.17233	38
2.17600	40
2.17967	40
2.18333	42
2.18700	43
2.19067	43
2.19433	42
2.19800	44
2.20167	45
2.20533	45
2.20900	45
2.21267	44
2.21633	40
2.22000	39
2.22367	41
2.22733	43
2.23100	48
2.23467	49
2.23833	48
2.24200	47
2.24567	45
2.24933	44
2.25300	46
2.25667	50
2.26033	52
2.26400	53
2.26767	55
2.27133	57
2.27500	59
2.27867	60
2.28233	63
2.28600	65
2.28967	65
2.29333	63
2.29700	61
2.30067	59
2.30433	58
2.30800	59
2.31167	62
2.31533	67
2.31900	68
2.32267	68
2.32633	66
2.33000	66
2.33367	68
2.33733	71
2.34100	70
2.34467	68
2.34833	66
2.35200	67
2.35567	67
2.35933	66
2.36300	70
2.36667	72
2.37033	72
2.37400	72
2.37767	72
2.38133	71
2.38500	65
2.38867	60
2.39233	63
2.39600	70
2.39967	78
2.40333	85
2.40700	91
2.41067	95
2.41433	100
2.41800	104
2.42167	107
2.42533	107
2.42900	106
2.43267	104
2.43633	101
2.44000	105
2.44367	139
2.44733	196
2.45100	252
2.45467	290
2.45833	308
2.46200	319
2.46567	321
2.46933	313
2.47300	296
2.47667	277
2.48033	256
2.48400	236
2.48767	222
2.49133	218
2.49500	219
2.49867	222
2.50233	223
2.50600	220
2.50967	214
2.51333	204
2.51700	189
2.52067	173
2.52433	159
2.52800	148
2.53167	138
2.53533	128
2.53900	120
2.54267	120
2.54633	123
2.55000	122
2.55367	122
2.55733	128
2.56100	137
2.56467	145
2.56833	155
2.57200	164
2.57567	170
2.57933	174
2.58300	178
2.58667	180
2.59033	173
2.59400	163
2.59767	156
2.60133	149
2.60500	142
2.60867	134
2.61233	127
2.61600	116
2.61967	105
2.62333	98
2.62700	92
2.63067	90
2.63433	87
2.63800	81
2.64167	73
2.64533	64
2.64900	59
2.65267	55
2.65633	55
2.66000	55
2.66367	53
2.66733	50
2.67100	47
2.67467	43
2.67833	41
2.68200	41
2.68567	41
2.68933	44
2.69300	44
2.69667	46
2.70033	52
2.70400	56
2.70767	58
2.71133	60
2.71500	63
2.71867	69
2.72233	75
2.72600	79
2.72967	83
2.73333	88
2.73700	93
2.74067	96
2.74433	97
2.74800	101
2.75167	106
2.75533	109
2.75900	107
2.76267	105
2.76633	107
2.77000	109
2.77367	110
2.77733	111
2.78100	109
2.78467	107
2.78833	108
2.79200	105
2.79567	102
2.79933	100
2.80300	97
2.80667	93
2.81033	93
2.81400	92
2.81767	89
2.82133	87
2.82500	88
2.82867	89
2.83233	95
2.83600	117
2.83967	172
2.84333	292
2.84700	523
2.85067	910
2.85433	1506
2.85800	2337
2.86167	3405
2.86533	4674
2.86900	6065
2.87267	7478
2.87633	8812
2.88000	9959
2.88367	10829
2.88733	11371
2.89100	11570
2.89467	11454
2.89833	11075
2.90200	10497
2.90567	9790
2.90933	9007
2.91300	8196
2.91667	7390
2.92033	6612
2.92400	5889
2.92767	5225
2.93133	4618
2.93500	4070
2.93867	3578
2.94233	3139
2.94600	2748
2.94967	2403
2.95333	2102
2.95700	1839
2.96067	1610
2.96433	1409
2.96800	1237
2.97167	1086
2.97533	958
2.97900	847
2.98267	751
2.98633	666
2.99000	589
2.99367	525
2.99733	470
3.00100	425
3.00467	384
3.00833	350
3.01200	323
3.01567	298
3.01933	277
3.02300	259
3.02667	244
3.03033	232
3.03400	223
3.03767	215
3.04133	210
3.04500	205
3.04867	198
3.05233	189
3.05600	184
3.05967	183
3.06333	180
3.06700	176
3.07067	173
3.07433	173
3.07800	171
3.08167	173
3.08533	174
3.08900	175
3.09267	176
3.09633	173
3.10000	171
3.10367	171
3.10733	173
3.11100	174
3.11467	178
3.11833	181
3.12200	182
3.12567	181
3.12933	182
3.13300	184
3.13667	186
3.14033	186
3.14400	183
3.14767	181
3.15133	182
3.15500	185
3.15867	183
3.16233	180
3.16600	178
3.16967	175
3.17333	174
3.17700	175
3.18067	177
3.18433	176
3.18800	173
3.19167	172
3.19533	172
3.19900	173
3.20267	173
3.20633	173
3.21000	174
3.21367	173
3.21733	172
3.22100	172
3.22467	170
3.22833	168
3.23200	166
3.23567	167
3.23933	170
3.24300	171
3.24667	171
3.25033	170
3.25400	167
3.25767	166
3.26133	165
3.26500	162
3.26867	157
3.27233	153
3.27600	153
3.27967	155
3.28333	157
3.28700	156
3.29067	156
3.29433	158
3.29800	158
3.30167	156
3.30533	155
3.30900	156
3.31267	154
3.31633	152
3.32000	149
3.32367	145
3.32733	140
3.33100	142
3.33467	148
3.33833	160
3.34200	178
3.34567	203
3.34933	239
3.35300	283
3.35667	328
3.36033	373
3.36400	415
3.36767	458
3.37133	499
3.37500	533
3.37867	563
3.38233	589
3.38600	611
3.38967	630
3.39333	646
3.39700	659
3.40067	672
3.40433	682
3.40800	690
3.41167	697
3.41533	703
3.41900	706
3.42267	706
3.42633	703
3.43000	703
3.43367	705
3.43733	703
3.44100	697
3.44467	693
3.44833	692
3.45200	690
3.45567	687
3.45933	685
3.46300	681
3.46667	679
3.47033	676
3.47400	674
3.47767	671
3.48133	666
3.48500	662
3.48867	657
3.49233	651
3.49600	645
3.49967	639
3.50333	634
3.50700	633
3.51067	632
3.51433	631
3.51800	629
3.52167	627
3.52533	624
3.52900	620
3.53267	613
3.53633	609
3.54000	608
3.54367	607
3.54733	604
3.55100	601
3.55467	600
3.55833	602
3.56200	601
3.56567	601
3.56933	599
3.57300	597
3.57667	593
3.58033	592
3.58400	592
3.58767	591
3.59133	587
3.59500	583
3.59867	581
3.60233	578
3.60600	577
3.60967	575
3.61333	572
3.61700	570
3.62067	571
3.62433	568
3.62800	562
3.63167	556
3.63533	555
3.63900	557
3.64267	557
3.64633	553
3.65000	551
3.65367	549
3.65733	548
3.66100	548
3.66467	547
3.66833	543
3.67200	541
3.67567	540
3.67933	540
3.68300	540
3.68667	542
3.69033	542
3.69400	540
3.69767	536
3.70133	538
3.70500	540
3.70867	542
3.71233	542
3.71600	542
3.71967	541
3.72333	539
3.72700	538
3.73067	538
3.73433	538
3.73800	539
3.74167	537
3.74533	536
3.74900	536
3.75267	538
3.75633	540
3.76000	540
3.76367	540
3.76733	540
3.77100	540
3.77467	540
3.77833	540
3.78200	540
3.78567	537
3.78933	531
3.79300	533
3.79667	534
3.80033	530
3.80400	528
3.80767	528
3.81133	527
3.81500	524
3.81867	521
3.82233	522
3.82600	523
3.82967	526
3.83333	528
3.83700	526
3.84067	522
3.84433	516
3.84800	511
3.85167	509
3.85533	509
3.85900	508
3.86267	508
3.86633	510
3.87000	513
3.87367	513
3.87733	511
3.88100	508
3.88467	508
3.88833	509
3.89200	509
3.89567	509
3.89933	508
3.90300	508
3.90667	505
3.91033	504
3.91400	503
3.91767	500
3.92133	497
3.92500	497
3.92867	495
3.93233	491
3.93600	488
3.93967	486
3.94333	486
3.94700	489
3.95067	490
3.95433	491
3.95800	491
3.96167	490
3.96533	489
3.96900	486
3.97267	486
3.97633	484
3.98000	483
3.98367	482
3.98733	480
3.99100	477
3.99467	473
3.99833	465

[Status Trace (Column Oven Temperature)]
Interval(msec)	1000
# of Points	240
Start Time(min)	0.015
End Time(min)	3.998
Intensity Units	
Intensity Multiplier	1
R.Time (min)	Intensity
0.01463	35.02
0.03130	35.02
0.04797	35.02
0.06463	35.02
0.08130	35.02
0.09797	35.02
0.11463	35.02
0.13130	35.02
0.14797	35.02
0.16463	35.02
0.18130	35.03
0.19797	35.03
0.21463	35.03
0.23130	35.02
0.24797	35.02
0.26463	35.02
0.28130	35.02
0.29797	35.01
0.31463	35.02
0.33130	35.01
0.34797	35.01
0.36463	35.01
0.38130	35.01
0.39797	35.00
0.41463	35.00
0.43130	35.00
0.44797	35.01
0.46463	35.01
0.48130	35.01
0.49797	35.02
0.51463	35.01
0.53130	35.00
0.54797	35.00
0.56463	34.99
0.58130	34.99
0.59797	35.00
0.61463	35.01
0.63130	35.01
0.64797	35.01
0.66463	35.01
0.68130	35.01
0.69797	35.01
0.71463	35.01
0.73130	35.01
0.74797	35.01
0.76463	35.00
0.78130	35.01
0.79797	35.01
0.81463	35.01
0.83130	35.00
0.84797	35.01
0.86463	35.01
0.88130	35.01
0.89797	35.00
0.91463	35.00
0.93130	35.00
0.94797	35.00
0.96463	35.00
0.98130	34.99
0.99797	34.99
1.01463	34.99
1.03130	34.99
1.04797	34.99
1.06463	35.00
1.08130	35.00
1.09797	35.01
1.11463	35.01
1.13130	35.01
1.14797	35.01
1.16463	35.00
1.18130	34.99
1.19797	35.00
1.21463	34.99
1.23130	34.98
1.24797	34.99
1.26463	34.99
1.28130	34.99
1.29797	34.98
1.31463	34.98
1.33130	34.98
1.34797	34.98
1.36463	35.00
1.38130	35.02
1.39797	35.03
1.41463	35.04
1.43130	35.04
1.44797	35.04
1.46463	35.02
1.48130	35.01
1.49797	35.00
1.51463	35.00
1.53130	34.99
1.54797	34.99
1.56463	34.99
1.58130	35.00
1.59797	35.02
1.61463	35.10
1.63130	35.24
1.64797	35.44
1.66463	35.72
1.68130	36.08
1.69797	36.45
1.71463	36.80
1.73130	37.13
1.74797	37.47
1.76463	37.79
1.78130	38.12
1.79797	38.45
1.81463	38.79
1.83130	39.12
1.84797	39.45
1.86463	39.78
1.88130	40.10
1.89797	40.43
1.91463	40.77
1.93130	41.08
1.94797	41.41
1.96463	41.72
1.98130	42.04
1.99797	42.38
2.01463	42.70
2.03130	43.04
2.04797	43.36
2.06463	43.69
2.08130	44.02
2.09797	44.34
2.11463	44.66
2.13130	45.00
2.14797	45.32
2.16463	45.65
2.18130	45.97
2.19797	46.30
2.21463	46.64
2.23130	46.97
2.24797	47.28
2.26463	47.59
2.28130	47.94
2.29797	48.29
2.31463	48.63
2.33130	48.95
2.34797	49.27
2.36463	49.52
2.38130	49.66
2.39797	49.68
2.41463	49.67
2.43130	49.68
2.44797	49.67
2.46463	49.71
2.48130	49.72
2.49797	49.73
2.51463	49.76
2.53130	49.76
2.54797	49.78
2.56463	49.80
2.58130	49.81
2.59797	49.82
2.61463	49.84
2.63130	49.84
2.64797	49.86
2.66463	49.86
2.68130	49.84
2.69797	49.85
2.71463	49.86
2.73130	49.86
2.74797	49.85
2.76463	49.84
2.78130	49.88
2.79797	49.90
2.81463	49.91
2.83130	49.92
2.84797	49.92
2.86463	49.93
2.88130	49.95
2.89797	49.95
2.91463	49.95
2.93130	49.96
2.94797	49.96
2.96463	49.97
2.98130	49.97
2.99797	49.98
3.01463	49.99
3.03130	50.00
3.04797	50.00
3.06463	50.01
3.08130	50.02
3.09797	50.03
3.11463	50.04
3.13130	50.05
3.14797	50.05
3.16463	50.06
3.18130	50.07
3.19797	50.08
3.21463	50.09
3.23130	50.10
3.24797	50.10
3.26463	50.10
3.28130	50.09
3.29797	50.08
3.31463	50.07
3.33130	50.07
3.34797	50.08
3.36463	50.08
3.38130	50.08
3.39797	50.08
3.41463	50.08
3.43130	50.08
3.44797	50.09
3.46463	50.09
3.48130	50.10
3.49797	50.10
3.51463	50.10
3.53130	50.10
3.54797	50.10
3.56463	50.09
3.58130	50.08
3.59797	50.08
3.61463	50.07
3.63130	50.06
3.64797	50.06
3.66463	50.05
3.68130	50.05
3.69797	50.06
3.71463	50.06
3.73130	50.06
3.74797	50.06
3.76463	50.06
3.78130	50.06
3.79797	50.06
3.81463	50.06
3.83130	50.06
3.84797	50.06
3.86463	50.06
3.88130	50.06
3.89797	50.06
3.91463	50.07
3.93130	50.06
3.94797	50.06
3.96463	50.06
3.98130	50.05
3.99797	50.05

[Status Trace (Injection Unit Temperature)]
Interval(msec)	1000
# of Points	240
Start Time(min)	0.015
End Time(min)	3.998
Intensity Units	
Intensity Multiplier	1
R.Time (min)	Intensity
0.01463	99.97
0.03130	99.98
0.04797	99.98
0.06463	99.98
0.08130	99.98
0.09797	99.98
0.11463	99.98
0.13130	99.98
0.14797	99.98
0.16463	99.98
0.18130	99.98
0.19797	99.99
0.21463	99.98
0.23130	99.98
0.24797	99.98
0.26463	99.98
0.28130	99.99
0.29797	99.98
0.31463	99.98
0.33130	99.98
0.34797	99.98
0.36463	99.98
0.38130	99.98
0.39797	99.98
0.41463	99.98
0.43130	99.98
0.44797	99.98
0.46463	99.98
0.48130	99.98
0.49797	99.98
0.51463	99.98
0.53130	99.98
0.54797	99.98
0.56463	99.98
0.58130	99.98
0.59797	99.98
0.61463	99.98
0.63130	99.98
0.64797	99.98
0.66463	99.98
0.68130	99.98
0.69797	99.98
0.71463	99.98
0.73130	99.98
0.74797	99.98
0.76463	99.98
0.78130	99.98
0.79797	99.98
0.81463	99.98
0.83130	99.98
0.84797	99.97
0.86463	99.97
0.88130	99.98
0.89797	99.97
0.91463	99.97
0.93130	99.98
0.94797	99.98
0.96463	99.98
0.98130	99.98
0.99797	99.98
1.01463	99.97
1.03130	99.97
1.04797	99.98
1.06463	99.98
1.08130	99.97
1.09797	99.98
1.11463	99.98
1.13130	99.98
1.14797	99.98
1.16463	99.98
1.18130	99.98
1.19797	99.97
1.21463	99.98
1.23130	99.98
1.24797	99.98
1.26463	99.98
1.28130	99.98
1.29797	99.98
1.31463	99.98
1.33130	99.98
1.34797	99.98
1.36463	99.98
1.38130	99.98
1.39797	99.98
1.41463	99.98
1.43130	99.98
1.44797	99.98
1.46463	99.98
1.48130	99.98
1.49797	99.98
1.51463	99.98
1.53130	99.98
1.54797	99.98
1.56463	99.98
1.58130	99.98
1.59797	99.98
1.61463	99.98
1.63130	99.98
1.64797	99.98
1.66463	99.98
1.68130	99.98
1.69797	99.98
1.71463	99.98
1.73130	99.98
1.74797	99.98
1.76463	99.98
1.78130	99.98
1.79797	99.98
1.81463	99.98
1.83130	99.98
1.84797	99.98
1.86463	99.98
1.88130	99.98
1.89797	99.97
1.91463	99.98
1.93130	99.97
1.94797	99.97
1.96463	99.97
1.98130	99.97
1.99797	99.97
2.01463	99.97
2.03130	99.97
2.04797	99.97
2.06463	99.97
2.08130	99.97
2.09797	99.97
2.11463	99.97
2.13130	99.97
2.14797	99.96
2.16463	99.96
2.18130	99.96
2.19797	99.96
2.21463	99.97
2.23130	99.96
2.24797	99.96
2.26463	99.96
2.28130	99.97
2.29797	99.97
2.31463	99.96
2.33130	99.96
2.34797	99.96
2.36463	99.97
2.38130	99.97
2.39797	99.96
2.41463	99.97
2.43130	99.97
2.44797	99.97
2.46463	99.97
2.48130	99.97
2.49797	99.97
2.51463	99.97
2.53130	99.97
2.54797	99.97
2.56463	99.97
2.58130	99.97
2.59797	99.97
2.61463	99.97
2.63130	99.97
2.64797	99.97
2.66463	99.97
2.68130	99.98
2.69797	99.98
2.71463	99.98
2.73130	99.98
2.74797	99.98
2.76463	99.98
2.78130	99.98
2.79797	99.98
2.81463	99.99
2.83130	99.99
2.84797	99.99
2.86463	99.99
2.88130	99.99
2.89797	99.99
2.91463	100.00
2.93130	100.00
2.94797	100.00
2.96463	100.00
2.98130	100.00
2.99797	100.00
3.01463	100.00
3.03130	100.00
3.04797	100.01
3.06463	100.01
3.08130	100.01
3.09797	100.01
3.11463	100.01
3.13130	100.01
3.14797	100.01
3.16463	100.02
3.18130	100.02
3.19797	100.02
3.21463	100.02
3.23130	100.02
3.24797	100.03
3.26463	100.02
3.28130	100.02
3.29797	100.03
3.31463	100.03
3.33130	100.03
3.34797	100.03
3.36463	100.03
3.38130	100.03
3.39797	100.03
3.41463	100.03
3.43130	100.03
3.44797	100.03
3.46463	100.04
3.48130	100.04
3.49797	100.04
3.51463	100.04
3.53130	100.04
3.54797	100.04
3.56463	100.04
3.58130	100.04
3.59797	100.04
3.61463	100.04
3.63130	100.04
3.64797	100.04
3.66463	100.05
3.68130	100.04
3.69797	100.05
3.71463	100.04
3.73130	100.05
3.74797	100.04
3.76463	100.04
3.78130	100.05
3.79797	100.05
3.81463	100.05
3.83130	100.05
3.84797	100.05
3.86463	100.05
3.88130	100.05
3.89797	100.05
3.91463	100.05
3.93130	100.05
3.94797	100.05
3.96463	100.05
3.98130	100.05
3.99797	100.04

[Status Trace (Carrier Gas Pressure)]
Interval(msec)	1000
# of Points	240
Start Time(min)	0.015
End Time(min)	3.998
Intensity Units	
Intensity Multiplier	1
R.Time (min)	Intensity
0.01463	57.25
0.03130	55.45
0.04797	57.96
0.06463	59.86
0.08130	58.75
0.09797	57.98
0.11463	58.00
0.13130	58.01
0.14797	58.01
0.16463	58.00
0.18130	58.00
0.19797	58.00
0.21463	58.00
0.23130	58.00
0.24797	58.00
0.26463	58.00
0.28130	58.00
0.29797	58.00
0.31463	58.00
0.33130	58.00
0.34797	58.00
0.36463	58.00
0.38130	58.00
0.39797	58.00
0.41463	58.00
0.43130	58.00
0.44797	58.00
0.46463	58.00
0.48130	58.00
0.49797	58.00
0.51463	58.00
0.53130	58.00
0.54797	58.00
0.56463	58.00
0.58130	58.00
0.59797	58.00
0.61463	58.00
0.63130	58.00
0.64797	58.00
0.66463	58.00
0.68130	58.00
0.69797	58.00
0.71463	58.00
0.73130	58.00
0.74797	58.00
0.76463	58.00
0.78130	58.00
0.79797	58.00
0.81463	58.00
0.83130	58.00
0.84797	58.00
0.86463	58.00
0.88130	58.00
0.89797	58.00
0.91463	58.00
0.93130	58.00
0.94797	58.00
0.96463	58.00
0.98130	58.00
0.99797	58.00
1.01463	58.00
1.03130	58.00
1.04797	58.00
1.06463	58.00
1.08130	58.00
1.09797	58.00
1.11463	58.00
1.13130	58.00
1.14797	58.00
1.16463	58.00
1.18130	58.00
1.19797	58.00
1.21463	58.00
1.23130	58.00
1.24797	58.00
1.26463	58.00
1.28130	58.00
1.29797	58.00
1.31463	58.00
1.33130	58.00
1.34797	58.00
1.36463	58.00
1.38130	58.00
1.39797	58.00
1.41463	58.00
1.43130	58.00
1.44797	58.00
1.46463	58.00
1.48130	58.00
1.49797	58.00
1.51463	58.00
1.53130	58.00
1.54797	58.00
1.56463	58.00
1.58130	58.00
1.59797	58.00
1.61463	58.00
1.63130	58.00
1.64797	58.00
1.66463	58.00
1.68130	58.01
1.69797	58.00
1.71463	58.00
1.73130	58.00
1.74797	58.00
1.76463	58.00
1.78130	58.00
1.79797	58.00
1.81463	58.00
1.83130	58.00
1.84797	58.00
1.86463	58.00
1.88130	58.00
1.89797	58.00
1.91463	58.00
1.93130	58.00
1.94797	58.00
1.96463	58.00
1.98130	58.00
1.99797	58.00
2.01463	58.00
2.03130	58.00
2.04797	58.00
2.06463	58.00
2.08130	58.00
2.09797	58.00
2.11463	58.00
2.13130	58.00
2.14797	58.00
2.16463	58.00
2.18130	58.00
2.19797	58.00
2.21463	58.00
2.23130	58.00
2.24797	58.00
2.26463	58.00
2.28130	58.00
2.29797	58.00
2.31463	58.00
2.33130	58.00
2.34797	58.00
2.36463	58.00
2.38130	57.99
2.39797	57.99
2.41463	58.00
2.43130	58.00
2.44797	58.00
2.46463	58.00
2.48130	58.00
2.49797	58.00
2.51463	57.99
2.53130	57.99
2.54797	58.00
2.56463	58.00
2.58130	58.00
2.59797	58.00
2.61463	58.00
2.63130	58.00
2.64797	58.00
2.66463	58.00
2.68130	58.00
2.69797	58.00
2.71463	58.00
2.73130	58.00
2.74797	58.00
2.76463	58.00
2.78130	58.00
2.79797	58.00
2.81463	58.00
2.83130	58.00
2.84797	58.00
2.86463	58.00
2.88130	58.00
2.89797	58.00
2.91463	58.00
2.93130	58.00
2.94797	58.00
2.96463	58.00
2.98130	58.00
2.99797	58.00
3.01463	58.00
3.03130	58.00
3.04797	58.00
3.06463	58.00
3.08130	58.00
3.09797	58.00
3.11463	58.00
3.13130	58.00
3.14797	58.00
3.16463	58.00
3.18130	58.00
3.19797	58.00
3.21463	58.00
3.23130	58.00
3.24797	58.00
3.26463	58.00
3.28130	58.00
3.29797	58.00
3.31463	58.00
3.33130	58.00
3.34797	58.00
3.36463	58.00
3.38130	58.00
3.39797	58.00
3.41463	58.00
3.43130	58.00
3.44797	58.00
3.46463	58.00
3.48130	58.00
3.49797	58.00
3.51463	58.00
3.53130	58.00
3.54797	58.00
3.56463	58.00
3.58130	58.00
3.59797	58.00
3.61463	58.00
3.63130	58.00
3.64797	58.00
3.66463	58.00
3.68130	58.00
3.69797	58.00
3.71463	58.00
3.73130	58.00
3.74797	58.00
3.76463	58.00
3.78130	58.00
3.79797	58.00
3.81463	58.00
3.83130	58.00
3.84797	58.00
3.86463	58.00
3.88130	58.00
3.89797	58.00
3.91463	58.00
3.93130	58.00
3.94797	58.00
3.96463	58.00
3.98130	58.00
3.99797	58.00

[Status Trace (Carrier Gas Flow)]
Interval(msec)	1000
# of Points	240
Start Time(min)	0.015
End Time(min)	3.998
Intensity Units	
Intensity Multiplier	1
R.Time (min)	Intensity
0.01463	33.85
0.03130	34.54
0.04797	34.54
0.06463	34.52
0.08130	34.50
0.09797	34.52
0.11463	34.52
0.13130	34.52
0.14797	34.52
0.16463	34.52
0.18130	34.52
0.19797	34.52
0.21463	34.52
0.23130	34.52
0.24797	34.51
0.26463	34.51
0.28130	34.52
0.29797	34.53
0.31463	34.51
0.33130	34.52
0.34797	34.53
0.36463	34.52
0.38130	34.51
0.39797	34.51
0.41463	34.52
0.43130	34.52
0.44797	34.52
0.46463	34.52
0.48130	34.52
0.49797	34.52
0.51463	34.52
0.53130	34.52
0.54797	34.52
0.56463	34.52
0.58130	34.52
0.59797	34.52
0.61463	34.52
0.63130	34.52
0.64797	34.52
0.66463	34.52
0.68130	34.51
0.69797	34.52
0.71463	34.52
0.73130	34.52
0.74797	34.52
0.76463	34.52
0.78130	34.52
0.79797	34.52
0.81463	34.51
0.83130	34.53
0.84797	34.52
0.86463	34.52
0.88130	34.52
0.89797	34.52
0.91463	34.52
0.93130	34.52
0.94797	34.52
0.96463	34.52
0.98130	34.53
0.99797	34.52
1.01463	34.52
1.03130	34.52
1.04797	34.52
1.06463	34.52
1.08130	34.52
1.09797	34.52
1.11463	34.52
1.13130	34.52
1.14797	34.52
1.16463	34.51
1.18130	34.52
1.19797	34.51
1.21463	34.52
1.23130	34.51
1.24797	34.52
1.26463	34.51
1.28130	34.52
1.29797	34.52
1.31463	34.52
1.33130	34.51
1.34797	34.52
1.36463	34.52
1.38130	34.51
1.39797	34.52
1.41463	34.52
1.43130	34.52
1.44797	34.52
1.46463	34.52
1.48130	34.52
1.49797	34.52
1.51463	34.52
1.53130	34.52
1.54797	34.52
1.56463	34.52
1.58130	34.52
1.59797	34.52
1.61463	34.51
1.63130	34.52
1.64797	34.52
1.66463	34.52
1.68130	34.52
1.69797	34.52
1.71463	34.52
1.73130	34.52
1.74797	34.52
1.76463	34.53
1.78130	34.51
1.79797	34.52
1.81463	34.52
1.83130	34.52
1.84797	34.51
1.86463	34.52
1.88130	34.52
1.89797	34.52
1.91463	34.52
1.93130	34.52
1.94797	34.52
1.96463	34.52
1.98130	34.51
1.99797	34.52
2.01463	34.52
2.03130	34.52
2.04797	34.52
2.06463	34.51
2.08130	34.52
2.09797	34.52
2.11463	34.52
2.13130	34.51
2.14797	34.52
2.16463	34.52
2.18130	34.52
2.19797	34.52
2.21463	34.52
2.23130	34.52
2.24797	34.52
2.26463	34.52
2.28130	34.52
2.29797	34.52
2.31463	34.52
2.33130	34.52
2.34797	34.52
2.36463	34.51
2.38130	34.52
2.39797	34.52
2.41463	34.52
2.43130	34.52
2.44797	34.51
2.46463	34.52
2.48130	34.52
2.49797	34.51
2.51463	34.51
2.53130	34.53
2.54797	34.52
2.56463	34.51
2.58130	34.52
2.59797	34.53
2.61463	34.52
2.63130	34.52
2.64797	34.52
2.66463	34.52
2.68130	34.51
2.69797	34.51
2.71463	34.52
2.73130	34.52
2.74797	34.52
2.76463	34.52
2.78130	34.52
2.79797	34.52
2.81463	34.52
2.83130	34.52
2.84797	34.52
2.86463	34.52
2.88130	34.52
2.89797	34.51
2.91463	34.53
2.93130	34.52
2.94797	34.51
2.96463	34.51
2.98130	34.52
2.99797	34.53
3.01463	34.51
3.03130	34.52
3.04797	34.52
3.06463	34.52
3.08130	34.52
3.09797	34.52
3.11463	34.52
3.13130	34.52
3.14797	34.52
3.16463	34.52
3.18130	34.52
3.19797	34.52
3.21463	34.52
3.23130	34.52
3.24797	34.52
3.26463	34.52
3.28130	34.52
3.29797	34.52
3.31463	34.52
3.33130	34.52
3.34797	34.52
3.36463	34.52
3.38130	34.52
3.39797	34.52
3.41463	34.51
3.43130	34.52
3.44797	34.52
3.46463	34.52
3.48130	34.52
3.49797	34.52
3.51463	34.52
3.53130	34.52
3.54797	34.52
3.56463	34.52
3.58130	34.52
3.59797	34.52
3.61463	34.52
3.63130	34.52
3.64797	34.52
3.66463	34.52
3.68130	34.52
3.69797	34.52
3.71463	34.52
3.73130	34.52
3.74797	34.52
3.76463	34.52
3.78130	34.52
3.79797	34.51
3.81463	34.52
3.83130	34.52
3.84797	34.52
3.86463	34.51
3.88130	34.52
3.89797	34.52
3.91463	34.52
3.93130	34.51
3.94797	34.52
3.96463	34.52
3.98130	34.52
3.99797	34.51

[Status Trace (Column Flow)]
Interval(msec)	1000
# of Points	240
Start Time(min)	0.015
End Time(min)	3.998
Intensity Units	
Intensity Multiplier	1
R.Time (min)	Intensity
0.01463	5.42
0.03130	5.22
0.04797	5.50
0.06463	5.73
0.08130	5.60
0.09797	5.51
0.11463	5.51
0.13130	5.51
0.14797	5.51
0.16463	5.51
0.18130	5.51
0.19797	5.51
0.21463	5.51
0.23130	5.51
0.24797	5.51
0.26463	5.51
0.28130	5.51
0.29797	5.51
0.31463	5.51
0.33130	5.51
0.34797	5.51
0.36463	5.51
0.38130	5.51
0.39797	5.51
0.41463	5.51
0.43130	5.51
0.44797	5.51
0.46463	5.51
0.48130	5.51
0.49797	5.51
0.51463	5.51
0.53130	5.51
0.54797	5.51
0.56463	5.51
0.58130	5.51
0.59797	5.51
0.61463	5.51
0.63130	5.51
0.64797	5.51
0.66463	5.51
0.68130	5.51
0.69797	5.51
0.71463	5.51
0.73130	5.51
0.74797	5.51
0.76463	5.51
0.78130	5.51
0.79797	5.51
0.81463	5.51
0.83130	5.51
0.84797	5.51
0.86463	5.51
0.88130	5.51
0.89797	5.51
0.91463	5.51
0.93130	5.51
0.94797	5.51
0.96463	5.51
0.98130	5.51
0.99797	5.51
1.01463	5.51
1.03130	5.51
1.04797	5.51
1.06463	5.51
1.08130	5.51
1.09797	5.51
1.11463	5.51
1.13130	5.51
1.14797	5.51
1.16463	5.51
1.18130	5.51
1.19797	5.51
1.21463	5.51
1.23130	5.51
1.24797	5.51
1.26463	5.51
1.28130	5.51
1.29797	5.51
1.31463	5.51
1.33130	5.51
1.34797	5.51
1.36463	5.51
1.38130	5.51
1.39797	5.51
1.41463	5.51
1.43130	5.51
1.44797	5.51
1.46463	5.51
1.48130	5.51
1.49797	5.51
1.51463	5.51
1.53130	5.51
1.54797	5.51
1.56463	5.51
1.58130	5.51
1.59797	5.51
1.61463	5.51
1.63130	5.50
1.64797	5.50
1.66463	5.49
1.68130	5.48
1.69797	5.47
1.71463	5.45
1.73130	5.44
1.74797	5.43
1.76463	5.42
1.78130	5.41
1.79797	5.40
1.81463	5.39
1.83130	5.38
1.84797	5.37
1.86463	5.36
1.88130	5.35
1.89797	5.34
1.91463	5.33
1.93130	5.32
1.94797	5.31
1.96463	5.30
1.98130	5.30
1.99797	5.29
2.01463	5.28
2.03130	5.27
2.04797	5.26
2.06463	5.25
2.08130	5.24
2.09797	5.23
2.11463	5.22
2.13130	5.21
2.14797	5.20
2.16463	5.19
2.18130	5.18
2.19797	5.17
2.21463	5.16
2.23130	5.15
2.24797	5.14
2.26463	5.14
2.28130	5.13
2.29797	5.12
2.31463	5.11
2.33130	5.10
2.34797	5.09
2.36463	5.08
2.38130	5.08
2.39797	5.08
2.41463	5.08
2.43130	5.08
2.44797	5.08
2.46463	5.08
2.48130	5.08
2.49797	5.08
2.51463	5.07
2.53130	5.07
2.54797	5.07
2.56463	5.07
2.58130	5.07
2.59797	5.07
2.61463	5.07
2.63130	5.07
2.64797	5.07
2.66463	5.07
2.68130	5.07
2.69797	5.07
2.71463	5.07
2.73130	5.07
2.74797	5.07
2.76463	5.07
2.78130	5.07
2.79797	5.07
2.81463	5.07
2.83130	5.07
2.84797	5.07
2.86463	5.07
2.88130	5.07
2.89797	5.07
2.91463	5.07
2.93130	5.07
2.94797	5.07
2.96463	5.07
2.98130	5.07
2.99797	5.07
3.01463	5.07
3.03130	5.07
3.04797	5.07
3.06463	5.07
3.08130	5.07
3.09797	5.07
3.11463	5.07
3.13130	5.07
3.14797	5.07
3.16463	5.07
3.18130	5.07
3.19797	5.07
3.21463	5.07
3.23130	5.07
3.24797	5.07
3.26463	5.07
3.28130	5.07
3.29797	5.07
3.31463	5.07
3.33130	5.07
3.34797	5.07
3.36463	5.07
3.38130	5.07
3.39797	5.07
3.41463	5.07
3.43130	5.07
3.44797	5.07
3.46463	5.07
3.48130	5.07
3.49797	5.07
3.51463	5.07
3.53130	5.07
3.54797	5.07
3.56463	5.07
3.58130	5.07
3.59797	5.07
3.61463	5.07
3.63130	5.07
3.64797	5.07
3.66463	5.07
3.68130	5.07
3.69797	5.07
3.71463	5.07
3.73130	5.07
3.74797	5.07
3.76463	5.07
3.78130	5.07
3.79797	5.07
3.81463	5.07
3.83130	5.07
3.84797	5.07
3.86463	5.07
3.88130	5.07
3.89797	5.07
3.91463	5.07
3.93130	5.07
3.94797	5.07
3.96463	5.07
3.98130	5.07
3.99797	5.07

[Status Trace (Linear Velocity)]
Interval(msec)	1000
# of Points	240
Start Time(min)	0.015
End Time(min)	3.998
Intensity Units	
Intensity Multiplier	1
R.Time (min)	Intensity
0.01463	38.52
0.03130	37.34
0.04797	38.98
0.06463	40.23
0.08130	39.50
0.09797	39.00
0.11463	39.01
0.13130	39.02
0.14797	39.02
0.16463	39.02
0.18130	39.01
0.19797	39.01
0.21463	39.01
0.23130	39.01
0.24797	39.01
0.26463	39.01
0.28130	39.01
0.29797	39.01
0.31463	39.01
0.33130	39.02
0.34797	39.01
0.36463	39.01
0.38130	39.01
0.39797	39.01
0.41463	39.01
0.43130	39.01
0.44797	39.01
0.46463	39.01
0.48130	39.01
0.49797	39.01
0.51463	39.01
0.53130	39.02
0.54797	39.01
0.56463	39.01
0.58130	39.02
0.59797	39.01
0.61463	39.01
0.63130	39.01
0.64797	39.01
0.66463	39.01
0.68130	39.01
0.69797	39.01
0.71463	39.01
0.73130	39.01
0.74797	39.01
0.76463	39.01
0.78130	39.01
0.79797	39.01
0.81463	39.01
0.83130	39.01
0.84797	39.01
0.86463	39.01
0.88130	39.01
0.89797	39.01
0.91463	39.01
0.93130	39.01
0.94797	39.01
0.96463	39.01
0.98130	39.02
0.99797	39.02
1.01463	39.02
1.03130	39.02
1.04797	39.02
1.06463	39.01
1.08130	39.01
1.09797	39.01
1.11463	39.01
1.13130	39.01
1.14797	39.01
1.16463	39.01
1.18130	39.01
1.19797	39.01
1.21463	39.02
1.23130	39.02
1.24797	39.01
1.26463	39.01
1.28130	39.02
1.29797	39.02
1.31463	39.02
1.33130	39.02
1.34797	39.02
1.36463	39.01
1.38130	39.01
1.39797	39.01
1.41463	39.01
1.43130	39.01
1.44797	39.01
1.46463	39.01
1.48130	39.01
1.49797	39.01
1.51463	39.01
1.53130	39.01
1.54797	39.02
1.56463	39.02
1.58130	39.01
1.59797	39.01
1.61463	39.01
1.63130	38.99
1.64797	38.97
1.66463	38.95
1.68130	38.91
1.69797	38.88
1.71463	38.84
1.73130	38.81
1.74797	38.78
1.76463	38.75
1.78130	38.72
1.79797	38.69
1.81463	38.65
1.83130	38.62
1.84797	38.59
1.86463	38.56
1.88130	38.53
1.89797	38.50
1.91463	38.47
1.93130	38.44
1.94797	38.41
1.96463	38.38
1.98130	38.35
1.99797	38.32
2.01463	38.29
2.03130	38.26
2.04797	38.23
2.06463	38.20
2.08130	38.17
2.09797	38.14
2.11463	38.11
2.13130	38.08
2.14797	38.05
2.16463	38.02
2.18130	37.99
2.19797	37.96
2.21463	37.93
2.23130	37.90
2.24797	37.87
2.26463	37.84
2.28130	37.81
2.29797	37.78
2.31463	37.75
2.33130	37.72
2.34797	37.70
2.36463	37.67
2.38130	37.66
2.39797	37.65
2.41463	37.66
2.43130	37.66
2.44797	37.66
2.46463	37.66
2.48130	37.65
2.49797	37.65
2.51463	37.64
2.53130	37.64
2.54797	37.65
2.56463	37.65
2.58130	37.65
2.59797	37.65
2.61463	37.64
2.63130	37.64
2.64797	37.64
2.66463	37.64
2.68130	37.64
2.69797	37.64
2.71463	37.64
2.73130	37.64
2.74797	37.64
2.76463	37.64
2.78130	37.64
2.79797	37.64
2.81463	37.64
2.83130	37.64
2.84797	37.64
2.86463	37.64
2.88130	37.64
2.89797	37.63
2.91463	37.63
2.93130	37.63
2.94797	37.63
2.96463	37.63
2.98130	37.63
2.99797	37.63
3.01463	37.63
3.03130	37.63
3.04797	37.63
3.06463	37.63
3.08130	37.63
3.09797	37.63
3.11463	37.63
3.13130	37.63
3.14797	37.63
3.16463	37.63
3.18130	37.62
3.19797	37.62
3.21463	37.62
3.23130	37.62
3.24797	37.62
3.26463	37.62
3.28130	37.62
3.29797	37.62
3.31463	37.62
3.33130	37.62
3.34797	37.62
3.36463	37.62
3.38130	37.62
3.39797	37.62
3.41463	37.62
3.43130	37.62
3.44797	37.62
3.46463	37.62
3.48130	37.62
3.49797	37.62
3.51463	37.62
3.53130	37.62
3.54797	37.62
3.56463	37.62
3.58130	37.62
3.59797	37.62
3.61463	37.62
3.63130	37.62
3.64797	37.63
3.66463	37.63
3.68130	37.63
3.69797	37.63
3.71463	37.63
3.73130	37.62
3.74797	37.62
3.76463	37.62
3.78130	37.63
3.79797	37.62
3.81463	37.62
3.83130	37.62
3.84797	37.62
3.86463	37.63
3.88130	37.62
3.89797	37.62
3.91463	37.62
3.93130	37.62
3.94797	37.62
3.96463	37.62
3.98130	37.63
3.99797	37.63

