[Header]
Application Name	LabSolutions
Version	5.110
Data File Name	C:\Users\User\Desktop\GC Analyses\Jack\UIC Prairie Sampling\9.2.22\220902_053.gcd
Output Date	10/28/2022
Output Time	1:23:55 PM

[File Information]
Type	Data File
Generated	10/26/2022 1:29:18 PM
Generated by	System Administrator
Modified	10/26/2022 1:33:44 PM
Modified by	System Administrator

[Sample Information]
Operator Name	System Administrator
Acquired	10/26/2022 1:29:42 PM
Sample Type	1:Standard
Level	1
Sample Name	220902_UICPrairie
Sample ID	220902_UICPrairie
ISTD Amount1	1
ISTD Amount2	1
ISTD Amount3	1
ISTD Amount4	1
ISTD Amount5	1
ISTD Amount6	1
ISTD Amount7	1
ISTD Amount8	1
ISTD Amount9	1
ISTD Amount10	1
ISTD Amount11	1
ISTD Amount12	1
ISTD Amount13	1
ISTD Amount14	1
ISTD Amount15	1
ISTD Amount16	1
ISTD Amount17	1
ISTD Amount18	1
ISTD Amount19	1
ISTD Amount20	1
ISTD Amount21	1
ISTD Amount22	1
ISTD Amount23	1
ISTD Amount24	1
ISTD Amount25	1
ISTD Amount26	1
ISTD Amount27	1
ISTD Amount28	1
ISTD Amount29	1
ISTD Amount30	1
ISTD Amount31	1
ISTD Amount32	1
Sample Amount	1
Dilution Factor	1
Vial#	1
Injection Volume	1
Injection Count	1
Bar Code	

[Original Files]
Data File	C:\Users\User\Desktop\GC Analyses\Jack\UIC Prairie Sampling\9.2.22\220902_053.gcd
Method File	C:\LabSolutions\Data\GHG_4min_2022\ghg3_togas_w_acet_4 min_new_int.gcm
Batch File	
Report Format File	c:\LabSolutions\System\DEFAULT.lsr

[File Description]


[Configuration]
Instrument Name	C0B7VH3-Instrument1
Instrument #	1
Line #	1
# of Detectors	3
Detector ID	DET#1	DET#2	DET#3
Detector Name	FID	PTCD	ECD
# of Channels	1	1	1

[Peak Table(Ch1)]
# of Peaks	3
Peak#	R.Time	I.Time	F.Time	Area	Height	A/H	Conc.	Mark	ID#	Name	k'	Plate #	Plate Ht.	Tailing	Resolution	Sep.Factor	Area Ratio	Height Ratio	Conc. %	Norm Conc.
1	1.476	1.435	1.538	11963	5318	2.249	100.000	   	1	CO	0.000	8392	17.874	1.261	0.000	0.000	0	0	16.667	16.667
2	1.571	1.538	1.622	4119	2108	1.954	100.000	 V 	2	CH4	0.065	11638	12.889	1.065	1.554	0.000	0	0	16.667	16.667
3	1.996	1.949	2.367	2209181	1073421	2.058	400.000	   	3	CO2	0.353	17772	8.440	1.317	7.200	5.462	0	0	66.667	66.667

[Peak Table(Ch2)]
# of Peaks	0

[Peak Table(Ch3)]
# of Peaks	3
Peak#	R.Time	I.Time	F.Time	Area	Height	A/H	Conc.	Mark	ID#	Name	k'	Plate #	Plate Ht.	Tailing	Resolution	Sep.Factor	Area Ratio	Height Ratio	Conc. %	Norm Conc.
1	2.557	2.440	2.656	7270	794	9.152	0.000	   			0.000	2028	73.964	0.000	0.000	0.000	0	0	0.000	0.000
2	2.737	2.656	2.821	4360	479	9.111	0.155	 V 	1	N2O	0.070	244	615.005	0.000	0.387	0.000	0	0	15.455	15.455
3	2.884	2.821	3.221	23853	5423	4.398	0.845	 V 	1	N2O	0.128	12164	12.331	0.000	0.364	1.816	0	0	84.545	84.545

[Compound Results(Ch1)]
# of IDs	6
ID#	Name	R.Time	Area	Height	Conc.	Curve	3rd	2nd	1st	Constant	Area Ratio	Height Ratio	Conc. %	Norm Conc.
1	CO	1.476	11963	5318	100.000	Linear	0.000000e+00	0.000000e+00	1.196291e+002	0.000000e+00	0	0	16.667	16.667
2	CH4	1.571	4119	2108	100.000	Linear	0.000000e+00	0.000000e+00	4.118604e+001	0.000000e+00	0	0	16.667	16.667
3	CO2	1.996	2209181	1073421	400.000	Linear	0.000000e+00	0.000000e+00	5.522953e+003	0.000000e+00	0	0	66.667	66.667
4	Ethylene	0.000	0	0	0.000	Linear	0.000000e+00	0.000000e+00	0.000000e+00	0.000000e+00	0	0	0.000	0.000
5	Acetylene	0.000	0	0	0.000	Linear	0.000000e+00	0.000000e+00	0.000000e+00	0.000000e+00	0	0	0.000	0.000
6	Ethane	0.000	0	0	0.000	Linear	0.000000e+00	0.000000e+00	0.000000e+00	0.000000e+00	0	0	0.000	0.000

[Compound Results(Ch2)]
# of IDs	5
ID#	Name	R.Time	Area	Height	Conc.	Curve	3rd	2nd	1st	Constant	Area Ratio	Height Ratio	Conc. %	Norm Conc.
1	Hydrogen	0.000	0	0	0.000	Linear	0.000000e+00	0.000000e+00	0.000000e+00	0.000000e+00	0	0	0.000	0.000
2	Oxygen	0.000	0	0	0.000	Linear	0.000000e+00	0.000000e+00	0.000000e+00	0.000000e+00	0	0	0.000	0.000
3	Nitrogen	0.000	0	0	0.000	Linear	0.000000e+00	0.000000e+00	0.000000e+00	0.000000e+00	0	0	0.000	0.000
4	Methane	0.000	0	0	0.000	Linear	0.000000e+00	0.000000e+00	0.000000e+00	0.000000e+00	0	0	0.000	0.000
5	Carbon Monoxide	0.000	0	0	0.000	Linear	0.000000e+00	0.000000e+00	0.000000e+00	0.000000e+00	0	0	0.000	0.000

[Compound Results(Ch3)]
# of IDs	2
ID#	Name	R.Time	Area	Height	Conc.	Curve	3rd	2nd	1st	Constant	Area Ratio	Height Ratio	Conc. %	Norm Conc.
1	N2O	2.884	28213	5901	1.000	Linear	0.000000e+00	0.000000e+00	2.821313e+004	0.000000e+00	0	0	100.000	100.000
2	SF6	0.000	0	0	0.000	Linear	0.000000e+00	0.000000e+00	0.000000e+00	0.000000e+00	0	0	0.000	0.000

[Group Results(Ch1)]
# of Groups	0

[Group Results(Ch2)]
# of Groups	0

[Group Results(Ch3)]
# of Groups	0

[Chromatogram (Ch1)]
Interval(msec)	220
# of Points	1091
Start Time(min)	0.002
End Time(min)	3.998
R.Time (min)	Intensity
0.00167	2
0.00533	4
0.00900	5
0.01267	7
0.01633	9
0.02000	9
0.02367	6
0.02733	1
0.03100	-3
0.03467	-5
0.03833	-3
0.04200	-1
0.04567	-0
0.04933	-1
0.05300	-3
0.05667	-4
0.06033	-5
0.06400	-7
0.06767	-5
0.07133	-1
0.07500	5
0.07867	8
0.08233	10
0.08600	13
0.08967	13
0.09333	12
0.09700	9
0.10067	2
0.10433	-9
0.10800	-20
0.11167	-28
0.11533	-29
0.11900	-26
0.12267	-22
0.12633	-18
0.13000	-17
0.13367	-19
0.13733	-21
0.14100	-18
0.14467	-14
0.14833	-11
0.15200	-9
0.15567	-10
0.15933	-12
0.16300	-15
0.16667	-16
0.17033	-14
0.17400	-9
0.17767	-4
0.18133	-0
0.18500	4
0.18867	8
0.19233	7
0.19600	0
0.19967	-7
0.20333	-13
0.20700	-17
0.21067	-20
0.21433	-19
0.21800	-16
0.22167	-12
0.22533	-14
0.22900	-19
0.23267	-21
0.23633	-24
0.24000	-28
0.24367	-33
0.24733	-36
0.25100	-38
0.25467	-36
0.25833	-30
0.26200	-25
0.26567	-24
0.26933	-27
0.27300	-28
0.27667	-28
0.28033	-28
0.28400	-29
0.28767	-32
0.29133	-35
0.29500	-35
0.29867	-34
0.30233	-31
0.30600	-28
0.30967	-26
0.31333	-25
0.31700	-24
0.32067	-22
0.32433	-24
0.32800	-26
0.33167	-29
0.33533	-31
0.33900	-30
0.34267	-28
0.34633	-27
0.35000	-28
0.35367	-30
0.35733	-29
0.36100	-25
0.36467	-22
0.36833	-23
0.37200	-26
0.37567	-26
0.37933	-24
0.38300	-19
0.38667	-16
0.39033	-15
0.39400	-15
0.39767	-18
0.40133	-22
0.40500	-23
0.40867	-20
0.41233	-15
0.41600	-14
0.41967	-20
0.42333	-33
0.42700	-42
0.43067	-46
0.43433	-46
0.43800	-47
0.44167	-47
0.44533	-46
0.44900	-43
0.45267	-39
0.45633	-34
0.46000	-29
0.46367	-22
0.46733	-16
0.47100	-12
0.47467	-14
0.47833	-24
0.48200	-33
0.48567	-40
0.48933	-43
0.49300	-45
0.49667	-44
0.50033	-41
0.50400	-41
0.50767	-42
0.51133	-44
0.51500	-43
0.51867	-40
0.52233	-38
0.52600	-36
0.52967	-35
0.53333	-38
0.53700	-41
0.54067	-41
0.54433	-35
0.54800	-30
0.55167	-27
0.55533	-24
0.55900	-21
0.56267	-18
0.56633	-18
0.57000	-23
0.57367	-32
0.57733	-40
0.58100	-43
0.58467	-40
0.58833	-37
0.59200	-36
0.59567	-42
0.59933	-46
0.60300	-45
0.60667	-42
0.61033	-40
0.61400	-40
0.61767	-42
0.62133	-44
0.62500	-46
0.62867	-49
0.63233	-50
0.63600	-47
0.63967	-39
0.64333	-30
0.64700	-23
0.65067	-18
0.65433	-18
0.65800	-22
0.66167	-25
0.66533	-26
0.66900	-30
0.67267	-37
0.67633	-43
0.68000	-49
0.68367	-53
0.68733	-52
0.69100	-50
0.69467	-53
0.69833	-56
0.70200	-60
0.70567	-61
0.70933	-60
0.71300	-61
0.71667	-61
0.72033	-57
0.72400	-54
0.72767	-50
0.73133	-48
0.73500	-48
0.73867	-47
0.74233	-46
0.74600	-47
0.74967	-47
0.75333	-46
0.75700	-43
0.76067	-43
0.76433	-48
0.76800	-51
0.77167	-53
0.77533	-54
0.77900	-57
0.78267	-60
0.78633	-61
0.79000	-59
0.79367	-57
0.79733	-57
0.80100	-58
0.80467	-55
0.80833	-49
0.81200	-44
0.81567	-37
0.81933	-31
0.82300	-25
0.82667	-22
0.83033	-24
0.83400	-30
0.83767	-38
0.84133	-47
0.84500	-54
0.84867	-53
0.85233	-47
0.85600	-43
0.85967	-42
0.86333	-44
0.86700	-50
0.87067	-54
0.87433	-52
0.87800	-45
0.88167	-39
0.88533	-37
0.88900	-40
0.89267	-46
0.89633	-50
0.90000	-54
0.90367	-57
0.90733	-61
0.91100	-66
0.91467	-67
0.91833	-65
0.92200	-62
0.92567	-61
0.92933	-60
0.93300	-61
0.93667	-61
0.94033	-64
0.94400	-68
0.94767	-71
0.95133	-75
0.95500	-77
0.95867	-73
0.96233	-67
0.96600	-62
0.96967	-59
0.97333	-58
0.97700	-56
0.98067	-52
0.98433	-45
0.98800	-39
0.99167	-38
0.99533	-40
0.99900	-43
1.00267	-45
1.00633	-46
1.01000	-48
1.01367	-55
1.01733	-64
1.02100	-72
1.02467	-76
1.02833	-74
1.03200	-71
1.03567	-70
1.03933	-68
1.04300	-65
1.04667	-63
1.05033	-62
1.05400	-61
1.05767	-57
1.06133	-55
1.06500	-56
1.06867	-60
1.07233	-69
1.07600	-76
1.07967	-80
1.08333	-81
1.08700	-78
1.09067	-73
1.09433	-68
1.09800	-65
1.10167	-65
1.10533	-67
1.10900	-68
1.11267	-65
1.11633	-62
1.12000	-61
1.12367	-61
1.12733	-63
1.13100	-65
1.13467	-67
1.13833	-69
1.14200	-69
1.14567	-66
1.14933	-62
1.15300	-61
1.15667	-62
1.16033	-66
1.16400	-69
1.16767	-73
1.17133	-79
1.17500	-87
1.17867	-91
1.18233	-92
1.18600	-90
1.18967	-84
1.19333	-78
1.19700	-73
1.20067	-68
1.20433	-65
1.20800	-63
1.21167	-62
1.21533	-61
1.21900	-61
1.22267	-64
1.22633	-69
1.23000	-75
1.23367	-80
1.23733	-83
1.24100	-82
1.24467	-79
1.24833	-78
1.25200	-77
1.25567	-74
1.25933	-68
1.26300	-64
1.26667	-65
1.27033	-70
1.27400	-73
1.27767	-71
1.28133	-68
1.28500	-65
1.28867	-60
1.29233	-57
1.29600	-57
1.29967	-60
1.30333	-64
1.30700	-69
1.31067	-72
1.31433	-76
1.31800	-82
1.32167	-86
1.32533	-86
1.32900	-83
1.33267	-75
1.33633	-68
1.34000	-65
1.34367	-66
1.34733	-69
1.35100	-68
1.35467	-65
1.35833	-64
1.36200	-67
1.36567	-73
1.36933	-78
1.37300	-80
1.37667	-81
1.38033	-76
1.38400	-68
1.38767	-62
1.39133	-61
1.39500	-62
1.39867	-64
1.40233	-68
1.40600	-72
1.40967	-75
1.41333	-74
1.41700	-69
1.42067	-68
1.42433	-70
1.42800	-70
1.43167	-70
1.43533	-68
1.43900	-50
1.44267	30
1.44633	242
1.45000	616
1.45367	1201
1.45733	2023
1.46100	2967
1.46467	3855
1.46833	4563
1.47200	5038
1.47567	5250
1.47933	5169
1.48300	4788
1.48667	4161
1.49033	3404
1.49400	2646
1.49767	1977
1.50133	1436
1.50500	1023
1.50867	720
1.51233	502
1.51600	346
1.51967	236
1.52333	156
1.52700	96
1.53067	53
1.53433	28
1.53800	18
1.54167	44
1.54533	158
1.54900	409
1.55267	778
1.55633	1182
1.56000	1546
1.56367	1830
1.56733	2005
1.57100	2038
1.57467	1910
1.57833	1639
1.58200	1291
1.58567	942
1.58933	645
1.59300	414
1.59667	245
1.60033	130
1.60400	55
1.60767	5
1.61133	-29
1.61500	-52
1.61867	-65
1.62233	-72
1.62600	-74
1.62967	-77
1.63333	-78
1.63700	-78
1.64067	-76
1.64433	-73
1.64800	-72
1.65167	-74
1.65533	-80
1.65900	-84
1.66267	-85
1.66633	-83
1.67000	-82
1.67367	-82
1.67733	-82
1.68100	-80
1.68467	-81
1.68833	-86
1.69200	-91
1.69567	-93
1.69933	-93
1.70300	-93
1.70667	-94
1.71033	-98
1.71400	-104
1.71767	-109
1.72133	-112
1.72500	-112
1.72867	-107
1.73233	-99
1.73600	-93
1.73967	-86
1.74333	-79
1.74700	-74
1.75067	-73
1.75433	-78
1.75800	-86
1.76167	-92
1.76533	-95
1.76900	-92
1.77267	-88
1.77633	-84
1.78000	-80
1.78367	-75
1.78733	-71
1.79100	-70
1.79467	-71
1.79833	-73
1.80200	-78
1.80567	-87
1.80933	-95
1.81300	-96
1.81667	-93
1.82033	-91
1.82400	-91
1.82767	-91
1.83133	-89
1.83500	-88
1.83867	-85
1.84233	-82
1.84600	-79
1.84967	-78
1.85333	-75
1.85700	-73
1.86067	-71
1.86433	-69
1.86800	-67
1.87167	-67
1.87533	-68
1.87900	-68
1.88267	-67
1.88633	-65
1.89000	-63
1.89367	-64
1.89733	-67
1.90100	-69
1.90467	-66
1.90833	-63
1.91200	-59
1.91567	-56
1.91933	-54
1.92300	-58
1.92667	-65
1.93033	-71
1.93400	-74
1.93767	-72
1.94133	-69
1.94500	-68
1.94867	-65
1.95233	-48
1.95600	67
1.95967	755
1.96333	4162
1.96700	16964
1.97067	53675
1.97433	134664
1.97800	273628
1.98167	462611
1.98533	671367
1.98900	862028
1.99267	1002802
1.99633	1073387
2.00000	1066001
2.00367	986130
2.00733	852671
2.01100	692639
2.01467	532674
2.01833	391715
2.02200	278475
2.02567	193449
2.02933	132605
2.03300	90478
2.03667	61933
2.04033	42832
2.04400	30117
2.04767	21642
2.05133	15950
2.05500	12077
2.05867	9398
2.06233	7505
2.06600	6138
2.06967	5133
2.07333	4373
2.07700	3783
2.08067	3315
2.08433	2939
2.08800	2631
2.09167	2374
2.09533	2159
2.09900	1978
2.10267	1825
2.10633	1692
2.11000	1577
2.11367	1479
2.11733	1392
2.12100	1310
2.12467	1232
2.12833	1159
2.13200	1089
2.13567	1024
2.13933	967
2.14300	916
2.14667	876
2.15033	846
2.15400	819
2.15767	788
2.16133	755
2.16500	722
2.16867	690
2.17233	661
2.17600	636
2.17967	615
2.18333	597
2.18700	582
2.19067	570
2.19433	557
2.19800	544
2.20167	527
2.20533	505
2.20900	485
2.21267	469
2.21633	458
2.22000	454
2.22367	453
2.22733	448
2.23100	438
2.23467	429
2.23833	418
2.24200	403
2.24567	386
2.24933	369
2.25300	353
2.25667	337
2.26033	322
2.26400	312
2.26767	307
2.27133	304
2.27500	303
2.27867	302
2.28233	299
2.28600	298
2.28967	297
2.29333	293
2.29700	287
2.30067	282
2.30433	280
2.30800	277
2.31167	272
2.31533	268
2.31900	265
2.32267	263
2.32633	262
2.33000	261
2.33367	260
2.33733	256
2.34100	250
2.34467	244
2.34833	239
2.35200	235
2.35567	230
2.35933	221
2.36300	214
2.36667	210
2.37033	209
2.37400	210
2.37767	212
2.38133	214
2.38500	216
2.38867	218
2.39233	216
2.39600	213
2.39967	211
2.40333	210
2.40700	210
2.41067	207
2.41433	201
2.41800	196
2.42167	193
2.42533	192
2.42900	192
2.43267	192
2.43633	192
2.44000	190
2.44367	190
2.44733	194
2.45100	197
2.45467	201
2.45833	207
2.46200	208
2.46567	202
2.46933	192
2.47300	181
2.47667	169
2.48033	158
2.48400	150
2.48767	146
2.49133	146
2.49500	147
2.49867	148
2.50233	149
2.50600	149
2.50967	147
2.51333	147
2.51700	147
2.52067	145
2.52433	139
2.52800	136
2.53167	137
2.53533	144
2.53900	153
2.54267	158
2.54633	163
2.55000	167
2.55367	169
2.55733	169
2.56100	165
2.56467	160
2.56833	157
2.57200	155
2.57567	153
2.57933	154
2.58300	155
2.58667	154
2.59033	150
2.59400	151
2.59767	157
2.60133	161
2.60500	159
2.60867	154
2.61233	151
2.61600	150
2.61967	150
2.62333	148
2.62700	143
2.63067	138
2.63433	137
2.63800	136
2.64167	134
2.64533	129
2.64900	126
2.65267	123
2.65633	120
2.66000	117
2.66367	120
2.66733	129
2.67100	137
2.67467	141
2.67833	141
2.68200	136
2.68567	126
2.68933	117
2.69300	110
2.69667	109
2.70033	112
2.70400	117
2.70767	126
2.71133	137
2.71500	147
2.71867	152
2.72233	149
2.72600	140
2.72967	130
2.73333	122
2.73700	122
2.74067	125
2.74433	127
2.74800	127
2.75167	129
2.75533	131
2.75900	132
2.76267	132
2.76633	132
2.77000	131
2.77367	129
2.77733	125
2.78100	122
2.78467	119
2.78833	118
2.79200	119
2.79567	125
2.79933	136
2.80300	151
2.80667	166
2.81033	176
2.81400	175
2.81767	165
2.82133	151
2.82500	138
2.82867	126
2.83233	117
2.83600	111
2.83967	107
2.84333	105
2.84700	107
2.85067	111
2.85433	118
2.85800	126
2.86167	131
2.86533	134
2.86900	136
2.87267	135
2.87633	134
2.88000	134
2.88367	133
2.88733	133
2.89100	135
2.89467	138
2.89833	138
2.90200	133
2.90567	129
2.90933	124
2.91300	115
2.91667	108
2.92033	103
2.92400	101
2.92767	104
2.93133	107
2.93500	108
2.93867	107
2.94233	104
2.94600	104
2.94967	105
2.95333	107
2.95700	113
2.96067	123
2.96433	134
2.96800	142
2.97167	146
2.97533	144
2.97900	138
2.98267	132
2.98633	127
2.99000	128
2.99367	126
2.99733	125
3.00100	127
3.00467	132
3.00833	135
3.01200	137
3.01567	137
3.01933	135
3.02300	130
3.02667	127
3.03033	124
3.03400	123
3.03767	121
3.04133	118
3.04500	116
3.04867	117
3.05233	119
3.05600	120
3.05967	121
3.06333	121
3.06700	122
3.07067	122
3.07433	121
3.07800	119
3.08167	120
3.08533	121
3.08900	123
3.09267	128
3.09633	129
3.10000	128
3.10367	127
3.10733	127
3.11100	132
3.11467	136
3.11833	136
3.12200	132
3.12567	123
3.12933	115
3.13300	106
3.13667	99
3.14033	93
3.14400	91
3.14767	93
3.15133	97
3.15500	102
3.15867	108
3.16233	113
3.16600	118
3.16967	123
3.17333	126
3.17700	128
3.18067	130
3.18433	133
3.18800	134
3.19167	135
3.19533	136
3.19900	134
3.20267	130
3.20633	123
3.21000	117
3.21367	113
3.21733	112
3.22100	112
3.22467	110
3.22833	108
3.23200	105
3.23567	101
3.23933	98
3.24300	99
3.24667	103
3.25033	105
3.25400	106
3.25767	103
3.26133	102
3.26500	102
3.26867	103
3.27233	107
3.27600	112
3.27967	120
3.28333	130
3.28700	138
3.29067	140
3.29433	134
3.29800	123
3.30167	114
3.30533	110
3.30900	107
3.31267	104
3.31633	103
3.32000	106
3.32367	108
3.32733	112
3.33100	117
3.33467	121
3.33833	120
3.34200	117
3.34567	116
3.34933	116
3.35300	118
3.35667	119
3.36033	117
3.36400	114
3.36767	110
3.37133	106
3.37500	102
3.37867	102
3.38233	107
3.38600	113
3.38967	115
3.39333	113
3.39700	111
3.40067	111
3.40433	111
3.40800	115
3.41167	120
3.41533	122
3.41900	120
3.42267	118
3.42633	119
3.43000	120
3.43367	122
3.43733	124
3.44100	123
3.44467	124
3.44833	126
3.45200	127
3.45567	122
3.45933	115
3.46300	111
3.46667	110
3.47033	110
3.47400	111
3.47767	113
3.48133	115
3.48500	115
3.48867	112
3.49233	110
3.49600	111
3.49967	111
3.50333	108
3.50700	102
3.51067	97
3.51433	96
3.51800	96
3.52167	90
3.52533	84
3.52900	86
3.53267	89
3.53633	90
3.54000	92
3.54367	98
3.54733	106
3.55100	112
3.55467	113
3.55833	113
3.56200	114
3.56567	118
3.56933	117
3.57300	114
3.57667	111
3.58033	107
3.58400	106
3.58767	108
3.59133	109
3.59500	104
3.59867	99
3.60233	97
3.60600	97
3.60967	99
3.61333	100
3.61700	101
3.62067	100
3.62433	99
3.62800	100
3.63167	100
3.63533	98
3.63900	93
3.64267	89
3.64633	89
3.65000	90
3.65367	93
3.65733	95
3.66100	98
3.66467	101
3.66833	103
3.67200	102
3.67567	98
3.67933	93
3.68300	90
3.68667	89
3.69033	89
3.69400	91
3.69767	96
3.70133	105
3.70500	110
3.70867	111
3.71233	111
3.71600	114
3.71967	115
3.72333	114
3.72700	111
3.73067	106
3.73433	99
3.73800	92
3.74167	89
3.74533	90
3.74900	93
3.75267	99
3.75633	102
3.76000	99
3.76367	92
3.76733	84
3.77100	81
3.77467	81
3.77833	86
3.78200	92
3.78567	92
3.78933	88
3.79300	85
3.79667	85
3.80033	87
3.80400	93
3.80767	102
3.81133	110
3.81500	114
3.81867	118
3.82233	119
3.82600	117
3.82967	116
3.83333	116
3.83700	112
3.84067	107
3.84433	102
3.84800	99
3.85167	96
3.85533	92
3.85900	91
3.86267	93
3.86633	100
3.87000	110
3.87367	119
3.87733	125
3.88100	124
3.88467	123
3.88833	123
3.89200	120
3.89567	111
3.89933	101
3.90300	97
3.90667	94
3.91033	91
3.91400	87
3.91767	83
3.92133	79
3.92500	80
3.92867	84
3.93233	92
3.93600	101
3.93967	108
3.94333	110
3.94700	106
3.95067	98
3.95433	91
3.95800	87
3.96167	88
3.96533	93
3.96900	100
3.97267	107
3.97633	112
3.98000	110
3.98367	106
3.98733	109
3.99100	115
3.99467	115
3.99833	109

[Chromatogram (Ch2)]
Interval(msec)	220
# of Points	1091
Start Time(min)	0.002
End Time(min)	3.998
R.Time (min)	Intensity
0.00167	1
0.00533	1
0.00900	1
0.01267	0
0.01633	0
0.02000	0
0.02367	0
0.02733	-0
0.03100	-0
0.03467	-0
0.03833	-0
0.04200	-0
0.04567	-1
0.04933	-1
0.05300	-1
0.05667	-1
0.06033	-1
0.06400	-1
0.06767	-0
0.07133	0
0.07500	1
0.07867	1
0.08233	1
0.08600	1
0.08967	2
0.09333	2
0.09700	2
0.10067	2
0.10433	2
0.10800	3
0.11167	3
0.11533	4
0.11900	4
0.12267	4
0.12633	4
0.13000	4
0.13367	4
0.13733	4
0.14100	4
0.14467	4
0.14833	4
0.15200	4
0.15567	4
0.15933	4
0.16300	4
0.16667	4
0.17033	4
0.17400	4
0.17767	4
0.18133	4
0.18500	4
0.18867	4
0.19233	4
0.19600	4
0.19967	4
0.20333	4
0.20700	4
0.21067	4
0.21433	4
0.21800	4
0.22167	4
0.22533	4
0.22900	3
0.23267	3
0.23633	3
0.24000	2
0.24367	2
0.24733	2
0.25100	1
0.25467	1
0.25833	1
0.26200	1
0.26567	1
0.26933	0
0.27300	0
0.27667	-0
0.28033	-0
0.28400	-1
0.28767	-1
0.29133	-1
0.29500	-1
0.29867	-0
0.30233	-0
0.30600	-0
0.30967	-0
0.31333	0
0.31700	0
0.32067	0
0.32433	0
0.32800	0
0.33167	0
0.33533	0
0.33900	1
0.34267	1
0.34633	1
0.35000	0
0.35367	0
0.35733	0
0.36100	0
0.36467	-0
0.36833	-0
0.37200	-0
0.37567	-0
0.37933	0
0.38300	-0
0.38667	-0
0.39033	-0
0.39400	-1
0.39767	-1
0.40133	-1
0.40500	-1
0.40867	-1
0.41233	-2
0.41600	-2
0.41967	-1
0.42333	-1
0.42700	-1
0.43067	-1
0.43433	-1
0.43800	-0
0.44167	-0
0.44533	0
0.44900	0
0.45267	0
0.45633	1
0.46000	1
0.46367	1
0.46733	1
0.47100	1
0.47467	1
0.47833	1
0.48200	1
0.48567	1
0.48933	1
0.49300	1
0.49667	1
0.50033	1
0.50400	1
0.50767	1
0.51133	1
0.51500	1
0.51867	1
0.52233	1
0.52600	1
0.52967	1
0.53333	1
0.53700	1
0.54067	1
0.54433	1
0.54800	1
0.55167	0
0.55533	0
0.55900	-0
0.56267	-0
0.56633	-0
0.57000	-0
0.57367	-0
0.57733	-0
0.58100	-0
0.58467	-1
0.58833	-1
0.59200	-1
0.59567	-1
0.59933	-1
0.60300	-2
0.60667	-2
0.61033	-2
0.61400	-2
0.61767	-2
0.62133	-3
0.62500	-3
0.62867	-2
0.63233	-2
0.63600	-2
0.63967	-1
0.64333	-1
0.64700	-1
0.65067	-1
0.65433	-1
0.65800	-0
0.66167	-0
0.66533	-0
0.66900	0
0.67267	0
0.67633	1
0.68000	1
0.68367	1
0.68733	0
0.69100	0
0.69467	-0
0.69833	-1
0.70200	-1
0.70567	-1
0.70933	-1
0.71300	-1
0.71667	-1
0.72033	-1
0.72400	-1
0.72767	-1
0.73133	-1
0.73500	-0
0.73867	-0
0.74233	-0
0.74600	-0
0.74967	-0
0.75333	-0
0.75700	0
0.76067	0
0.76433	1
0.76800	1
0.77167	1
0.77533	1
0.77900	1
0.78267	1
0.78633	1
0.79000	1
0.79367	1
0.79733	2
0.80100	2
0.80467	2
0.80833	2
0.81200	2
0.81567	2
0.81933	2
0.82300	2
0.82667	2
0.83033	2
0.83400	1
0.83767	1
0.84133	1
0.84500	0
0.84867	0
0.85233	0
0.85600	0
0.85967	0
0.86333	0
0.86700	1
0.87067	1
0.87433	1
0.87800	1
0.88167	1
0.88533	0
0.88900	0
0.89267	0
0.89633	0
0.90000	0
0.90367	0
0.90733	0
0.91100	1
0.91467	1
0.91833	1
0.92200	2
0.92567	2
0.92933	2
0.93300	2
0.93667	2
0.94033	2
0.94400	1
0.94767	1
0.95133	1
0.95500	1
0.95867	1
0.96233	1
0.96600	1
0.96967	1
0.97333	1
0.97700	1
0.98067	1
0.98433	1
0.98800	1
0.99167	0
0.99533	0
0.99900	-0
1.00267	-0
1.00633	-1
1.01000	-1
1.01367	-1
1.01733	-2
1.02100	-2
1.02467	-2
1.02833	-3
1.03200	-3
1.03567	-2
1.03933	-2
1.04300	-2
1.04667	-1
1.05033	-1
1.05400	-1
1.05767	-0
1.06133	0
1.06500	0
1.06867	1
1.07233	1
1.07600	1
1.07967	1
1.08333	1
1.08700	1
1.09067	1
1.09433	0
1.09800	0
1.10167	-0
1.10533	-0
1.10900	-0
1.11267	-1
1.11633	-1
1.12000	-1
1.12367	-1
1.12733	-1
1.13100	-2
1.13467	-2
1.13833	-2
1.14200	-2
1.14567	-2
1.14933	-3
1.15300	-3
1.15667	-3
1.16033	-3
1.16400	-3
1.16767	-3
1.17133	-3
1.17500	-2
1.17867	-2
1.18233	-2
1.18600	-2
1.18967	-2
1.19333	-2
1.19700	-1
1.20067	-1
1.20433	-0
1.20800	-0
1.21167	-0
1.21533	-0
1.21900	-0
1.22267	0
1.22633	0
1.23000	0
1.23367	0
1.23733	0
1.24100	0
1.24467	0
1.24833	0
1.25200	0
1.25567	0
1.25933	0
1.26300	0
1.26667	1
1.27033	1
1.27400	1
1.27767	0
1.28133	-0
1.28500	-0
1.28867	-1
1.29233	-1
1.29600	-2
1.29967	-2
1.30333	-2
1.30700	-2
1.31067	-2
1.31433	-2
1.31800	-2
1.32167	-1
1.32533	-1
1.32900	-1
1.33267	-0
1.33633	-0
1.34000	0
1.34367	0
1.34733	0
1.35100	0
1.35467	0
1.35833	0
1.36200	-0
1.36567	-0
1.36933	-1
1.37300	-1
1.37667	-1
1.38033	-1
1.38400	-1
1.38767	-1
1.39133	-1
1.39500	-1
1.39867	-1
1.40233	-1
1.40600	-1
1.40967	-1
1.41333	-0
1.41700	-0
1.42067	0
1.42433	1
1.42800	1
1.43167	1
1.43533	1
1.43900	1
1.44267	1
1.44633	1
1.45000	0
1.45367	0
1.45733	0
1.46100	0
1.46467	1
1.46833	1
1.47200	1
1.47567	1
1.47933	1
1.48300	1
1.48667	1
1.49033	1
1.49400	1
1.49767	1
1.50133	1
1.50500	0
1.50867	-0
1.51233	-1
1.51600	-1
1.51967	-2
1.52333	-2
1.52700	-3
1.53067	-3
1.53433	-3
1.53800	-3
1.54167	-3
1.54533	-3
1.54900	-3
1.55267	-3
1.55633	-3
1.56000	-3
1.56367	-3
1.56733	-2
1.57100	-3
1.57467	-3
1.57833	-3
1.58200	-3
1.58567	-3
1.58933	-3
1.59300	-4
1.59667	-4
1.60033	-5
1.60400	-6
1.60767	-8
1.61133	-9
1.61500	-11
1.61867	-14
1.62233	-16
1.62600	-19
1.62967	-21
1.63333	-24
1.63700	-28
1.64067	-31
1.64433	-34
1.64800	-37
1.65167	-41
1.65533	-45
1.65900	-49
1.66267	-53
1.66633	-57
1.67000	-61
1.67367	-66
1.67733	-71
1.68100	-76
1.68467	-81
1.68833	-85
1.69200	-90
1.69567	-93
1.69933	-96
1.70300	-99
1.70667	-101
1.71033	-102
1.71400	-104
1.71767	-105
1.72133	-106
1.72500	-107
1.72867	-108
1.73233	-109
1.73600	-110
1.73967	-111
1.74333	-113
1.74700	-114
1.75067	-115
1.75433	-116
1.75800	-117
1.76167	-118
1.76533	-118
1.76900	-117
1.77267	-117
1.77633	-116
1.78000	-116
1.78367	-115
1.78733	-114
1.79100	-114
1.79467	-114
1.79833	-115
1.80200	-116
1.80567	-117
1.80933	-118
1.81300	-118
1.81667	-119
1.82033	-120
1.82400	-120
1.82767	-120
1.83133	-120
1.83500	-120
1.83867	-121
1.84233	-121
1.84600	-120
1.84967	-120
1.85333	-120
1.85700	-120
1.86067	-120
1.86433	-121
1.86800	-121
1.87167	-121
1.87533	-121
1.87900	-121
1.88267	-121
1.88633	-121
1.89000	-120
1.89367	-120
1.89733	-120
1.90100	-120
1.90467	-120
1.90833	-120
1.91200	-120
1.91567	-120
1.91933	-119
1.92300	-118
1.92667	-117
1.93033	-116
1.93400	-115
1.93767	-114
1.94133	-114
1.94500	-114
1.94867	-114
1.95233	-114
1.95600	-114
1.95967	-114
1.96333	-114
1.96700	-114
1.97067	-114
1.97433	-114
1.97800	-114
1.98167	-114
1.98533	-115
1.98900	-115
1.99267	-115
1.99633	-114
2.00000	-114
2.00367	-113
2.00733	-113
2.01100	-112
2.01467	-112
2.01833	-111
2.02200	-111
2.02567	-110
2.02933	-110
2.03300	-110
2.03667	-110
2.04033	-110
2.04400	-110
2.04767	-110
2.05133	-110
2.05500	-110
2.05867	-110
2.06233	-110
2.06600	-110
2.06967	-110
2.07333	-109
2.07700	-109
2.08067	-108
2.08433	-107
2.08800	-107
2.09167	-106
2.09533	-105
2.09900	-105
2.10267	-104
2.10633	-104
2.11000	-104
2.11367	-104
2.11733	-104
2.12100	-104
2.12467	-104
2.12833	-104
2.13200	-104
2.13567	-104
2.13933	-104
2.14300	-104
2.14667	-103
2.15033	-103
2.15400	-103
2.15767	-103
2.16133	-102
2.16500	-102
2.16867	-102
2.17233	-102
2.17600	-102
2.17967	-102
2.18333	-102
2.18700	-101
2.19067	-101
2.19433	-100
2.19800	-99
2.20167	-98
2.20533	-98
2.20900	-97
2.21267	-96
2.21633	-96
2.22000	-95
2.22367	-95
2.22733	-95
2.23100	-95
2.23467	-94
2.23833	-94
2.24200	-94
2.24567	-93
2.24933	-93
2.25300	-92
2.25667	-92
2.26033	-92
2.26400	-91
2.26767	-91
2.27133	-90
2.27500	-90
2.27867	-89
2.28233	-88
2.28600	-88
2.28967	-88
2.29333	-88
2.29700	-87
2.30067	-87
2.30433	-88
2.30800	-88
2.31167	-88
2.31533	-87
2.31900	-87
2.32267	-87
2.32633	-87
2.33000	-87
2.33367	-86
2.33733	-86
2.34100	-85
2.34467	-85
2.34833	-85
2.35200	-85
2.35567	-85
2.35933	-85
2.36300	-84
2.36667	-84
2.37033	-83
2.37400	-81
2.37767	-79
2.38133	-77
2.38500	-73
2.38867	-70
2.39233	-65
2.39600	-61
2.39967	-56
2.40333	-51
2.40700	-46
2.41067	-41
2.41433	-36
2.41800	-32
2.42167	-28
2.42533	-25
2.42900	-22
2.43267	-19
2.43633	-16
2.44000	-14
2.44367	-12
2.44733	-10
2.45100	-8
2.45467	-7
2.45833	-5
2.46200	-4
2.46567	-2
2.46933	-0
2.47300	1
2.47667	2
2.48033	2
2.48400	3
2.48767	4
2.49133	5
2.49500	5
2.49867	6
2.50233	7
2.50600	8
2.50967	10
2.51333	10
2.51700	11
2.52067	11
2.52433	11
2.52800	11
2.53167	11
2.53533	12
2.53900	12
2.54267	13
2.54633	13
2.55000	14
2.55367	15
2.55733	15
2.56100	16
2.56467	16
2.56833	17
2.57200	17
2.57567	17
2.57933	17
2.58300	18
2.58667	18
2.59033	18
2.59400	18
2.59767	18
2.60133	18
2.60500	18
2.60867	18
2.61233	18
2.61600	18
2.61967	19
2.62333	19
2.62700	20
2.63067	20
2.63433	21
2.63800	21
2.64167	21
2.64533	21
2.64900	21
2.65267	21
2.65633	20
2.66000	20
2.66367	20
2.66733	20
2.67100	21
2.67467	21
2.67833	21
2.68200	21
2.68567	21
2.68933	20
2.69300	20
2.69667	20
2.70033	20
2.70400	21
2.70767	21
2.71133	21
2.71500	21
2.71867	22
2.72233	23
2.72600	23
2.72967	24
2.73333	25
2.73700	25
2.74067	26
2.74433	26
2.74800	26
2.75167	26
2.75533	26
2.75900	26
2.76267	25
2.76633	25
2.77000	25
2.77367	25
2.77733	25
2.78100	24
2.78467	24
2.78833	24
2.79200	24
2.79567	25
2.79933	25
2.80300	25
2.80667	25
2.81033	25
2.81400	26
2.81767	26
2.82133	26
2.82500	26
2.82867	26
2.83233	26
2.83600	26
2.83967	26
2.84333	26
2.84700	25
2.85067	23
2.85433	20
2.85800	14
2.86167	6
2.86533	-6
2.86900	-21
2.87267	-39
2.87633	-62
2.88000	-89
2.88367	-120
2.88733	-154
2.89100	-192
2.89467	-233
2.89833	-277
2.90200	-323
2.90567	-370
2.90933	-419
2.91300	-469
2.91667	-519
2.92033	-569
2.92400	-620
2.92767	-669
2.93133	-719
2.93500	-768
2.93867	-818
2.94233	-871
2.94600	-930
2.94967	-991
2.95333	-1045
2.95700	-1079
2.96067	-1089
2.96433	-1073
2.96800	-1033
2.97167	-975
2.97533	-904
2.97900	-827
2.98267	-746
2.98633	-667
2.99000	-590
2.99367	-519
2.99733	-453
3.00100	-393
3.00467	-340
3.00833	-292
3.01200	-250
3.01567	-213
3.01933	-181
3.02300	-153
3.02667	-129
3.03033	-108
3.03400	-90
3.03767	-75
3.04133	-61
3.04500	-50
3.04867	-41
3.05233	-33
3.05600	-26
3.05967	-20
3.06333	-15
3.06700	-11
3.07067	-7
3.07433	-4
3.07800	-1
3.08167	1
3.08533	4
3.08900	5
3.09267	7
3.09633	9
3.10000	10
3.10367	11
3.10733	12
3.11100	12
3.11467	13
3.11833	14
3.12200	14
3.12567	14
3.12933	15
3.13300	15
3.13667	15
3.14033	16
3.14400	16
3.14767	16
3.15133	17
3.15500	17
3.15867	17
3.16233	17
3.16600	17
3.16967	17
3.17333	18
3.17700	18
3.18067	18
3.18433	18
3.18800	19
3.19167	19
3.19533	19
3.19900	19
3.20267	20
3.20633	20
3.21000	20
3.21367	20
3.21733	20
3.22100	21
3.22467	21
3.22833	22
3.23200	22
3.23567	22
3.23933	23
3.24300	23
3.24667	23
3.25033	23
3.25400	23
3.25767	24
3.26133	24
3.26500	24
3.26867	25
3.27233	25
3.27600	25
3.27967	25
3.28333	25
3.28700	25
3.29067	25
3.29433	25
3.29800	25
3.30167	26
3.30533	26
3.30900	26
3.31267	26
3.31633	26
3.32000	26
3.32367	26
3.32733	26
3.33100	26
3.33467	26
3.33833	26
3.34200	26
3.34567	27
3.34933	27
3.35300	27
3.35667	27
3.36033	27
3.36400	27
3.36767	27
3.37133	26
3.37500	26
3.37867	26
3.38233	26
3.38600	26
3.38967	26
3.39333	26
3.39700	26
3.40067	26
3.40433	26
3.40800	26
3.41167	27
3.41533	27
3.41900	28
3.42267	28
3.42633	28
3.43000	28
3.43367	28
3.43733	28
3.44100	29
3.44467	29
3.44833	29
3.45200	29
3.45567	29
3.45933	29
3.46300	29
3.46667	29
3.47033	29
3.47400	29
3.47767	28
3.48133	28
3.48500	28
3.48867	28
3.49233	28
3.49600	28
3.49967	28
3.50333	27
3.50700	27
3.51067	27
3.51433	27
3.51800	26
3.52167	26
3.52533	26
3.52900	25
3.53267	25
3.53633	25
3.54000	25
3.54367	26
3.54733	26
3.55100	26
3.55467	26
3.55833	26
3.56200	27
3.56567	27
3.56933	27
3.57300	27
3.57667	27
3.58033	27
3.58400	27
3.58767	28
3.59133	28
3.59500	28
3.59867	29
3.60233	29
3.60600	30
3.60967	30
3.61333	30
3.61700	30
3.62067	31
3.62433	31
3.62800	31
3.63167	31
3.63533	31
3.63900	31
3.64267	31
3.64633	31
3.65000	31
3.65367	31
3.65733	30
3.66100	30
3.66467	30
3.66833	30
3.67200	30
3.67567	30
3.67933	29
3.68300	29
3.68667	29
3.69033	29
3.69400	29
3.69767	28
3.70133	28
3.70500	28
3.70867	28
3.71233	28
3.71600	28
3.71967	28
3.72333	28
3.72700	28
3.73067	29
3.73433	29
3.73800	29
3.74167	29
3.74533	29
3.74900	29
3.75267	29
3.75633	29
3.76000	29
3.76367	29
3.76733	28
3.77100	28
3.77467	28
3.77833	28
3.78200	28
3.78567	28
3.78933	28
3.79300	28
3.79667	28
3.80033	28
3.80400	28
3.80767	28
3.81133	28
3.81500	29
3.81867	29
3.82233	29
3.82600	29
3.82967	29
3.83333	29
3.83700	29
3.84067	29
3.84433	28
3.84800	28
3.85167	28
3.85533	28
3.85900	28
3.86267	28
3.86633	28
3.87000	28
3.87367	28
3.87733	27
3.88100	27
3.88467	27
3.88833	27
3.89200	26
3.89567	26
3.89933	26
3.90300	26
3.90667	26
3.91033	26
3.91400	27
3.91767	27
3.92133	27
3.92500	27
3.92867	27
3.93233	27
3.93600	27
3.93967	27
3.94333	27
3.94700	27
3.95067	27
3.95433	27
3.95800	27
3.96167	27
3.96533	27
3.96900	26
3.97267	26
3.97633	26
3.98000	26
3.98367	26
3.98733	26
3.99100	26
3.99467	26
3.99833	26

[Chromatogram (Ch3)]
Interval(msec)	220
# of Points	1091
Start Time(min)	0.002
End Time(min)	3.998
R.Time (min)	Intensity
0.00167	-1
0.00533	-1
0.00900	-1
0.01267	-2
0.01633	-3
0.02000	-3
0.02367	-2
0.02733	0
0.03100	2
0.03467	3
0.03833	4
0.04200	4
0.04567	2
0.04933	1
0.05300	-0
0.05667	2
0.06033	5
0.06400	9
0.06767	10
0.07133	9
0.07500	8
0.07867	7
0.08233	6
0.08600	4
0.08967	3
0.09333	4
0.09700	6
0.10067	9
0.10433	8
0.10800	8
0.11167	7
0.11533	5
0.11900	5
0.12267	4
0.12633	2
0.13000	1
0.13367	1
0.13733	1
0.14100	1
0.14467	4
0.14833	7
0.15200	9
0.15567	9
0.15933	10
0.16300	11
0.16667	13
0.17033	11
0.17400	10
0.17767	9
0.18133	8
0.18500	9
0.18867	9
0.19233	8
0.19600	9
0.19967	10
0.20333	11
0.20700	13
0.21067	14
0.21433	13
0.21800	12
0.22167	11
0.22533	11
0.22900	12
0.23267	12
0.23633	10
0.24000	10
0.24367	11
0.24733	13
0.25100	14
0.25467	15
0.25833	16
0.26200	14
0.26567	13
0.26933	13
0.27300	13
0.27667	11
0.28033	9
0.28400	10
0.28767	11
0.29133	11
0.29500	12
0.29867	11
0.30233	10
0.30600	10
0.30967	9
0.31333	9
0.31700	9
0.32067	10
0.32433	11
0.32800	11
0.33167	12
0.33533	12
0.33900	13
0.34267	12
0.34633	12
0.35000	13
0.35367	13
0.35733	14
0.36100	13
0.36467	12
0.36833	12
0.37200	14
0.37567	14
0.37933	13
0.38300	12
0.38667	14
0.39033	17
0.39400	18
0.39767	19
0.40133	20
0.40500	18
0.40867	16
0.41233	15
0.41600	14
0.41967	14
0.42333	14
0.42700	15
0.43067	16
0.43433	15
0.43800	15
0.44167	18
0.44533	17
0.44900	16
0.45267	15
0.45633	13
0.46000	12
0.46367	14
0.46733	16
0.47100	18
0.47467	18
0.47833	17
0.48200	15
0.48567	14
0.48933	13
0.49300	15
0.49667	16
0.50033	18
0.50400	19
0.50767	20
0.51133	21
0.51500	20
0.51867	19
0.52233	19
0.52600	20
0.52967	21
0.53333	22
0.53700	21
0.54067	19
0.54433	18
0.54800	18
0.55167	18
0.55533	19
0.55900	20
0.56267	19
0.56633	17
0.57000	16
0.57367	17
0.57733	18
0.58100	19
0.58467	20
0.58833	21
0.59200	24
0.59567	25
0.59933	24
0.60300	24
0.60667	22
0.61033	21
0.61400	22
0.61767	21
0.62133	20
0.62500	20
0.62867	20
0.63233	21
0.63600	23
0.63967	23
0.64333	23
0.64700	23
0.65067	25
0.65433	26
0.65800	27
0.66167	27
0.66533	26
0.66900	26
0.67267	27
0.67633	28
0.68000	27
0.68367	25
0.68733	26
0.69100	25
0.69467	24
0.69833	23
0.70200	22
0.70567	22
0.70933	23
0.71300	22
0.71667	22
0.72033	22
0.72400	22
0.72767	22
0.73133	21
0.73500	22
0.73867	25
0.74233	28
0.74600	30
0.74967	29
0.75333	29
0.75700	29
0.76067	28
0.76433	27
0.76800	25
0.77167	22
0.77533	20
0.77900	19
0.78267	18
0.78633	17
0.79000	18
0.79367	18
0.79733	20
0.80100	22
0.80467	24
0.80833	24
0.81200	25
0.81567	25
0.81933	26
0.82300	27
0.82667	30
0.83033	32
0.83400	34
0.83767	35
0.84133	33
0.84500	31
0.84867	28
0.85233	27
0.85600	29
0.85967	29
0.86333	26
0.86700	25
0.87067	28
0.87433	30
0.87800	29
0.88167	28
0.88533	26
0.88900	25
0.89267	27
0.89633	26
0.90000	25
0.90367	26
0.90733	27
0.91100	30
0.91467	32
0.91833	33
0.92200	33
0.92567	34
0.92933	33
0.93300	32
0.93667	30
0.94033	27
0.94400	23
0.94767	23
0.95133	24
0.95500	27
0.95867	29
0.96233	28
0.96600	26
0.96967	28
0.97333	29
0.97700	29
0.98067	28
0.98433	27
0.98800	27
0.99167	27
0.99533	26
0.99900	26
1.00267	28
1.00633	30
1.01000	31
1.01367	32
1.01733	32
1.02100	30
1.02467	30
1.02833	30
1.03200	31
1.03567	31
1.03933	32
1.04300	33
1.04667	34
1.05033	36
1.05400	36
1.05767	36
1.06133	34
1.06500	34
1.06867	34
1.07233	35
1.07600	37
1.07967	37
1.08333	37
1.08700	40
1.09067	41
1.09433	41
1.09800	39
1.10167	38
1.10533	39
1.10900	38
1.11267	37
1.11633	37
1.12000	36
1.12367	38
1.12733	36
1.13100	34
1.13467	34
1.13833	31
1.14200	32
1.14567	34
1.14933	32
1.15300	29
1.15667	27
1.16033	27
1.16400	28
1.16767	28
1.17133	29
1.17500	31
1.17867	32
1.18233	33
1.18600	34
1.18967	36
1.19333	38
1.19700	35
1.20067	33
1.20433	32
1.20800	33
1.21167	35
1.21533	39
1.21900	40
1.22267	38
1.22633	37
1.23000	36
1.23367	37
1.23733	39
1.24100	40
1.24467	40
1.24833	38
1.25200	35
1.25567	31
1.25933	32
1.26300	32
1.26667	33
1.27033	32
1.27400	33
1.27767	34
1.28133	34
1.28500	34
1.28867	34
1.29233	35
1.29600	35
1.29967	34
1.30333	34
1.30700	32
1.31067	32
1.31433	34
1.31800	33
1.32167	34
1.32533	35
1.32900	34
1.33267	34
1.33633	34
1.34000	35
1.34367	35
1.34733	35
1.35100	35
1.35467	33
1.35833	32
1.36200	35
1.36567	37
1.36933	36
1.37300	37
1.37667	37
1.38033	37
1.38400	37
1.38767	37
1.39133	34
1.39500	33
1.39867	34
1.40233	36
1.40600	35
1.40967	33
1.41333	30
1.41700	29
1.42067	29
1.42433	31
1.42800	32
1.43167	31
1.43533	33
1.43900	35
1.44267	36
1.44633	36
1.45000	35
1.45367	37
1.45733	36
1.46100	35
1.46467	35
1.46833	34
1.47200	34
1.47567	35
1.47933	34
1.48300	31
1.48667	30
1.49033	29
1.49400	30
1.49767	29
1.50133	28
1.50500	27
1.50867	28
1.51233	30
1.51600	30
1.51967	31
1.52333	33
1.52700	34
1.53067	33
1.53433	31
1.53800	30
1.54167	29
1.54533	30
1.54900	30
1.55267	31
1.55633	30
1.56000	30
1.56367	31
1.56733	31
1.57100	31
1.57467	30
1.57833	30
1.58200	29
1.58567	31
1.58933	32
1.59300	30
1.59667	30
1.60033	30
1.60400	34
1.60767	37
1.61133	39
1.61500	40
1.61867	40
1.62233	41
1.62600	43
1.62967	44
1.63333	45
1.63700	45
1.64067	44
1.64433	43
1.64800	42
1.65167	41
1.65533	41
1.65900	42
1.66267	42
1.66633	44
1.67000	45
1.67367	44
1.67733	41
1.68100	41
1.68467	40
1.68833	40
1.69200	41
1.69567	42
1.69933	43
1.70300	43
1.70667	43
1.71033	43
1.71400	44
1.71767	45
1.72133	43
1.72500	40
1.72867	41
1.73233	44
1.73600	49
1.73967	52
1.74333	55
1.74700	57
1.75067	59
1.75433	59
1.75800	57
1.76167	55
1.76533	53
1.76900	51
1.77267	50
1.77633	49
1.78000	51
1.78367	54
1.78733	55
1.79100	56
1.79467	57
1.79833	58
1.80200	60
1.80567	60
1.80933	60
1.81300	60
1.81667	61
1.82033	63
1.82400	64
1.82767	62
1.83133	60
1.83500	61
1.83867	61
1.84233	63
1.84600	64
1.84967	67
1.85333	69
1.85700	68
1.86067	67
1.86433	68
1.86800	68
1.87167	69
1.87533	67
1.87900	65
1.88267	65
1.88633	67
1.89000	70
1.89367	71
1.89733	72
1.90100	73
1.90467	72
1.90833	70
1.91200	69
1.91567	68
1.91933	68
1.92300	68
1.92667	66
1.93033	66
1.93400	68
1.93767	69
1.94133	68
1.94500	68
1.94867	68
1.95233	68
1.95600	69
1.95967	72
1.96333	73
1.96700	74
1.97067	77
1.97433	81
1.97800	82
1.98167	82
1.98533	80
1.98900	78
1.99267	78
1.99633	81
2.00000	83
2.00367	87
2.00733	89
2.01100	88
2.01467	89
2.01833	87
2.02200	86
2.02567	85
2.02933	84
2.03300	85
2.03667	88
2.04033	90
2.04400	92
2.04767	93
2.05133	95
2.05500	97
2.05867	98
2.06233	100
2.06600	100
2.06967	99
2.07333	98
2.07700	98
2.08067	99
2.08433	101
2.08800	101
2.09167	101
2.09533	99
2.09900	96
2.10267	97
2.10633	97
2.11000	97
2.11367	98
2.11733	101
2.12100	104
2.12467	107
2.12833	111
2.13200	111
2.13567	111
2.13933	110
2.14300	110
2.14667	111
2.15033	111
2.15400	111
2.15767	114
2.16133	117
2.16500	119
2.16867	121
2.17233	122
2.17600	120
2.17967	118
2.18333	120
2.18700	124
2.19067	125
2.19433	125
2.19800	124
2.20167	123
2.20533	121
2.20900	119
2.21267	120
2.21633	122
2.22000	125
2.22367	128
2.22733	129
2.23100	130
2.23467	131
2.23833	131
2.24200	130
2.24567	130
2.24933	131
2.25300	130
2.25667	131
2.26033	131
2.26400	132
2.26767	132
2.27133	131
2.27500	131
2.27867	131
2.28233	130
2.28600	131
2.28967	135
2.29333	138
2.29700	139
2.30067	137
2.30433	136
2.30800	137
2.31167	138
2.31533	141
2.31900	144
2.32267	145
2.32633	144
2.33000	143
2.33367	141
2.33733	138
2.34100	139
2.34467	141
2.34833	145
2.35200	147
2.35567	148
2.35933	148
2.36300	151
2.36667	154
2.37033	154
2.37400	154
2.37767	152
2.38133	151
2.38500	152
2.38867	153
2.39233	154
2.39600	154
2.39967	152
2.40333	151
2.40700	151
2.41067	153
2.41433	155
2.41800	158
2.42167	160
2.42533	161
2.42900	162
2.43267	162
2.43633	164
2.44000	166
2.44367	172
2.44733	187
2.45100	210
2.45467	240
2.45833	278
2.46200	324
2.46567	376
2.46933	431
2.47300	487
2.47667	543
2.48033	599
2.48400	651
2.48767	698
2.49133	743
2.49500	783
2.49867	819
2.50233	850
2.50600	877
2.50967	901
2.51333	917
2.51700	930
2.52067	944
2.52433	957
2.52800	968
2.53167	978
2.53533	988
2.53900	998
2.54267	1007
2.54633	1015
2.55000	1022
2.55367	1029
2.55733	1033
2.56100	1034
2.56467	1036
2.56833	1035
2.57200	1033
2.57567	1034
2.57933	1035
2.58300	1033
2.58667	1029
2.59033	1024
2.59400	1019
2.59767	1010
2.60133	998
2.60500	982
2.60867	960
2.61233	931
2.61600	899
2.61967	864
2.62333	826
2.62700	788
2.63067	753
2.63433	723
2.63800	698
2.64167	680
2.64533	666
2.64900	660
2.65267	658
2.65633	659
2.66000	663
2.66367	670
2.66733	682
2.67100	693
2.67467	702
2.67833	714
2.68200	726
2.68567	736
2.68933	749
2.69300	761
2.69667	771
2.70033	779
2.70400	785
2.70767	791
2.71133	798
2.71500	804
2.71867	808
2.72233	810
2.72600	814
2.72967	821
2.73333	825
2.73700	827
2.74067	828
2.74433	828
2.74800	831
2.75167	833
2.75533	835
2.75900	834
2.76267	833
2.76633	830
2.77000	828
2.77367	828
2.77733	826
2.78100	822
2.78467	819
2.78833	816
2.79200	815
2.79567	816
2.79933	815
2.80300	815
2.80667	815
2.81033	816
2.81400	813
2.81767	810
2.82133	810
2.82500	815
2.82867	827
2.83233	853
2.83600	910
2.83967	1016
2.84333	1196
2.84700	1472
2.85067	1854
2.85433	2345
2.85800	2922
2.86167	3553
2.86533	4187
2.86900	4770
2.87267	5256
2.87633	5610
2.88000	5813
2.88367	5862
2.88733	5772
2.89100	5570
2.89467	5285
2.89833	4947
2.90200	4581
2.90567	4210
2.90933	3846
2.91300	3500
2.91667	3178
2.92033	2881
2.92400	2613
2.92767	2375
2.93133	2163
2.93500	1976
2.93867	1811
2.94233	1666
2.94600	1539
2.94967	1433
2.95333	1341
2.95700	1261
2.96067	1193
2.96433	1134
2.96800	1082
2.97167	1035
2.97533	996
2.97900	962
2.98267	932
2.98633	904
2.99000	879
2.99367	857
2.99733	842
3.00100	828
3.00467	816
3.00833	805
3.01200	793
3.01567	783
3.01933	777
3.02300	771
3.02667	767
3.03033	765
3.03400	761
3.03767	756
3.04133	751
3.04500	746
3.04867	740
3.05233	736
3.05600	733
3.05967	731
3.06333	731
3.06700	729
3.07067	727
3.07433	724
3.07800	722
3.08167	722
3.08533	724
3.08900	723
3.09267	721
3.09633	716
3.10000	712
3.10367	712
3.10733	713
3.11100	712
3.11467	710
3.11833	705
3.12200	701
3.12567	698
3.12933	695
3.13300	692
3.13667	690
3.14033	686
3.14400	684
3.14767	681
3.15133	679
3.15500	680
3.15867	680
3.16233	676
3.16600	674
3.16967	673
3.17333	673
3.17700	671
3.18067	670
3.18433	667
3.18800	666
3.19167	665
3.19533	661
3.19900	658
3.20267	655
3.20633	654
3.21000	654
3.21367	653
3.21733	650
3.22100	647
3.22467	644
3.22833	643
3.23200	643
3.23567	641
3.23933	639
3.24300	637
3.24667	635
3.25033	632
3.25400	634
3.25767	635
3.26133	633
3.26500	632
3.26867	629
3.27233	627
3.27600	625
3.27967	622
3.28333	618
3.28700	614
3.29067	607
3.29433	603
3.29800	601
3.30167	600
3.30533	596
3.30900	595
3.31267	595
3.31633	593
3.32000	589
3.32367	585
3.32733	582
3.33100	579
3.33467	576
3.33833	573
3.34200	571
3.34567	568
3.34933	565
3.35300	562
3.35667	558
3.36033	555
3.36400	551
3.36767	548
3.37133	547
3.37500	544
3.37867	542
3.38233	543
3.38600	540
3.38967	538
3.39333	534
3.39700	531
3.40067	527
3.40433	525
3.40800	522
3.41167	520
3.41533	519
3.41900	518
3.42267	515
3.42633	510
3.43000	505
3.43367	503
3.43733	501
3.44100	497
3.44467	496
3.44833	495
3.45200	493
3.45567	490
3.45933	488
3.46300	483
3.46667	480
3.47033	477
3.47400	476
3.47767	475
3.48133	474
3.48500	473
3.48867	471
3.49233	468
3.49600	466
3.49967	465
3.50333	463
3.50700	462
3.51067	459
3.51433	455
3.51800	454
3.52167	452
3.52533	449
3.52900	447
3.53267	444
3.53633	441
3.54000	438
3.54367	436
3.54733	436
3.55100	434
3.55467	432
3.55833	430
3.56200	429
3.56567	430
3.56933	429
3.57300	427
3.57667	423
3.58033	419
3.58400	416
3.58767	414
3.59133	414
3.59500	412
3.59867	411
3.60233	409
3.60600	408
3.60967	407
3.61333	404
3.61700	403
3.62067	400
3.62433	397
3.62800	396
3.63167	393
3.63533	392
3.63900	393
3.64267	395
3.64633	391
3.65000	386
3.65367	382
3.65733	379
3.66100	377
3.66467	373
3.66833	372
3.67200	374
3.67567	376
3.67933	375
3.68300	373
3.68667	370
3.69033	365
3.69400	363
3.69767	363
3.70133	363
3.70500	363
3.70867	364
3.71233	366
3.71600	368
3.71967	369
3.72333	366
3.72700	361
3.73067	357
3.73433	354
3.73800	352
3.74167	352
3.74533	351
3.74900	350
3.75267	346
3.75633	344
3.76000	344
3.76367	345
3.76733	343
3.77100	343
3.77467	344
3.77833	344
3.78200	343
3.78567	341
3.78933	338
3.79300	338
3.79667	339
3.80033	337
3.80400	335
3.80767	334
3.81133	332
3.81500	331
3.81867	329
3.82233	326
3.82600	322
3.82967	322
3.83333	324
3.83700	326
3.84067	326
3.84433	325
3.84800	323
3.85167	320
3.85533	318
3.85900	318
3.86267	318
3.86633	317
3.87000	315
3.87367	314
3.87733	313
3.88100	314
3.88467	313
3.88833	313
3.89200	313
3.89567	311
3.89933	308
3.90300	306
3.90667	307
3.91033	308
3.91400	306
3.91767	302
3.92133	300
3.92500	301
3.92867	299
3.93233	300
3.93600	300
3.93967	299
3.94333	297
3.94700	297
3.95067	296
3.95433	297
3.95800	297
3.96167	296
3.96533	296
3.96900	295
3.97267	291
3.97633	290
3.98000	289
3.98367	290
3.98733	291
3.99100	289
3.99467	287
3.99833	286

[Status Trace (Column Oven Temperature)]
Interval(msec)	1000
# of Points	240
Start Time(min)	0.016
End Time(min)	3.999
Intensity Units	
Intensity Multiplier	1
R.Time (min)	Intensity
0.01612	35.02
0.03278	35.03
0.04945	35.03
0.06612	35.02
0.08278	35.02
0.09945	35.01
0.11612	35.00
0.13278	34.99
0.14945	34.99
0.16612	34.97
0.18278	34.96
0.19945	34.95
0.21612	34.94
0.23278	34.95
0.24945	34.96
0.26612	34.95
0.28278	34.97
0.29945	34.98
0.31612	34.97
0.33278	34.98
0.34945	34.98
0.36612	34.98
0.38278	34.98
0.39945	34.98
0.41612	34.98
0.43278	34.98
0.44945	34.97
0.46612	34.98
0.48278	34.98
0.49945	34.97
0.51612	34.96
0.53278	34.96
0.54945	34.96
0.56612	34.97
0.58278	34.99
0.59945	34.99
0.61612	35.00
0.63278	35.00
0.64945	35.00
0.66612	35.00
0.68278	34.99
0.69945	34.99
0.71612	34.99
0.73278	35.00
0.74945	35.00
0.76612	34.99
0.78278	34.99
0.79945	34.98
0.81612	34.98
0.83278	34.98
0.84945	34.99
0.86612	34.99
0.88278	35.00
0.89945	34.99
0.91612	34.98
0.93278	34.98
0.94945	34.98
0.96612	34.97
0.98278	34.97
0.99945	34.98
1.01612	34.99
1.03278	34.99
1.04945	34.97
1.06612	34.97
1.08278	34.97
1.09945	34.97
1.11612	34.98
1.13278	34.99
1.14945	35.00
1.16612	35.02
1.18278	35.02
1.19945	35.01
1.21612	35.01
1.23278	35.01
1.24945	35.00
1.26612	34.99
1.28278	35.00
1.29945	35.00
1.31612	35.00
1.33278	35.00
1.34945	35.01
1.36612	35.01
1.38278	35.01
1.39945	35.01
1.41612	35.00
1.43278	34.98
1.44945	34.98
1.46612	34.99
1.48278	34.98
1.49945	34.99
1.51612	35.00
1.53278	35.00
1.54945	35.01
1.56612	35.01
1.58278	35.01
1.59945	35.04
1.61612	35.13
1.63278	35.29
1.64945	35.51
1.66612	35.78
1.68278	36.14
1.69945	36.50
1.71612	36.83
1.73278	37.18
1.74945	37.53
1.76612	37.84
1.78278	38.14
1.79945	38.48
1.81612	38.82
1.83278	39.16
1.84945	39.48
1.86612	39.81
1.88278	40.14
1.89945	40.47
1.91612	40.81
1.93278	41.12
1.94945	41.46
1.96612	41.77
1.98278	42.11
1.99945	42.43
2.01612	42.76
2.03278	43.08
2.04945	43.43
2.06612	43.74
2.08278	44.07
2.09945	44.40
2.11612	44.72
2.13278	45.06
2.14945	45.37
2.16612	45.70
2.18278	46.05
2.19945	46.37
2.21612	46.69
2.23278	47.04
2.24945	47.36
2.26612	47.67
2.28278	48.00
2.29945	48.31
2.31612	48.66
2.33278	48.97
2.34945	49.29
2.36612	49.55
2.38278	49.69
2.39945	49.72
2.41612	49.71
2.43278	49.72
2.44945	49.74
2.46612	49.74
2.48278	49.77
2.49945	49.77
2.51612	49.77
2.53278	49.80
2.54945	49.80
2.56612	49.81
2.58278	49.81
2.59945	49.82
2.61612	49.83
2.63278	49.82
2.64945	49.83
2.66612	49.84
2.68278	49.85
2.69945	49.86
2.71612	49.86
2.73278	49.84
2.74945	49.86
2.76612	49.87
2.78278	49.88
2.79945	49.87
2.81612	49.88
2.83278	49.88
2.84945	49.90
2.86612	49.93
2.88278	49.95
2.89945	49.98
2.91612	50.00
2.93278	50.01
2.94945	50.01
2.96612	50.01
2.98278	50.00
2.99945	50.00
3.01612	50.01
3.03278	50.01
3.04945	50.02
3.06612	50.03
3.08278	50.03
3.09945	50.03
3.11612	50.03
3.13278	50.04
3.14945	50.05
3.16612	50.07
3.18278	50.08
3.19945	50.09
3.21612	50.10
3.23278	50.09
3.24945	50.10
3.26612	50.08
3.28278	50.08
3.29945	50.08
3.31612	50.09
3.33278	50.08
3.34945	50.08
3.36612	50.09
3.38278	50.10
3.39945	50.10
3.41612	50.10
3.43278	50.09
3.44945	50.08
3.46612	50.07
3.48278	50.06
3.49945	50.08
3.51612	50.09
3.53278	50.11
3.54945	50.11
3.56612	50.11
3.58278	50.10
3.59945	50.08
3.61612	50.06
3.63278	50.04
3.64945	50.02
3.66612	50.01
3.68278	50.01
3.69945	50.01
3.71612	50.00
3.73278	50.00
3.74945	50.00
3.76612	50.01
3.78278	50.01
3.79945	50.01
3.81612	50.01
3.83278	50.00
3.84945	49.99
3.86612	49.99
3.88278	49.99
3.89945	50.00
3.91612	50.00
3.93278	50.01
3.94945	50.01
3.96612	50.02
3.98278	50.02
3.99945	50.03

[Status Trace (Injection Unit Temperature)]
Interval(msec)	1000
# of Points	240
Start Time(min)	0.016
End Time(min)	3.999
Intensity Units	
Intensity Multiplier	1
R.Time (min)	Intensity
0.01612	99.99
0.03278	99.99
0.04945	99.98
0.06612	99.99
0.08278	99.99
0.09945	99.99
0.11612	99.99
0.13278	99.99
0.14945	99.99
0.16612	99.99
0.18278	99.99
0.19945	99.99
0.21612	99.99
0.23278	99.99
0.24945	99.99
0.26612	99.99
0.28278	99.99
0.29945	99.98
0.31612	99.99
0.33278	99.99
0.34945	99.99
0.36612	99.99
0.38278	99.99
0.39945	99.98
0.41612	99.99
0.43278	99.99
0.44945	99.98
0.46612	99.99
0.48278	99.99
0.49945	99.99
0.51612	99.99
0.53278	99.99
0.54945	99.98
0.56612	99.99
0.58278	99.99
0.59945	99.99
0.61612	99.99
0.63278	99.99
0.64945	99.99
0.66612	99.98
0.68278	99.99
0.69945	99.99
0.71612	99.98
0.73278	99.98
0.74945	99.99
0.76612	99.98
0.78278	99.99
0.79945	99.98
0.81612	99.98
0.83278	99.98
0.84945	99.99
0.86612	99.98
0.88278	99.99
0.89945	99.98
0.91612	99.98
0.93278	99.99
0.94945	99.99
0.96612	99.98
0.98278	99.98
0.99945	99.99
1.01612	99.98
1.03278	99.98
1.04945	99.98
1.06612	99.98
1.08278	99.99
1.09945	99.98
1.11612	99.99
1.13278	99.98
1.14945	99.98
1.16612	99.99
1.18278	99.99
1.19945	99.99
1.21612	99.99
1.23278	99.99
1.24945	99.99
1.26612	99.99
1.28278	99.99
1.29945	99.99
1.31612	99.99
1.33278	99.99
1.34945	99.99
1.36612	99.99
1.38278	99.99
1.39945	99.99
1.41612	100.00
1.43278	99.99
1.44945	99.99
1.46612	99.99
1.48278	99.99
1.49945	99.99
1.51612	99.99
1.53278	99.99
1.54945	99.99
1.56612	99.99
1.58278	100.00
1.59945	100.00
1.61612	99.99
1.63278	99.99
1.64945	99.99
1.66612	100.00
1.68278	99.98
1.69945	100.00
1.71612	99.99
1.73278	100.00
1.74945	99.99
1.76612	99.99
1.78278	99.99
1.79945	99.99
1.81612	99.99
1.83278	99.99
1.84945	99.99
1.86612	99.99
1.88278	99.99
1.89945	99.98
1.91612	99.98
1.93278	99.98
1.94945	99.98
1.96612	99.98
1.98278	99.98
1.99945	99.98
2.01612	99.98
2.03278	99.98
2.04945	99.98
2.06612	99.97
2.08278	99.98
2.09945	99.98
2.11612	99.97
2.13278	99.97
2.14945	99.97
2.16612	99.97
2.18278	99.97
2.19945	99.97
2.21612	99.97
2.23278	99.97
2.24945	99.97
2.26612	99.97
2.28278	99.97
2.29945	99.97
2.31612	99.97
2.33278	99.97
2.34945	99.97
2.36612	99.97
2.38278	99.97
2.39945	99.97
2.41612	99.97
2.43278	99.97
2.44945	99.97
2.46612	99.97
2.48278	99.97
2.49945	99.97
2.51612	99.98
2.53278	99.97
2.54945	99.98
2.56612	99.98
2.58278	99.98
2.59945	99.98
2.61612	99.98
2.63278	99.98
2.64945	99.98
2.66612	99.99
2.68278	99.99
2.69945	99.99
2.71612	99.99
2.73278	99.99
2.74945	99.99
2.76612	99.99
2.78278	100.00
2.79945	100.00
2.81612	100.00
2.83278	100.00
2.84945	100.00
2.86612	100.01
2.88278	100.01
2.89945	100.00
2.91612	100.01
2.93278	100.01
2.94945	100.01
2.96612	100.01
2.98278	100.02
2.99945	100.01
3.01612	100.02
3.03278	100.02
3.04945	100.02
3.06612	100.02
3.08278	100.02
3.09945	100.02
3.11612	100.02
3.13278	100.02
3.14945	100.02
3.16612	100.02
3.18278	100.03
3.19945	100.02
3.21612	100.03
3.23278	100.03
3.24945	100.03
3.26612	100.03
3.28278	100.03
3.29945	100.03
3.31612	100.04
3.33278	100.04
3.34945	100.03
3.36612	100.03
3.38278	100.04
3.39945	100.04
3.41612	100.04
3.43278	100.04
3.44945	100.04
3.46612	100.04
3.48278	100.04
3.49945	100.05
3.51612	100.04
3.53278	100.05
3.54945	100.05
3.56612	100.05
3.58278	100.05
3.59945	100.05
3.61612	100.05
3.63278	100.05
3.64945	100.05
3.66612	100.05
3.68278	100.05
3.69945	100.05
3.71612	100.05
3.73278	100.05
3.74945	100.05
3.76612	100.05
3.78278	100.05
3.79945	100.05
3.81612	100.05
3.83278	100.05
3.84945	100.05
3.86612	100.05
3.88278	100.05
3.89945	100.05
3.91612	100.05
3.93278	100.05
3.94945	100.05
3.96612	100.05
3.98278	100.05
3.99945	100.05

[Status Trace (Carrier Gas Pressure)]
Interval(msec)	1000
# of Points	240
Start Time(min)	0.016
End Time(min)	3.999
Intensity Units	
Intensity Multiplier	1
R.Time (min)	Intensity
0.01612	56.93
0.03278	55.87
0.04945	58.11
0.06612	59.90
0.08278	58.52
0.09945	57.97
0.11612	58.00
0.13278	58.01
0.14945	58.01
0.16612	58.00
0.18278	58.00
0.19945	58.00
0.21612	58.00
0.23278	58.00
0.24945	58.00
0.26612	58.00
0.28278	58.00
0.29945	58.00
0.31612	58.00
0.33278	58.00
0.34945	58.00
0.36612	58.00
0.38278	58.00
0.39945	58.00
0.41612	58.00
0.43278	58.00
0.44945	58.00
0.46612	58.00
0.48278	58.00
0.49945	58.00
0.51612	58.00
0.53278	58.00
0.54945	58.00
0.56612	58.00
0.58278	58.00
0.59945	58.00
0.61612	58.00
0.63278	58.00
0.64945	58.00
0.66612	58.00
0.68278	58.00
0.69945	58.00
0.71612	58.00
0.73278	58.00
0.74945	58.00
0.76612	58.00
0.78278	58.00
0.79945	58.00
0.81612	58.00
0.83278	58.00
0.84945	58.00
0.86612	58.00
0.88278	58.00
0.89945	58.00
0.91612	58.00
0.93278	58.00
0.94945	58.00
0.96612	58.00
0.98278	58.00
0.99945	58.00
1.01612	58.00
1.03278	58.00
1.04945	58.00
1.06612	58.00
1.08278	58.00
1.09945	58.00
1.11612	58.00
1.13278	58.00
1.14945	58.00
1.16612	58.00
1.18278	58.00
1.19945	58.00
1.21612	58.00
1.23278	58.00
1.24945	58.00
1.26612	58.00
1.28278	58.00
1.29945	58.00
1.31612	58.00
1.33278	58.00
1.34945	58.00
1.36612	58.00
1.38278	58.00
1.39945	58.00
1.41612	58.00
1.43278	58.00
1.44945	58.00
1.46612	58.00
1.48278	58.00
1.49945	58.00
1.51612	58.00
1.53278	58.00
1.54945	58.00
1.56612	58.00
1.58278	58.00
1.59945	58.00
1.61612	58.00
1.63278	58.00
1.64945	58.00
1.66612	58.00
1.68278	58.01
1.69945	58.00
1.71612	58.00
1.73278	58.00
1.74945	58.00
1.76612	58.00
1.78278	58.00
1.79945	58.00
1.81612	58.00
1.83278	58.00
1.84945	58.00
1.86612	58.00
1.88278	58.00
1.89945	58.00
1.91612	58.00
1.93278	58.00
1.94945	58.00
1.96612	58.00
1.98278	58.00
1.99945	58.00
2.01612	58.00
2.03278	58.00
2.04945	58.00
2.06612	58.00
2.08278	58.00
2.09945	58.00
2.11612	58.00
2.13278	58.00
2.14945	58.00
2.16612	58.00
2.18278	58.00
2.19945	58.00
2.21612	58.00
2.23278	58.00
2.24945	58.00
2.26612	58.00
2.28278	58.00
2.29945	58.00
2.31612	58.00
2.33278	58.00
2.34945	58.00
2.36612	58.00
2.38278	57.99
2.39945	57.99
2.41612	58.00
2.43278	58.00
2.44945	58.00
2.46612	58.00
2.48278	58.00
2.49945	58.00
2.51612	57.99
2.53278	57.99
2.54945	58.00
2.56612	58.00
2.58278	58.00
2.59945	58.00
2.61612	58.00
2.63278	58.00
2.64945	58.00
2.66612	58.00
2.68278	58.00
2.69945	58.00
2.71612	58.00
2.73278	58.00
2.74945	58.00
2.76612	58.00
2.78278	58.00
2.79945	58.00
2.81612	58.00
2.83278	58.00
2.84945	58.00
2.86612	58.00
2.88278	58.00
2.89945	58.00
2.91612	58.00
2.93278	58.00
2.94945	58.00
2.96612	58.00
2.98278	58.00
2.99945	58.00
3.01612	58.00
3.03278	58.00
3.04945	58.00
3.06612	58.00
3.08278	58.00
3.09945	58.00
3.11612	58.00
3.13278	58.00
3.14945	58.00
3.16612	58.00
3.18278	58.00
3.19945	58.00
3.21612	58.00
3.23278	58.00
3.24945	58.00
3.26612	58.00
3.28278	58.00
3.29945	58.00
3.31612	58.00
3.33278	58.00
3.34945	58.00
3.36612	58.00
3.38278	58.00
3.39945	58.00
3.41612	58.00
3.43278	58.00
3.44945	58.00
3.46612	58.00
3.48278	58.00
3.49945	58.00
3.51612	58.00
3.53278	58.00
3.54945	58.00
3.56612	58.00
3.58278	58.00
3.59945	58.00
3.61612	58.00
3.63278	58.00
3.64945	58.00
3.66612	58.00
3.68278	58.00
3.69945	58.00
3.71612	58.00
3.73278	58.00
3.74945	58.00
3.76612	58.00
3.78278	58.00
3.79945	58.00
3.81612	58.00
3.83278	58.00
3.84945	58.00
3.86612	58.00
3.88278	58.00
3.89945	58.00
3.91612	58.00
3.93278	58.00
3.94945	58.00
3.96612	58.00
3.98278	58.00
3.99945	58.00

[Status Trace (Carrier Gas Flow)]
Interval(msec)	1000
# of Points	240
Start Time(min)	0.016
End Time(min)	3.999
Intensity Units	
Intensity Multiplier	1
R.Time (min)	Intensity
0.01612	33.88
0.03278	34.53
0.04945	34.54
0.06612	34.51
0.08278	34.52
0.09945	34.52
0.11612	34.52
0.13278	34.52
0.14945	34.52
0.16612	34.52
0.18278	34.52
0.19945	34.52
0.21612	34.52
0.23278	34.52
0.24945	34.52
0.26612	34.52
0.28278	34.52
0.29945	34.52
0.31612	34.52
0.33278	34.52
0.34945	34.52
0.36612	34.52
0.38278	34.52
0.39945	34.52
0.41612	34.52
0.43278	34.52
0.44945	34.52
0.46612	34.52
0.48278	34.52
0.49945	34.52
0.51612	34.52
0.53278	34.52
0.54945	34.52
0.56612	34.52
0.58278	34.52
0.59945	34.52
0.61612	34.52
0.63278	34.52
0.64945	34.52
0.66612	34.52
0.68278	34.52
0.69945	34.52
0.71612	34.52
0.73278	34.52
0.74945	34.52
0.76612	34.52
0.78278	34.52
0.79945	34.52
0.81612	34.52
0.83278	34.52
0.84945	34.52
0.86612	34.52
0.88278	34.52
0.89945	34.52
0.91612	34.52
0.93278	34.52
0.94945	34.52
0.96612	34.52
0.98278	34.52
0.99945	34.52
1.01612	34.52
1.03278	34.52
1.04945	34.52
1.06612	34.52
1.08278	34.52
1.09945	34.52
1.11612	34.52
1.13278	34.52
1.14945	34.52
1.16612	34.52
1.18278	34.52
1.19945	34.52
1.21612	34.52
1.23278	34.52
1.24945	34.52
1.26612	34.52
1.28278	34.52
1.29945	34.52
1.31612	34.52
1.33278	34.52
1.34945	34.52
1.36612	34.52
1.38278	34.52
1.39945	34.52
1.41612	34.52
1.43278	34.52
1.44945	34.52
1.46612	34.52
1.48278	34.52
1.49945	34.52
1.51612	34.52
1.53278	34.52
1.54945	34.52
1.56612	34.52
1.58278	34.52
1.59945	34.52
1.61612	34.52
1.63278	34.52
1.64945	34.52
1.66612	34.52
1.68278	34.52
1.69945	34.52
1.71612	34.52
1.73278	34.52
1.74945	34.52
1.76612	34.52
1.78278	34.52
1.79945	34.52
1.81612	34.52
1.83278	34.52
1.84945	34.52
1.86612	34.52
1.88278	34.52
1.89945	34.52
1.91612	34.52
1.93278	34.52
1.94945	34.52
1.96612	34.52
1.98278	34.52
1.99945	34.52
2.01612	34.52
2.03278	34.52
2.04945	34.52
2.06612	34.52
2.08278	34.52
2.09945	34.52
2.11612	34.52
2.13278	34.52
2.14945	34.52
2.16612	34.52
2.18278	34.52
2.19945	34.52
2.21612	34.52
2.23278	34.52
2.24945	34.52
2.26612	34.52
2.28278	34.52
2.29945	34.52
2.31612	34.52
2.33278	34.52
2.34945	34.52
2.36612	34.52
2.38278	34.50
2.39945	34.52
2.41612	34.52
2.43278	34.52
2.44945	34.52
2.46612	34.52
2.48278	34.52
2.49945	34.52
2.51612	34.52
2.53278	34.52
2.54945	34.52
2.56612	34.52
2.58278	34.52
2.59945	34.52
2.61612	34.51
2.63278	34.53
2.64945	34.53
2.66612	34.51
2.68278	34.51
2.69945	34.52
2.71612	34.53
2.73278	34.51
2.74945	34.52
2.76612	34.52
2.78278	34.52
2.79945	34.52
2.81612	34.51
2.83278	34.51
2.84945	34.52
2.86612	34.52
2.88278	34.52
2.89945	34.52
2.91612	34.52
2.93278	34.52
2.94945	34.52
2.96612	34.52
2.98278	34.52
2.99945	34.52
3.01612	34.52
3.03278	34.52
3.04945	34.52
3.06612	34.52
3.08278	34.52
3.09945	34.52
3.11612	34.52
3.13278	34.52
3.14945	34.52
3.16612	34.52
3.18278	34.52
3.19945	34.52
3.21612	34.52
3.23278	34.52
3.24945	34.52
3.26612	34.52
3.28278	34.52
3.29945	34.52
3.31612	34.52
3.33278	34.52
3.34945	34.52
3.36612	34.52
3.38278	34.52
3.39945	34.52
3.41612	34.52
3.43278	34.52
3.44945	34.52
3.46612	34.52
3.48278	34.52
3.49945	34.52
3.51612	34.52
3.53278	34.52
3.54945	34.52
3.56612	34.52
3.58278	34.52
3.59945	34.52
3.61612	34.52
3.63278	34.52
3.64945	34.52
3.66612	34.52
3.68278	34.52
3.69945	34.52
3.71612	34.52
3.73278	34.52
3.74945	34.52
3.76612	34.52
3.78278	34.52
3.79945	34.52
3.81612	34.52
3.83278	34.52
3.84945	34.52
3.86612	34.52
3.88278	34.52
3.89945	34.52
3.91612	34.52
3.93278	34.52
3.94945	34.52
3.96612	34.52
3.98278	34.52
3.99945	34.52

[Status Trace (Column Flow)]
Interval(msec)	1000
# of Points	240
Start Time(min)	0.016
End Time(min)	3.999
Intensity Units	
Intensity Multiplier	1
R.Time (min)	Intensity
0.01612	5.38
0.03278	5.26
0.04945	5.52
0.06612	5.73
0.08278	5.57
0.09945	5.50
0.11612	5.50
0.13278	5.51
0.14945	5.51
0.16612	5.51
0.18278	5.51
0.19945	5.51
0.21612	5.51
0.23278	5.51
0.24945	5.51
0.26612	5.51
0.28278	5.51
0.29945	5.51
0.31612	5.51
0.33278	5.51
0.34945	5.51
0.36612	5.51
0.38278	5.51
0.39945	5.51
0.41612	5.51
0.43278	5.51
0.44945	5.51
0.46612	5.51
0.48278	5.51
0.49945	5.51
0.51612	5.51
0.53278	5.51
0.54945	5.51
0.56612	5.51
0.58278	5.51
0.59945	5.51
0.61612	5.50
0.63278	5.50
0.64945	5.50
0.66612	5.50
0.68278	5.50
0.69945	5.50
0.71612	5.50
0.73278	5.50
0.74945	5.50
0.76612	5.50
0.78278	5.50
0.79945	5.51
0.81612	5.51
0.83278	5.51
0.84945	5.51
0.86612	5.50
0.88278	5.50
0.89945	5.50
0.91612	5.51
0.93278	5.51
0.94945	5.51
0.96612	5.51
0.98278	5.51
0.99945	5.51
1.01612	5.50
1.03278	5.50
1.04945	5.51
1.06612	5.51
1.08278	5.51
1.09945	5.51
1.11612	5.51
1.13278	5.50
1.14945	5.50
1.16612	5.50
1.18278	5.50
1.19945	5.50
1.21612	5.50
1.23278	5.50
1.24945	5.50
1.26612	5.50
1.28278	5.50
1.29945	5.50
1.31612	5.50
1.33278	5.50
1.34945	5.50
1.36612	5.50
1.38278	5.50
1.39945	5.50
1.41612	5.50
1.43278	5.51
1.44945	5.51
1.46612	5.50
1.48278	5.51
1.49945	5.51
1.51612	5.50
1.53278	5.50
1.54945	5.50
1.56612	5.50
1.58278	5.50
1.59945	5.50
1.61612	5.50
1.63278	5.50
1.64945	5.49
1.66612	5.48
1.68278	5.47
1.69945	5.46
1.71612	5.45
1.73278	5.44
1.74945	5.43
1.76612	5.42
1.78278	5.41
1.79945	5.40
1.81612	5.39
1.83278	5.38
1.84945	5.37
1.86612	5.36
1.88278	5.35
1.89945	5.34
1.91612	5.33
1.93278	5.32
1.94945	5.31
1.96612	5.30
1.98278	5.29
1.99945	5.28
2.01612	5.27
2.03278	5.26
2.04945	5.25
2.06612	5.24
2.08278	5.23
2.09945	5.22
2.11612	5.21
2.13278	5.20
2.14945	5.19
2.16612	5.18
2.18278	5.17
2.19945	5.16
2.21612	5.16
2.23278	5.15
2.24945	5.14
2.26612	5.13
2.28278	5.12
2.29945	5.11
2.31612	5.10
2.33278	5.09
2.34945	5.08
2.36612	5.08
2.38278	5.07
2.39945	5.07
2.41612	5.07
2.43278	5.07
2.44945	5.07
2.46612	5.07
2.48278	5.07
2.49945	5.07
2.51612	5.07
2.53278	5.07
2.54945	5.07
2.56612	5.07
2.58278	5.07
2.59945	5.07
2.61612	5.07
2.63278	5.07
2.64945	5.07
2.66612	5.07
2.68278	5.07
2.69945	5.07
2.71612	5.07
2.73278	5.07
2.74945	5.07
2.76612	5.07
2.78278	5.07
2.79945	5.07
2.81612	5.07
2.83278	5.07
2.84945	5.07
2.86612	5.07
2.88278	5.06
2.89945	5.06
2.91612	5.06
2.93278	5.06
2.94945	5.06
2.96612	5.06
2.98278	5.06
2.99945	5.06
3.01612	5.06
3.03278	5.06
3.04945	5.06
3.06612	5.06
3.08278	5.06
3.09945	5.06
3.11612	5.06
3.13278	5.06
3.14945	5.06
3.16612	5.06
3.18278	5.06
3.19945	5.06
3.21612	5.06
3.23278	5.06
3.24945	5.06
3.26612	5.06
3.28278	5.06
3.29945	5.06
3.31612	5.06
3.33278	5.06
3.34945	5.06
3.36612	5.06
3.38278	5.06
3.39945	5.06
3.41612	5.06
3.43278	5.06
3.44945	5.06
3.46612	5.06
3.48278	5.06
3.49945	5.06
3.51612	5.06
3.53278	5.06
3.54945	5.06
3.56612	5.06
3.58278	5.06
3.59945	5.06
3.61612	5.06
3.63278	5.06
3.64945	5.06
3.66612	5.06
3.68278	5.06
3.69945	5.06
3.71612	5.06
3.73278	5.06
3.74945	5.06
3.76612	5.06
3.78278	5.06
3.79945	5.06
3.81612	5.06
3.83278	5.06
3.84945	5.06
3.86612	5.06
3.88278	5.06
3.89945	5.06
3.91612	5.06
3.93278	5.06
3.94945	5.06
3.96612	5.06
3.98278	5.06
3.99945	5.06

[Status Trace (Linear Velocity)]
Interval(msec)	1000
# of Points	240
Start Time(min)	0.016
End Time(min)	3.999
Intensity Units	
Intensity Multiplier	1
R.Time (min)	Intensity
0.01612	38.31
0.03278	37.62
0.04945	39.08
0.06612	40.25
0.08278	39.35
0.09945	38.99
0.11612	39.01
0.13278	39.02
0.14945	39.02
0.16612	39.02
0.18278	39.02
0.19945	39.02
0.21612	39.02
0.23278	39.02
0.24945	39.02
0.26612	39.02
0.28278	39.02
0.29945	39.02
0.31612	39.02
0.33278	39.02
0.34945	39.01
0.36612	39.01
0.38278	39.01
0.39945	39.02
0.41612	39.02
0.43278	39.01
0.44945	39.02
0.46612	39.02
0.48278	39.02
0.49945	39.02
0.51612	39.02
0.53278	39.02
0.54945	39.02
0.56612	39.02
0.58278	39.01
0.59945	39.01
0.61612	39.01
0.63278	39.01
0.64945	39.01
0.66612	39.01
0.68278	39.01
0.69945	39.01
0.71612	39.01
0.73278	39.01
0.74945	39.01
0.76612	39.01
0.78278	39.01
0.79945	39.01
0.81612	39.01
0.83278	39.01
0.84945	39.01
0.86612	39.01
0.88278	39.01
0.89945	39.01
0.91612	39.01
0.93278	39.02
0.94945	39.01
0.96612	39.02
0.98278	39.02
0.99945	39.02
1.01612	39.01
1.03278	39.01
1.04945	39.01
1.06612	39.02
1.08278	39.02
1.09945	39.02
1.11612	39.01
1.13278	39.01
1.14945	39.01
1.16612	39.01
1.18278	39.01
1.19945	39.01
1.21612	39.01
1.23278	39.01
1.24945	39.01
1.26612	39.01
1.28278	39.01
1.29945	39.01
1.31612	39.01
1.33278	39.01
1.34945	39.01
1.36612	39.01
1.38278	39.01
1.39945	39.01
1.41612	39.01
1.43278	39.01
1.44945	39.01
1.46612	39.01
1.48278	39.01
1.49945	39.01
1.51612	39.01
1.53278	39.01
1.54945	39.01
1.56612	39.01
1.58278	39.01
1.59945	39.01
1.61612	39.00
1.63278	38.99
1.64945	38.97
1.66612	38.94
1.68278	38.91
1.69945	38.87
1.71612	38.84
1.73278	38.81
1.74945	38.77
1.76612	38.74
1.78278	38.71
1.79945	38.68
1.81612	38.65
1.83278	38.62
1.84945	38.59
1.86612	38.56
1.88278	38.52
1.89945	38.49
1.91612	38.46
1.93278	38.43
1.94945	38.40
1.96612	38.37
1.98278	38.34
1.99945	38.31
2.01612	38.28
2.03278	38.25
2.04945	38.22
2.06612	38.19
2.08278	38.16
2.09945	38.13
2.11612	38.10
2.13278	38.07
2.14945	38.04
2.16612	38.01
2.18278	37.98
2.19945	37.95
2.21612	37.92
2.23278	37.89
2.24945	37.86
2.26612	37.84
2.28278	37.81
2.29945	37.78
2.31612	37.75
2.33278	37.72
2.34945	37.69
2.36612	37.67
2.38278	37.65
2.39945	37.65
2.41612	37.65
2.43278	37.65
2.44945	37.65
2.46612	37.65
2.48278	37.65
2.49945	37.65
2.51612	37.64
2.53278	37.64
2.54945	37.65
2.56612	37.65
2.58278	37.65
2.59945	37.64
2.61612	37.64
2.63278	37.64
2.64945	37.64
2.66612	37.64
2.68278	37.64
2.69945	37.64
2.71612	37.64
2.73278	37.64
2.74945	37.64
2.76612	37.64
2.78278	37.64
2.79945	37.64
2.81612	37.64
2.83278	37.64
2.84945	37.64
2.86612	37.64
2.88278	37.63
2.89945	37.63
2.91612	37.63
2.93278	37.63
2.94945	37.63
2.96612	37.63
2.98278	37.63
2.99945	37.63
3.01612	37.63
3.03278	37.63
3.04945	37.63
3.06612	37.63
3.08278	37.63
3.09945	37.63
3.11612	37.63
3.13278	37.63
3.14945	37.62
3.16612	37.62
3.18278	37.62
3.19945	37.62
3.21612	37.62
3.23278	37.62
3.24945	37.62
3.26612	37.62
3.28278	37.62
3.29945	37.62
3.31612	37.62
3.33278	37.62
3.34945	37.62
3.36612	37.62
3.38278	37.62
3.39945	37.62
3.41612	37.62
3.43278	37.62
3.44945	37.62
3.46612	37.62
3.48278	37.62
3.49945	37.62
3.51612	37.62
3.53278	37.62
3.54945	37.62
3.56612	37.62
3.58278	37.62
3.59945	37.62
3.61612	37.62
3.63278	37.63
3.64945	37.63
3.66612	37.63
3.68278	37.63
3.69945	37.63
3.71612	37.63
3.73278	37.63
3.74945	37.63
3.76612	37.63
3.78278	37.63
3.79945	37.63
3.81612	37.63
3.83278	37.63
3.84945	37.63
3.86612	37.63
3.88278	37.63
3.89945	37.63
3.91612	37.63
3.93278	37.63
3.94945	37.63
3.96612	37.63
3.98278	37.63
3.99945	37.63

