[Header]
Application Name	LabSolutions
Version	5.110
Data File Name	C:\Users\User\Desktop\GC Analyses\Jack\UIC Prairie Sampling\9.2.22\220902_051.gcd
Output Date	10/28/2022
Output Time	1:23:54 PM

[File Information]
Type	Data File
Generated	10/26/2022 1:13:38 PM
Generated by	System Administrator
Modified	10/26/2022 1:17:59 PM
Modified by	System Administrator

[Sample Information]
Operator Name	System Administrator
Acquired	10/26/2022 1:13:58 PM
Sample Type	1:Standard
Level	1
Sample Name	220902_UICPrairie
Sample ID	220902_UICPrairie
ISTD Amount1	1
ISTD Amount2	1
ISTD Amount3	1
ISTD Amount4	1
ISTD Amount5	1
ISTD Amount6	1
ISTD Amount7	1
ISTD Amount8	1
ISTD Amount9	1
ISTD Amount10	1
ISTD Amount11	1
ISTD Amount12	1
ISTD Amount13	1
ISTD Amount14	1
ISTD Amount15	1
ISTD Amount16	1
ISTD Amount17	1
ISTD Amount18	1
ISTD Amount19	1
ISTD Amount20	1
ISTD Amount21	1
ISTD Amount22	1
ISTD Amount23	1
ISTD Amount24	1
ISTD Amount25	1
ISTD Amount26	1
ISTD Amount27	1
ISTD Amount28	1
ISTD Amount29	1
ISTD Amount30	1
ISTD Amount31	1
ISTD Amount32	1
Sample Amount	1
Dilution Factor	1
Vial#	1
Injection Volume	1
Injection Count	1
Bar Code	

[Original Files]
Data File	C:\Users\User\Desktop\GC Analyses\Jack\UIC Prairie Sampling\9.2.22\220902_051.gcd
Method File	C:\LabSolutions\Data\GHG_4min_2022\ghg3_togas_w_acet_4 min_new_int.gcm
Batch File	
Report Format File	c:\LabSolutions\System\DEFAULT.lsr

[File Description]


[Configuration]
Instrument Name	C0B7VH3-Instrument1
Instrument #	1
Line #	1
# of Detectors	3
Detector ID	DET#1	DET#2	DET#3
Detector Name	FID	PTCD	ECD
# of Channels	1	1	1

[Peak Table(Ch1)]
# of Peaks	3
Peak#	R.Time	I.Time	F.Time	Area	Height	A/H	Conc.	Mark	ID#	Name	k'	Plate #	Plate Ht.	Tailing	Resolution	Sep.Factor	Area Ratio	Height Ratio	Conc. %	Norm Conc.
1	1.476	1.439	1.538	19164	8831	2.170	100.000	   	1	CO	0.000	8929	16.799	1.252	0.000	0.000	0	0	16.667	16.667
2	1.571	1.538	1.626	4525	2284	1.981	100.000	 V 	2	CH4	0.065	11434	13.118	0.000	1.573	0.000	0	0	16.667	16.667
3	2.000	1.952	2.264	1473806	716162	2.058	400.000	   	3	CO2	0.355	17887	8.386	1.167	7.235	5.500	0	0	66.667	66.667

[Peak Table(Ch2)]
# of Peaks	0

[Peak Table(Ch3)]
# of Peaks	2
Peak#	R.Time	I.Time	F.Time	Area	Height	A/H	Conc.	Mark	ID#	Name	k'	Plate #	Plate Ht.	Tailing	Resolution	Sep.Factor	Area Ratio	Height Ratio	Conc. %	Norm Conc.
1	2.598	2.330	2.645	2716	250	10.883	0.000	   			0.000	1943	77.216	0.584	0.000	0.000	0	0	0.000	0.000
2	2.884	2.656	3.804	30713	5347	5.744	1.000	   	1	N2O	0.110	12293	12.202	2.064	1.683	0.000	0	0	100.000	100.000

[Compound Results(Ch1)]
# of IDs	6
ID#	Name	R.Time	Area	Height	Conc.	Curve	3rd	2nd	1st	Constant	Area Ratio	Height Ratio	Conc. %	Norm Conc.
1	CO	1.476	19164	8831	100.000	Linear	0.000000e+00	0.000000e+00	1.916394e+002	0.000000e+00	0	0	16.667	16.667
2	CH4	1.571	4525	2284	100.000	Linear	0.000000e+00	0.000000e+00	4.524847e+001	0.000000e+00	0	0	16.667	16.667
3	CO2	2.000	1473806	716162	400.000	Linear	0.000000e+00	0.000000e+00	3.684515e+003	0.000000e+00	0	0	66.667	66.667
4	Ethylene	0.000	0	0	0.000	Linear	0.000000e+00	0.000000e+00	0.000000e+00	0.000000e+00	0	0	0.000	0.000
5	Acetylene	0.000	0	0	0.000	Linear	0.000000e+00	0.000000e+00	0.000000e+00	0.000000e+00	0	0	0.000	0.000
6	Ethane	0.000	0	0	0.000	Linear	0.000000e+00	0.000000e+00	0.000000e+00	0.000000e+00	0	0	0.000	0.000

[Compound Results(Ch2)]
# of IDs	5
ID#	Name	R.Time	Area	Height	Conc.	Curve	3rd	2nd	1st	Constant	Area Ratio	Height Ratio	Conc. %	Norm Conc.
1	Hydrogen	0.000	0	0	0.000	Linear	0.000000e+00	0.000000e+00	0.000000e+00	0.000000e+00	0	0	0.000	0.000
2	Oxygen	0.000	0	0	0.000	Linear	0.000000e+00	0.000000e+00	0.000000e+00	0.000000e+00	0	0	0.000	0.000
3	Nitrogen	0.000	0	0	0.000	Linear	0.000000e+00	0.000000e+00	0.000000e+00	0.000000e+00	0	0	0.000	0.000
4	Methane	0.000	0	0	0.000	Linear	0.000000e+00	0.000000e+00	0.000000e+00	0.000000e+00	0	0	0.000	0.000
5	Carbon Monoxide	0.000	0	0	0.000	Linear	0.000000e+00	0.000000e+00	0.000000e+00	0.000000e+00	0	0	0.000	0.000

[Compound Results(Ch3)]
# of IDs	2
ID#	Name	R.Time	Area	Height	Conc.	Curve	3rd	2nd	1st	Constant	Area Ratio	Height Ratio	Conc. %	Norm Conc.
1	N2O	2.884	30713	5347	1.000	Linear	0.000000e+00	0.000000e+00	3.071334e+004	0.000000e+00	0	0	100.000	100.000
2	SF6	0.000	0	0	0.000	Linear	0.000000e+00	0.000000e+00	0.000000e+00	0.000000e+00	0	0	0.000	0.000

[Group Results(Ch1)]
# of Groups	0

[Group Results(Ch2)]
# of Groups	0

[Group Results(Ch3)]
# of Groups	0

[Chromatogram (Ch1)]
Interval(msec)	220
# of Points	1091
Start Time(min)	0.002
End Time(min)	3.998
R.Time (min)	Intensity
0.00167	6
0.00533	5
0.00900	6
0.01267	10
0.01633	14
0.02000	16
0.02367	15
0.02733	15
0.03100	14
0.03467	12
0.03833	7
0.04200	-0
0.04567	-8
0.04933	-12
0.05300	-13
0.05667	-8
0.06033	0
0.06400	5
0.06767	5
0.07133	5
0.07500	5
0.07867	7
0.08233	11
0.08600	14
0.08967	14
0.09333	12
0.09700	10
0.10067	10
0.10433	11
0.10800	14
0.11167	19
0.11533	23
0.11900	23
0.12267	15
0.12633	7
0.13000	4
0.13367	5
0.13733	6
0.14100	9
0.14467	11
0.14833	11
0.15200	6
0.15567	1
0.15933	-1
0.16300	-1
0.16667	1
0.17033	5
0.17400	9
0.17767	9
0.18133	6
0.18500	3
0.18867	4
0.19233	4
0.19600	1
0.19967	-3
0.20333	-4
0.20700	1
0.21067	8
0.21433	13
0.21800	14
0.22167	16
0.22533	15
0.22900	11
0.23267	9
0.23633	10
0.24000	13
0.24367	15
0.24733	12
0.25100	4
0.25467	-4
0.25833	-12
0.26200	-17
0.26567	-15
0.26933	-7
0.27300	3
0.27667	8
0.28033	13
0.28400	16
0.28767	16
0.29133	15
0.29500	16
0.29867	18
0.30233	19
0.30600	17
0.30967	11
0.31333	3
0.31700	-7
0.32067	-12
0.32433	-11
0.32800	-6
0.33167	-0
0.33533	4
0.33900	6
0.34267	4
0.34633	3
0.35000	3
0.35367	0
0.35733	-2
0.36100	-3
0.36467	-4
0.36833	-5
0.37200	-5
0.37567	-6
0.37933	-8
0.38300	-13
0.38667	-18
0.39033	-19
0.39400	-20
0.39767	-21
0.40133	-19
0.40500	-15
0.40867	-11
0.41233	-6
0.41600	0
0.41967	8
0.42333	13
0.42700	16
0.43067	15
0.43433	13
0.43800	11
0.44167	10
0.44533	7
0.44900	5
0.45267	3
0.45633	2
0.46000	1
0.46367	-1
0.46733	-5
0.47100	-8
0.47467	-9
0.47833	-7
0.48200	-1
0.48567	6
0.48933	12
0.49300	16
0.49667	14
0.50033	9
0.50400	4
0.50767	-1
0.51133	-7
0.51500	-13
0.51867	-16
0.52233	-18
0.52600	-18
0.52967	-17
0.53333	-14
0.53700	-7
0.54067	-0
0.54433	7
0.54800	14
0.55167	21
0.55533	24
0.55900	24
0.56267	19
0.56633	14
0.57000	12
0.57367	12
0.57733	13
0.58100	12
0.58467	10
0.58833	5
0.59200	2
0.59567	3
0.59933	6
0.60300	10
0.60667	10
0.61033	5
0.61400	0
0.61767	-3
0.62133	-3
0.62500	0
0.62867	4
0.63233	4
0.63600	2
0.63967	3
0.64333	3
0.64700	2
0.65067	-1
0.65433	-3
0.65800	-1
0.66167	5
0.66533	12
0.66900	17
0.67267	17
0.67633	11
0.68000	1
0.68367	-7
0.68733	-8
0.69100	-6
0.69467	-2
0.69833	3
0.70200	10
0.70567	17
0.70933	22
0.71300	24
0.71667	23
0.72033	20
0.72400	16
0.72767	9
0.73133	-1
0.73500	-11
0.73867	-18
0.74233	-22
0.74600	-20
0.74967	-15
0.75333	-7
0.75700	0
0.76067	2
0.76433	-0
0.76800	-6
0.77167	-12
0.77533	-15
0.77900	-13
0.78267	-8
0.78633	-5
0.79000	-4
0.79367	-5
0.79733	-6
0.80100	-4
0.80467	-0
0.80833	3
0.81200	6
0.81567	8
0.81933	5
0.82300	2
0.82667	0
0.83033	-0
0.83400	-0
0.83767	-1
0.84133	-3
0.84500	-5
0.84867	-8
0.85233	-12
0.85600	-13
0.85967	-8
0.86333	-1
0.86700	4
0.87067	8
0.87433	10
0.87800	11
0.88167	11
0.88533	12
0.88900	11
0.89267	15
0.89633	23
0.90000	28
0.90367	28
0.90733	23
0.91100	14
0.91467	4
0.91833	-0
0.92200	2
0.92567	6
0.92933	11
0.93300	12
0.93667	9
0.94033	5
0.94400	2
0.94767	1
0.95133	5
0.95500	12
0.95867	20
0.96233	24
0.96600	21
0.96967	14
0.97333	6
0.97700	-3
0.98067	-12
0.98433	-20
0.98800	-26
0.99167	-25
0.99533	-20
0.99900	-17
1.00267	-13
1.00633	-8
1.01000	-3
1.01367	2
1.01733	10
1.02100	16
1.02467	16
1.02833	14
1.03200	10
1.03567	7
1.03933	5
1.04300	5
1.04667	9
1.05033	12
1.05400	11
1.05767	9
1.06133	9
1.06500	11
1.06867	12
1.07233	12
1.07600	9
1.07967	6
1.08333	7
1.08700	11
1.09067	12
1.09433	11
1.09800	11
1.10167	10
1.10533	7
1.10900	4
1.11267	2
1.11633	1
1.12000	0
1.12367	2
1.12733	5
1.13100	7
1.13467	9
1.13833	14
1.14200	20
1.14567	23
1.14933	22
1.15300	19
1.15667	19
1.16033	21
1.16400	22
1.16767	20
1.17133	17
1.17500	15
1.17867	13
1.18233	10
1.18600	8
1.18967	7
1.19333	5
1.19700	3
1.20067	3
1.20433	5
1.20800	7
1.21167	6
1.21533	3
1.21900	-4
1.22267	-6
1.22633	-1
1.23000	6
1.23367	10
1.23733	8
1.24100	5
1.24467	1
1.24833	-3
1.25200	-8
1.25567	-9
1.25933	-9
1.26300	-8
1.26667	-6
1.27033	-3
1.27400	1
1.27767	4
1.28133	6
1.28500	8
1.28867	12
1.29233	19
1.29600	24
1.29967	24
1.30333	21
1.30700	19
1.31067	20
1.31433	23
1.31800	25
1.32167	22
1.32533	14
1.32900	6
1.33267	-1
1.33633	-7
1.34000	-11
1.34367	-15
1.34733	-19
1.35100	-20
1.35467	-20
1.35833	-16
1.36200	-13
1.36567	-10
1.36933	-7
1.37300	-4
1.37667	0
1.38033	8
1.38400	20
1.38767	31
1.39133	32
1.39500	23
1.39867	10
1.40233	0
1.40600	-4
1.40967	-4
1.41333	-4
1.41700	-3
1.42067	-4
1.42433	-3
1.42800	-3
1.43167	-4
1.43533	-4
1.43900	19
1.44267	123
1.44633	403
1.45000	921
1.45367	1811
1.45733	3169
1.46100	4797
1.46467	6355
1.46833	7610
1.47200	8462
1.47567	8852
1.47933	8723
1.48300	8062
1.48667	6973
1.49033	5667
1.49400	4373
1.49767	3250
1.50133	2357
1.50500	1688
1.50867	1203
1.51233	856
1.51600	611
1.51967	439
1.52333	321
1.52700	239
1.53067	186
1.53433	157
1.53800	148
1.54167	180
1.54533	300
1.54900	563
1.55267	954
1.55633	1388
1.56000	1782
1.56367	2089
1.56733	2277
1.57100	2310
1.57467	2167
1.57833	1875
1.58200	1502
1.58567	1130
1.58933	812
1.59300	567
1.59667	388
1.60033	263
1.60400	178
1.60767	124
1.61133	91
1.61500	69
1.61867	51
1.62233	37
1.62600	28
1.62967	24
1.63333	24
1.63700	25
1.64067	22
1.64433	19
1.64800	19
1.65167	19
1.65533	19
1.65900	17
1.66267	11
1.66633	0
1.67000	-11
1.67367	-17
1.67733	-19
1.68100	-18
1.68467	-15
1.68833	-13
1.69200	-10
1.69567	-6
1.69933	-3
1.70300	-1
1.70667	-0
1.71033	-1
1.71400	-4
1.71767	-9
1.72133	-10
1.72500	-7
1.72867	-3
1.73233	2
1.73600	12
1.73967	19
1.74333	19
1.74700	14
1.75067	8
1.75433	4
1.75800	2
1.76167	1
1.76533	-1
1.76900	-8
1.77267	-16
1.77633	-23
1.78000	-29
1.78367	-31
1.78733	-31
1.79100	-26
1.79467	-20
1.79833	-17
1.80200	-16
1.80567	-15
1.80933	-13
1.81300	-13
1.81667	-10
1.82033	-4
1.82400	6
1.82767	14
1.83133	18
1.83500	18
1.83867	15
1.84233	13
1.84600	10
1.84967	6
1.85333	4
1.85700	6
1.86067	9
1.86433	12
1.86800	15
1.87167	18
1.87533	20
1.87900	23
1.88267	23
1.88633	20
1.89000	14
1.89367	8
1.89733	4
1.90100	3
1.90467	5
1.90833	10
1.91200	16
1.91567	20
1.91933	23
1.92300	25
1.92667	24
1.93033	22
1.93400	22
1.93767	24
1.94133	29
1.94500	35
1.94867	40
1.95233	48
1.95600	108
1.95967	504
1.96333	2514
1.96700	10158
1.97067	32297
1.97433	81911
1.97800	168854
1.98167	289986
1.98533	427510
1.98900	557321
1.99267	657559
1.99633	712889
2.00000	716252
2.00367	669597
2.00733	584185
2.01100	477921
2.01467	369498
2.01833	272770
2.02200	194479
2.02567	135417
2.02933	93026
2.03300	63621
2.03667	43667
2.04033	30294
2.04400	21373
2.04767	15417
2.05133	11411
2.05500	8681
2.05867	6790
2.06233	5454
2.06600	4490
2.06967	3780
2.07333	3244
2.07700	2826
2.08067	2493
2.08433	2223
2.08800	2004
2.09167	1822
2.09533	1665
2.09900	1526
2.10267	1406
2.10633	1303
2.11000	1213
2.11367	1134
2.11733	1064
2.12100	1002
2.12467	945
2.12833	894
2.13200	849
2.13567	807
2.13933	771
2.14300	740
2.14667	709
2.15033	680
2.15400	654
2.15767	631
2.16133	614
2.16500	604
2.16867	598
2.17233	588
2.17600	572
2.17967	558
2.18333	548
2.18700	539
2.19067	524
2.19433	502
2.19800	477
2.20167	451
2.20533	426
2.20900	408
2.21267	396
2.21633	387
2.22000	381
2.22367	376
2.22733	368
2.23100	360
2.23467	357
2.23833	355
2.24200	352
2.24567	347
2.24933	340
2.25300	334
2.25667	330
2.26033	327
2.26400	325
2.26767	323
2.27133	323
2.27500	323
2.27867	321
2.28233	317
2.28600	313
2.28967	310
2.29333	306
2.29700	304
2.30067	300
2.30433	294
2.30800	285
2.31167	277
2.31533	270
2.31900	266
2.32267	266
2.32633	267
2.33000	266
2.33367	261
2.33733	260
2.34100	263
2.34467	268
2.34833	271
2.35200	270
2.35567	267
2.35933	266
2.36300	265
2.36667	262
2.37033	257
2.37400	251
2.37767	245
2.38133	240
2.38500	233
2.38867	225
2.39233	219
2.39600	215
2.39967	214
2.40333	217
2.40700	225
2.41067	234
2.41433	243
2.41800	246
2.42167	246
2.42533	245
2.42900	245
2.43267	246
2.43633	246
2.44000	246
2.44367	244
2.44733	241
2.45100	233
2.45467	218
2.45833	201
2.46200	189
2.46567	182
2.46933	182
2.47300	184
2.47667	188
2.48033	192
2.48400	196
2.48767	200
2.49133	203
2.49500	206
2.49867	207
2.50233	205
2.50600	203
2.50967	204
2.51333	204
2.51700	203
2.52067	204
2.52433	207
2.52800	211
2.53167	212
2.53533	208
2.53900	203
2.54267	199
2.54633	194
2.55000	190
2.55367	186
2.55733	182
2.56100	178
2.56467	175
2.56833	176
2.57200	182
2.57567	189
2.57933	196
2.58300	200
2.58667	203
2.59033	207
2.59400	208
2.59767	205
2.60133	196
2.60500	186
2.60867	176
2.61233	172
2.61600	171
2.61967	173
2.62333	176
2.62700	184
2.63067	193
2.63433	197
2.63800	199
2.64167	202
2.64533	206
2.64900	210
2.65267	213
2.65633	211
2.66000	206
2.66367	201
2.66733	195
2.67100	186
2.67467	174
2.67833	165
2.68200	161
2.68567	160
2.68933	163
2.69300	168
2.69667	173
2.70033	176
2.70400	179
2.70767	179
2.71133	179
2.71500	181
2.71867	183
2.72233	188
2.72600	192
2.72967	195
2.73333	196
2.73700	193
2.74067	190
2.74433	190
2.74800	195
2.75167	200
2.75533	201
2.75900	198
2.76267	191
2.76633	183
2.77000	177
2.77367	176
2.77733	180
2.78100	188
2.78467	194
2.78833	197
2.79200	197
2.79567	194
2.79933	191
2.80300	189
2.80667	188
2.81033	186
2.81400	189
2.81767	198
2.82133	205
2.82500	209
2.82867	206
2.83233	197
2.83600	186
2.83967	178
2.84333	175
2.84700	179
2.85067	187
2.85433	192
2.85800	197
2.86167	198
2.86533	199
2.86900	199
2.87267	197
2.87633	193
2.88000	194
2.88367	197
2.88733	197
2.89100	194
2.89467	190
2.89833	187
2.90200	187
2.90567	190
2.90933	192
2.91300	197
2.91667	206
2.92033	217
2.92400	222
2.92767	220
2.93133	214
2.93500	204
2.93867	194
2.94233	186
2.94600	179
2.94967	177
2.95333	179
2.95700	183
2.96067	186
2.96433	190
2.96800	195
2.97167	202
2.97533	210
2.97900	214
2.98267	212
2.98633	206
2.99000	202
2.99367	201
2.99733	204
3.00100	209
3.00467	217
3.00833	227
3.01200	233
3.01567	236
3.01933	237
3.02300	237
3.02667	235
3.03033	230
3.03400	221
3.03767	214
3.04133	213
3.04500	212
3.04867	209
3.05233	202
3.05600	196
3.05967	193
3.06333	197
3.06700	207
3.07067	217
3.07433	223
3.07800	223
3.08167	221
3.08533	221
3.08900	225
3.09267	227
3.09633	227
3.10000	226
3.10367	224
3.10733	221
3.11100	220
3.11467	219
3.11833	213
3.12200	204
3.12567	194
3.12933	184
3.13300	176
3.13667	172
3.14033	171
3.14400	173
3.14767	178
3.15133	187
3.15500	196
3.15867	201
3.16233	205
3.16600	209
3.16967	212
3.17333	211
3.17700	205
3.18067	198
3.18433	196
3.18800	199
3.19167	203
3.19533	208
3.19900	213
3.20267	217
3.20633	220
3.21000	218
3.21367	211
3.21733	202
3.22100	194
3.22467	190
3.22833	195
3.23200	203
3.23567	210
3.23933	215
3.24300	214
3.24667	209
3.25033	200
3.25400	191
3.25767	185
3.26133	182
3.26500	181
3.26867	182
3.27233	187
3.27600	194
3.27967	199
3.28333	201
3.28700	204
3.29067	209
3.29433	214
3.29800	219
3.30167	221
3.30533	221
3.30900	217
3.31267	212
3.31633	210
3.32000	209
3.32367	208
3.32733	207
3.33100	206
3.33467	207
3.33833	210
3.34200	210
3.34567	209
3.34933	205
3.35300	200
3.35667	195
3.36033	191
3.36400	189
3.36767	189
3.37133	191
3.37500	197
3.37867	202
3.38233	207
3.38600	211
3.38967	213
3.39333	213
3.39700	209
3.40067	201
3.40433	192
3.40800	189
3.41167	193
3.41533	201
3.41900	210
3.42267	219
3.42633	223
3.43000	221
3.43367	215
3.43733	210
3.44100	206
3.44467	203
3.44833	200
3.45200	200
3.45567	200
3.45933	200
3.46300	202
3.46667	203
3.47033	202
3.47400	199
3.47767	199
3.48133	200
3.48500	202
3.48867	204
3.49233	207
3.49600	211
3.49967	215
3.50333	216
3.50700	211
3.51067	202
3.51433	194
3.51800	189
3.52167	183
3.52533	178
3.52900	174
3.53267	171
3.53633	167
3.54000	164
3.54367	161
3.54733	162
3.55100	163
3.55467	165
3.55833	168
3.56200	170
3.56567	173
3.56933	181
3.57300	191
3.57667	198
3.58033	202
3.58400	201
3.58767	199
3.59133	197
3.59500	195
3.59867	195
3.60233	195
3.60600	198
3.60967	202
3.61333	203
3.61700	202
3.62067	198
3.62433	194
3.62800	190
3.63167	188
3.63533	191
3.63900	196
3.64267	199
3.64633	198
3.65000	193
3.65367	185
3.65733	177
3.66100	171
3.66467	167
3.66833	167
3.67200	169
3.67567	172
3.67933	174
3.68300	175
3.68667	179
3.69033	184
3.69400	191
3.69767	199
3.70133	206
3.70500	208
3.70867	206
3.71233	205
3.71600	205
3.71967	206
3.72333	204
3.72700	201
3.73067	199
3.73433	201
3.73800	204
3.74167	206
3.74533	205
3.74900	201
3.75267	196
3.75633	190
3.76000	185
3.76367	183
3.76733	185
3.77100	190
3.77467	200
3.77833	212
3.78200	220
3.78567	221
3.78933	214
3.79300	204
3.79667	198
3.80033	195
3.80400	196
3.80767	197
3.81133	200
3.81500	203
3.81867	204
3.82233	204
3.82600	200
3.82967	196
3.83333	194
3.83700	193
3.84067	196
3.84433	200
3.84800	203
3.85167	205
3.85533	208
3.85900	214
3.86267	218
3.86633	222
3.87000	224
3.87367	219
3.87733	209
3.88100	204
3.88467	204
3.88833	205
3.89200	200
3.89567	188
3.89933	175
3.90300	165
3.90667	166
3.91033	174
3.91400	183
3.91767	188
3.92133	188
3.92500	186
3.92867	183
3.93233	182
3.93600	183
3.93967	183
3.94333	186
3.94700	189
3.95067	193
3.95433	196
3.95800	199
3.96167	199
3.96533	196
3.96900	192
3.97267	187
3.97633	183
3.98000	181
3.98367	179
3.98733	179
3.99100	180
3.99467	183
3.99833	186

[Chromatogram (Ch2)]
Interval(msec)	220
# of Points	1091
Start Time(min)	0.002
End Time(min)	3.998
R.Time (min)	Intensity
0.00167	1
0.00533	1
0.00900	1
0.01267	1
0.01633	1
0.02000	1
0.02367	1
0.02733	1
0.03100	1
0.03467	1
0.03833	1
0.04200	1
0.04567	2
0.04933	2
0.05300	2
0.05667	2
0.06033	2
0.06400	2
0.06767	2
0.07133	2
0.07500	2
0.07867	2
0.08233	2
0.08600	2
0.08967	2
0.09333	1
0.09700	1
0.10067	1
0.10433	1
0.10800	1
0.11167	1
0.11533	1
0.11900	1
0.12267	2
0.12633	2
0.13000	2
0.13367	2
0.13733	1
0.14100	1
0.14467	1
0.14833	1
0.15200	1
0.15567	1
0.15933	1
0.16300	2
0.16667	2
0.17033	2
0.17400	2
0.17767	3
0.18133	3
0.18500	3
0.18867	3
0.19233	3
0.19600	3
0.19967	3
0.20333	3
0.20700	3
0.21067	3
0.21433	3
0.21800	3
0.22167	3
0.22533	4
0.22900	4
0.23267	4
0.23633	4
0.24000	4
0.24367	4
0.24733	4
0.25100	4
0.25467	4
0.25833	4
0.26200	4
0.26567	4
0.26933	4
0.27300	4
0.27667	4
0.28033	4
0.28400	3
0.28767	3
0.29133	3
0.29500	3
0.29867	3
0.30233	3
0.30600	3
0.30967	3
0.31333	2
0.31700	2
0.32067	2
0.32433	2
0.32800	2
0.33167	2
0.33533	2
0.33900	2
0.34267	2
0.34633	1
0.35000	1
0.35367	1
0.35733	0
0.36100	0
0.36467	-0
0.36833	-1
0.37200	-1
0.37567	-2
0.37933	-2
0.38300	-3
0.38667	-3
0.39033	-4
0.39400	-4
0.39767	-4
0.40133	-4
0.40500	-4
0.40867	-4
0.41233	-4
0.41600	-3
0.41967	-3
0.42333	-3
0.42700	-2
0.43067	-2
0.43433	-2
0.43800	-1
0.44167	-1
0.44533	-0
0.44900	0
0.45267	1
0.45633	1
0.46000	2
0.46367	3
0.46733	3
0.47100	4
0.47467	4
0.47833	4
0.48200	5
0.48567	5
0.48933	4
0.49300	4
0.49667	4
0.50033	4
0.50400	4
0.50767	4
0.51133	4
0.51500	4
0.51867	4
0.52233	4
0.52600	4
0.52967	4
0.53333	4
0.53700	4
0.54067	4
0.54433	4
0.54800	5
0.55167	5
0.55533	5
0.55900	5
0.56267	5
0.56633	5
0.57000	5
0.57367	5
0.57733	5
0.58100	5
0.58467	5
0.58833	4
0.59200	4
0.59567	4
0.59933	4
0.60300	3
0.60667	3
0.61033	3
0.61400	3
0.61767	3
0.62133	3
0.62500	2
0.62867	2
0.63233	2
0.63600	2
0.63967	2
0.64333	2
0.64700	2
0.65067	1
0.65433	1
0.65800	1
0.66167	1
0.66533	1
0.66900	1
0.67267	1
0.67633	1
0.68000	1
0.68367	1
0.68733	1
0.69100	1
0.69467	0
0.69833	0
0.70200	-0
0.70567	-1
0.70933	-1
0.71300	-1
0.71667	-2
0.72033	-2
0.72400	-2
0.72767	-3
0.73133	-3
0.73500	-3
0.73867	-3
0.74233	-3
0.74600	-3
0.74967	-3
0.75333	-2
0.75700	-2
0.76067	-2
0.76433	-1
0.76800	-1
0.77167	-1
0.77533	-1
0.77900	-0
0.78267	0
0.78633	0
0.79000	1
0.79367	1
0.79733	1
0.80100	2
0.80467	2
0.80833	2
0.81200	2
0.81567	2
0.81933	2
0.82300	2
0.82667	2
0.83033	2
0.83400	3
0.83767	3
0.84133	3
0.84500	4
0.84867	4
0.85233	4
0.85600	4
0.85967	4
0.86333	4
0.86700	4
0.87067	4
0.87433	4
0.87800	4
0.88167	4
0.88533	4
0.88900	4
0.89267	4
0.89633	3
0.90000	3
0.90367	3
0.90733	4
0.91100	4
0.91467	4
0.91833	4
0.92200	4
0.92567	3
0.92933	3
0.93300	3
0.93667	4
0.94033	4
0.94400	4
0.94767	4
0.95133	4
0.95500	4
0.95867	4
0.96233	4
0.96600	4
0.96967	4
0.97333	4
0.97700	4
0.98067	4
0.98433	4
0.98800	3
0.99167	3
0.99533	3
0.99900	3
1.00267	4
1.00633	4
1.01000	4
1.01367	4
1.01733	4
1.02100	4
1.02467	4
1.02833	4
1.03200	4
1.03567	4
1.03933	4
1.04300	4
1.04667	4
1.05033	4
1.05400	4
1.05767	3
1.06133	3
1.06500	3
1.06867	2
1.07233	2
1.07600	1
1.07967	1
1.08333	0
1.08700	-0
1.09067	-1
1.09433	-1
1.09800	-1
1.10167	-1
1.10533	-1
1.10900	-2
1.11267	-2
1.11633	-2
1.12000	-2
1.12367	-3
1.12733	-3
1.13100	-2
1.13467	-2
1.13833	-2
1.14200	-2
1.14567	-1
1.14933	-1
1.15300	-0
1.15667	-0
1.16033	0
1.16400	1
1.16767	1
1.17133	1
1.17500	1
1.17867	1
1.18233	2
1.18600	2
1.18967	2
1.19333	2
1.19700	2
1.20067	2
1.20433	2
1.20800	2
1.21167	2
1.21533	2
1.21900	2
1.22267	2
1.22633	3
1.23000	3
1.23367	4
1.23733	4
1.24100	5
1.24467	5
1.24833	5
1.25200	6
1.25567	6
1.25933	6
1.26300	6
1.26667	6
1.27033	6
1.27400	6
1.27767	6
1.28133	6
1.28500	6
1.28867	6
1.29233	6
1.29600	6
1.29967	5
1.30333	5
1.30700	4
1.31067	4
1.31433	4
1.31800	3
1.32167	3
1.32533	4
1.32900	4
1.33267	4
1.33633	4
1.34000	4
1.34367	4
1.34733	4
1.35100	3
1.35467	3
1.35833	2
1.36200	2
1.36567	2
1.36933	1
1.37300	1
1.37667	1
1.38033	0
1.38400	0
1.38767	-0
1.39133	-0
1.39500	0
1.39867	0
1.40233	1
1.40600	1
1.40967	1
1.41333	1
1.41700	1
1.42067	2
1.42433	1
1.42800	1
1.43167	1
1.43533	1
1.43900	1
1.44267	1
1.44633	2
1.45000	2
1.45367	2
1.45733	2
1.46100	2
1.46467	2
1.46833	2
1.47200	2
1.47567	2
1.47933	2
1.48300	2
1.48667	2
1.49033	2
1.49400	2
1.49767	2
1.50133	3
1.50500	3
1.50867	3
1.51233	3
1.51600	3
1.51967	3
1.52333	3
1.52700	4
1.53067	4
1.53433	4
1.53800	4
1.54167	4
1.54533	4
1.54900	3
1.55267	3
1.55633	3
1.56000	3
1.56367	3
1.56733	3
1.57100	3
1.57467	4
1.57833	4
1.58200	5
1.58567	5
1.58933	5
1.59300	5
1.59667	4
1.60033	4
1.60400	3
1.60767	2
1.61133	1
1.61500	-1
1.61867	-3
1.62233	-5
1.62600	-8
1.62967	-11
1.63333	-14
1.63700	-17
1.64067	-21
1.64433	-25
1.64800	-29
1.65167	-32
1.65533	-36
1.65900	-41
1.66267	-45
1.66633	-50
1.67000	-56
1.67367	-61
1.67733	-67
1.68100	-72
1.68467	-77
1.68833	-82
1.69200	-86
1.69567	-89
1.69933	-93
1.70300	-95
1.70667	-98
1.71033	-100
1.71400	-102
1.71767	-103
1.72133	-104
1.72500	-106
1.72867	-106
1.73233	-107
1.73600	-108
1.73967	-109
1.74333	-110
1.74700	-111
1.75067	-112
1.75433	-113
1.75800	-114
1.76167	-115
1.76533	-115
1.76900	-114
1.77267	-114
1.77633	-113
1.78000	-112
1.78367	-112
1.78733	-111
1.79100	-110
1.79467	-110
1.79833	-110
1.80200	-110
1.80567	-111
1.80933	-112
1.81300	-112
1.81667	-113
1.82033	-113
1.82400	-114
1.82767	-114
1.83133	-114
1.83500	-114
1.83867	-114
1.84233	-114
1.84600	-114
1.84967	-114
1.85333	-115
1.85700	-115
1.86067	-116
1.86433	-116
1.86800	-117
1.87167	-117
1.87533	-117
1.87900	-117
1.88267	-117
1.88633	-116
1.89000	-116
1.89367	-116
1.89733	-116
1.90100	-116
1.90467	-116
1.90833	-116
1.91200	-116
1.91567	-116
1.91933	-115
1.92300	-115
1.92667	-114
1.93033	-114
1.93400	-113
1.93767	-112
1.94133	-112
1.94500	-112
1.94867	-112
1.95233	-111
1.95600	-111
1.95967	-111
1.96333	-111
1.96700	-110
1.97067	-110
1.97433	-110
1.97800	-109
1.98167	-110
1.98533	-110
1.98900	-111
1.99267	-111
1.99633	-111
2.00000	-110
2.00367	-110
2.00733	-109
2.01100	-108
2.01467	-107
2.01833	-106
2.02200	-106
2.02567	-106
2.02933	-106
2.03300	-106
2.03667	-105
2.04033	-105
2.04400	-105
2.04767	-105
2.05133	-105
2.05500	-105
2.05867	-105
2.06233	-105
2.06600	-105
2.06967	-105
2.07333	-104
2.07700	-104
2.08067	-104
2.08433	-104
2.08800	-104
2.09167	-104
2.09533	-104
2.09900	-103
2.10267	-102
2.10633	-101
2.11000	-100
2.11367	-99
2.11733	-99
2.12100	-99
2.12467	-99
2.12833	-99
2.13200	-99
2.13567	-98
2.13933	-98
2.14300	-98
2.14667	-98
2.15033	-98
2.15400	-98
2.15767	-97
2.16133	-97
2.16500	-96
2.16867	-95
2.17233	-94
2.17600	-93
2.17967	-92
2.18333	-91
2.18700	-91
2.19067	-90
2.19433	-90
2.19800	-89
2.20167	-89
2.20533	-90
2.20900	-90
2.21267	-90
2.21633	-90
2.22000	-90
2.22367	-89
2.22733	-89
2.23100	-89
2.23467	-89
2.23833	-89
2.24200	-88
2.24567	-88
2.24933	-88
2.25300	-88
2.25667	-87
2.26033	-87
2.26400	-87
2.26767	-87
2.27133	-86
2.27500	-86
2.27867	-85
2.28233	-84
2.28600	-84
2.28967	-83
2.29333	-82
2.29700	-82
2.30067	-82
2.30433	-82
2.30800	-82
2.31167	-82
2.31533	-82
2.31900	-82
2.32267	-82
2.32633	-82
2.33000	-81
2.33367	-81
2.33733	-81
2.34100	-81
2.34467	-80
2.34833	-80
2.35200	-79
2.35567	-78
2.35933	-78
2.36300	-76
2.36667	-75
2.37033	-73
2.37400	-71
2.37767	-69
2.38133	-66
2.38500	-63
2.38867	-60
2.39233	-56
2.39600	-52
2.39967	-47
2.40333	-42
2.40700	-37
2.41067	-33
2.41433	-28
2.41800	-25
2.42167	-21
2.42533	-18
2.42900	-16
2.43267	-13
2.43633	-11
2.44000	-9
2.44367	-7
2.44733	-5
2.45100	-3
2.45467	-1
2.45833	1
2.46200	2
2.46567	4
2.46933	5
2.47300	6
2.47667	7
2.48033	7
2.48400	8
2.48767	9
2.49133	10
2.49500	11
2.49867	12
2.50233	13
2.50600	14
2.50967	15
2.51333	16
2.51700	17
2.52067	18
2.52433	18
2.52800	18
2.53167	18
2.53533	18
2.53900	19
2.54267	19
2.54633	20
2.55000	20
2.55367	21
2.55733	21
2.56100	21
2.56467	21
2.56833	21
2.57200	21
2.57567	21
2.57933	21
2.58300	21
2.58667	21
2.59033	21
2.59400	21
2.59767	21
2.60133	20
2.60500	20
2.60867	20
2.61233	20
2.61600	21
2.61967	21
2.62333	21
2.62700	22
2.63067	22
2.63433	23
2.63800	23
2.64167	23
2.64533	24
2.64900	24
2.65267	24
2.65633	24
2.66000	25
2.66367	25
2.66733	25
2.67100	26
2.67467	26
2.67833	26
2.68200	27
2.68567	27
2.68933	27
2.69300	28
2.69667	28
2.70033	28
2.70400	28
2.70767	27
2.71133	27
2.71500	27
2.71867	27
2.72233	27
2.72600	27
2.72967	27
2.73333	27
2.73700	27
2.74067	28
2.74433	28
2.74800	28
2.75167	29
2.75533	29
2.75900	30
2.76267	30
2.76633	30
2.77000	31
2.77367	31
2.77733	31
2.78100	32
2.78467	32
2.78833	32
2.79200	32
2.79567	33
2.79933	33
2.80300	33
2.80667	33
2.81033	32
2.81400	32
2.81767	32
2.82133	32
2.82500	31
2.82867	32
2.83233	32
2.83600	32
2.83967	31
2.84333	31
2.84700	30
2.85067	28
2.85433	25
2.85800	20
2.86167	12
2.86533	0
2.86900	-15
2.87267	-33
2.87633	-56
2.88000	-82
2.88367	-112
2.88733	-146
2.89100	-184
2.89467	-225
2.89833	-268
2.90200	-313
2.90567	-361
2.90933	-409
2.91300	-459
2.91667	-509
2.92033	-560
2.92400	-610
2.92767	-660
2.93133	-710
2.93500	-759
2.93867	-809
2.94233	-862
2.94600	-921
2.94967	-983
2.95333	-1039
2.95700	-1077
2.96067	-1089
2.96433	-1076
2.96800	-1038
2.97167	-981
2.97533	-911
2.97900	-834
2.98267	-753
2.98633	-673
2.99000	-597
2.99367	-524
2.99733	-458
3.00100	-397
3.00467	-343
3.00833	-294
3.01200	-252
3.01567	-214
3.01933	-182
3.02300	-153
3.02667	-129
3.03033	-107
3.03400	-89
3.03767	-74
3.04133	-60
3.04500	-49
3.04867	-39
3.05233	-30
3.05600	-23
3.05967	-17
3.06333	-12
3.06700	-7
3.07067	-4
3.07433	-0
3.07800	3
3.08167	6
3.08533	8
3.08900	10
3.09267	12
3.09633	14
3.10000	15
3.10367	16
3.10733	17
3.11100	18
3.11467	19
3.11833	20
3.12200	21
3.12567	21
3.12933	22
3.13300	23
3.13667	24
3.14033	25
3.14400	25
3.14767	26
3.15133	27
3.15500	27
3.15867	27
3.16233	28
3.16600	28
3.16967	29
3.17333	29
3.17700	29
3.18067	30
3.18433	30
3.18800	30
3.19167	30
3.19533	30
3.19900	30
3.20267	30
3.20633	30
3.21000	30
3.21367	31
3.21733	31
3.22100	31
3.22467	31
3.22833	31
3.23200	31
3.23567	31
3.23933	31
3.24300	31
3.24667	31
3.25033	31
3.25400	31
3.25767	31
3.26133	31
3.26500	31
3.26867	31
3.27233	31
3.27600	32
3.27967	32
3.28333	32
3.28700	32
3.29067	32
3.29433	33
3.29800	33
3.30167	33
3.30533	32
3.30900	32
3.31267	32
3.31633	32
3.32000	32
3.32367	32
3.32733	32
3.33100	32
3.33467	32
3.33833	32
3.34200	32
3.34567	32
3.34933	33
3.35300	33
3.35667	33
3.36033	33
3.36400	33
3.36767	33
3.37133	33
3.37500	33
3.37867	33
3.38233	33
3.38600	33
3.38967	33
3.39333	33
3.39700	33
3.40067	33
3.40433	33
3.40800	33
3.41167	33
3.41533	33
3.41900	33
3.42267	33
3.42633	33
3.43000	33
3.43367	32
3.43733	32
3.44100	32
3.44467	32
3.44833	32
3.45200	32
3.45567	32
3.45933	32
3.46300	32
3.46667	32
3.47033	32
3.47400	32
3.47767	32
3.48133	32
3.48500	33
3.48867	33
3.49233	33
3.49600	33
3.49967	33
3.50333	33
3.50700	33
3.51067	34
3.51433	34
3.51800	34
3.52167	34
3.52533	34
3.52900	33
3.53267	34
3.53633	34
3.54000	34
3.54367	34
3.54733	34
3.55100	34
3.55467	34
3.55833	33
3.56200	33
3.56567	33
3.56933	33
3.57300	33
3.57667	33
3.58033	33
3.58400	33
3.58767	34
3.59133	34
3.59500	34
3.59867	35
3.60233	35
3.60600	35
3.60967	35
3.61333	35
3.61700	35
3.62067	35
3.62433	35
3.62800	34
3.63167	34
3.63533	34
3.63900	34
3.64267	34
3.64633	34
3.65000	34
3.65367	34
3.65733	34
3.66100	34
3.66467	34
3.66833	34
3.67200	34
3.67567	34
3.67933	34
3.68300	34
3.68667	34
3.69033	33
3.69400	33
3.69767	33
3.70133	33
3.70500	33
3.70867	33
3.71233	33
3.71600	33
3.71967	33
3.72333	33
3.72700	33
3.73067	32
3.73433	32
3.73800	32
3.74167	32
3.74533	32
3.74900	32
3.75267	33
3.75633	33
3.76000	33
3.76367	33
3.76733	33
3.77100	33
3.77467	32
3.77833	32
3.78200	32
3.78567	32
3.78933	32
3.79300	32
3.79667	32
3.80033	32
3.80400	32
3.80767	32
3.81133	33
3.81500	33
3.81867	33
3.82233	34
3.82600	34
3.82967	34
3.83333	35
3.83700	35
3.84067	35
3.84433	36
3.84800	36
3.85167	36
3.85533	36
3.85900	36
3.86267	36
3.86633	36
3.87000	37
3.87367	37
3.87733	37
3.88100	37
3.88467	37
3.88833	37
3.89200	38
3.89567	38
3.89933	38
3.90300	38
3.90667	38
3.91033	38
3.91400	38
3.91767	38
3.92133	38
3.92500	38
3.92867	38
3.93233	38
3.93600	38
3.93967	38
3.94333	38
3.94700	38
3.95067	38
3.95433	38
3.95800	38
3.96167	38
3.96533	37
3.96900	37
3.97267	37
3.97633	37
3.98000	36
3.98367	36
3.98733	36
3.99100	36
3.99467	36
3.99833	36

[Chromatogram (Ch3)]
Interval(msec)	220
# of Points	1091
Start Time(min)	0.002
End Time(min)	3.998
R.Time (min)	Intensity
0.00167	1
0.00533	1
0.00900	-0
0.01267	-0
0.01633	1
0.02000	2
0.02367	1
0.02733	-0
0.03100	-0
0.03467	1
0.03833	-1
0.04200	-2
0.04567	-1
0.04933	-1
0.05300	-1
0.05667	-1
0.06033	-1
0.06400	1
0.06767	2
0.07133	0
0.07500	-1
0.07867	-2
0.08233	-1
0.08600	-1
0.08967	-1
0.09333	0
0.09700	2
0.10067	1
0.10433	-1
0.10800	-4
0.11167	-6
0.11533	-6
0.11900	-4
0.12267	-1
0.12633	1
0.13000	2
0.13367	3
0.13733	4
0.14100	3
0.14467	2
0.14833	1
0.15200	-0
0.15567	0
0.15933	-1
0.16300	1
0.16667	0
0.17033	-0
0.17400	0
0.17767	2
0.18133	3
0.18500	3
0.18867	2
0.19233	-0
0.19600	-2
0.19967	-2
0.20333	-1
0.20700	1
0.21067	4
0.21433	5
0.21800	6
0.22167	7
0.22533	5
0.22900	2
0.23267	0
0.23633	1
0.24000	1
0.24367	1
0.24733	1
0.25100	1
0.25467	0
0.25833	-0
0.26200	1
0.26567	2
0.26933	1
0.27300	-2
0.27667	-4
0.28033	-3
0.28400	1
0.28767	5
0.29133	6
0.29500	4
0.29867	1
0.30233	-1
0.30600	-2
0.30967	-3
0.31333	-4
0.31700	-3
0.32067	-1
0.32433	0
0.32800	0
0.33167	-2
0.33533	-4
0.33900	-3
0.34267	-3
0.34633	-1
0.35000	-0
0.35367	-1
0.35733	-3
0.36100	-4
0.36467	-2
0.36833	0
0.37200	-1
0.37567	-2
0.37933	-2
0.38300	-2
0.38667	-1
0.39033	0
0.39400	2
0.39767	2
0.40133	0
0.40500	-1
0.40867	-2
0.41233	-2
0.41600	-2
0.41967	0
0.42333	-0
0.42700	-2
0.43067	-5
0.43433	-7
0.43800	-7
0.44167	-4
0.44533	-1
0.44900	0
0.45267	2
0.45633	2
0.46000	2
0.46367	2
0.46733	1
0.47100	-1
0.47467	-3
0.47833	-3
0.48200	-5
0.48567	-4
0.48933	-4
0.49300	-6
0.49667	-6
0.50033	-6
0.50400	-4
0.50767	-2
0.51133	0
0.51500	1
0.51867	2
0.52233	0
0.52600	-1
0.52967	-3
0.53333	-4
0.53700	-4
0.54067	-2
0.54433	-1
0.54800	1
0.55167	-0
0.55533	-4
0.55900	-4
0.56267	-5
0.56633	-5
0.57000	-3
0.57367	1
0.57733	4
0.58100	5
0.58467	3
0.58833	1
0.59200	-1
0.59567	-2
0.59933	-0
0.60300	2
0.60667	2
0.61033	-0
0.61400	-3
0.61767	-3
0.62133	-3
0.62500	-3
0.62867	-3
0.63233	-3
0.63600	-5
0.63967	-5
0.64333	-5
0.64700	-4
0.65067	-2
0.65433	1
0.65800	2
0.66167	-1
0.66533	-5
0.66900	-6
0.67267	-6
0.67633	-6
0.68000	-5
0.68367	-2
0.68733	0
0.69100	2
0.69467	4
0.69833	3
0.70200	1
0.70567	-1
0.70933	-6
0.71300	-8
0.71667	-8
0.72033	-5
0.72400	-3
0.72767	-2
0.73133	-1
0.73500	1
0.73867	3
0.74233	4
0.74600	4
0.74967	3
0.75333	2
0.75700	-0
0.76067	-4
0.76433	-6
0.76800	-8
0.77167	-8
0.77533	-9
0.77900	-9
0.78267	-9
0.78633	-10
0.79000	-10
0.79367	-11
0.79733	-12
0.80100	-13
0.80467	-12
0.80833	-10
0.81200	-6
0.81567	-4
0.81933	-3
0.82300	-2
0.82667	-3
0.83033	-5
0.83400	-5
0.83767	-4
0.84133	-4
0.84500	-5
0.84867	-6
0.85233	-5
0.85600	-3
0.85967	-4
0.86333	-5
0.86700	-5
0.87067	-5
0.87433	-7
0.87800	-8
0.88167	-7
0.88533	-6
0.88900	-6
0.89267	-6
0.89633	-8
0.90000	-9
0.90367	-9
0.90733	-8
0.91100	-8
0.91467	-8
0.91833	-8
0.92200	-10
0.92567	-11
0.92933	-8
0.93300	-3
0.93667	-1
0.94033	-1
0.94400	-4
0.94767	-5
0.95133	-5
0.95500	-4
0.95867	-7
0.96233	-7
0.96600	-6
0.96967	-7
0.97333	-7
0.97700	-9
0.98067	-10
0.98433	-10
0.98800	-8
0.99167	-7
0.99533	-6
0.99900	-4
1.00267	-3
1.00633	-2
1.01000	-3
1.01367	-4
1.01733	-5
1.02100	-6
1.02467	-6
1.02833	-7
1.03200	-5
1.03567	-5
1.03933	-3
1.04300	-2
1.04667	-0
1.05033	-1
1.05400	-2
1.05767	-4
1.06133	-6
1.06500	-7
1.06867	-7
1.07233	-7
1.07600	-8
1.07967	-8
1.08333	-9
1.08700	-8
1.09067	-6
1.09433	-6
1.09800	-4
1.10167	-3
1.10533	-2
1.10900	-2
1.11267	-1
1.11633	1
1.12000	5
1.12367	7
1.12733	6
1.13100	3
1.13467	1
1.13833	0
1.14200	-1
1.14567	-1
1.14933	-1
1.15300	-1
1.15667	0
1.16033	3
1.16400	3
1.16767	3
1.17133	3
1.17500	3
1.17867	3
1.18233	6
1.18600	9
1.18967	10
1.19333	9
1.19700	8
1.20067	8
1.20433	11
1.20800	13
1.21167	12
1.21533	11
1.21900	12
1.22267	11
1.22633	10
1.23000	9
1.23367	8
1.23733	8
1.24100	7
1.24467	7
1.24833	6
1.25200	5
1.25567	3
1.25933	4
1.26300	6
1.26667	8
1.27033	10
1.27400	11
1.27767	9
1.28133	7
1.28500	5
1.28867	2
1.29233	1
1.29600	-0
1.29967	2
1.30333	2
1.30700	3
1.31067	3
1.31433	3
1.31800	2
1.32167	3
1.32533	5
1.32900	4
1.33267	6
1.33633	8
1.34000	9
1.34367	7
1.34733	5
1.35100	4
1.35467	3
1.35833	5
1.36200	4
1.36567	3
1.36933	4
1.37300	6
1.37667	8
1.38033	8
1.38400	8
1.38767	7
1.39133	6
1.39500	3
1.39867	1
1.40233	2
1.40600	3
1.40967	4
1.41333	6
1.41700	8
1.42067	6
1.42433	5
1.42800	3
1.43167	2
1.43533	4
1.43900	6
1.44267	6
1.44633	5
1.45000	5
1.45367	1
1.45733	-3
1.46100	-2
1.46467	2
1.46833	2
1.47200	3
1.47567	4
1.47933	8
1.48300	10
1.48667	10
1.49033	8
1.49400	5
1.49767	2
1.50133	-0
1.50500	-1
1.50867	1
1.51233	2
1.51600	0
1.51967	0
1.52333	-1
1.52700	-2
1.53067	-2
1.53433	-2
1.53800	0
1.54167	3
1.54533	1
1.54900	2
1.55267	3
1.55633	2
1.56000	-1
1.56367	-3
1.56733	-3
1.57100	-3
1.57467	-3
1.57833	-3
1.58200	-3
1.58567	-4
1.58933	-0
1.59300	3
1.59667	4
1.60033	5
1.60400	4
1.60767	5
1.61133	6
1.61500	5
1.61867	3
1.62233	2
1.62600	3
1.62967	2
1.63333	3
1.63700	3
1.64067	2
1.64433	1
1.64800	1
1.65167	1
1.65533	1
1.65900	0
1.66267	1
1.66633	-2
1.67000	-2
1.67367	-0
1.67733	1
1.68100	2
1.68467	4
1.68833	5
1.69200	7
1.69567	8
1.69933	8
1.70300	9
1.70667	8
1.71033	9
1.71400	10
1.71767	11
1.72133	13
1.72500	14
1.72867	15
1.73233	16
1.73600	15
1.73967	14
1.74333	15
1.74700	16
1.75067	17
1.75433	19
1.75800	21
1.76167	20
1.76533	19
1.76900	20
1.77267	18
1.77633	18
1.78000	20
1.78367	23
1.78733	24
1.79100	25
1.79467	27
1.79833	30
1.80200	33
1.80567	34
1.80933	34
1.81300	34
1.81667	30
1.82033	28
1.82400	28
1.82767	30
1.83133	32
1.83500	31
1.83867	32
1.84233	33
1.84600	34
1.84967	32
1.85333	32
1.85700	33
1.86067	33
1.86433	34
1.86800	34
1.87167	35
1.87533	36
1.87900	37
1.88267	39
1.88633	40
1.89000	41
1.89367	42
1.89733	40
1.90100	38
1.90467	38
1.90833	39
1.91200	38
1.91567	38
1.91933	37
1.92300	37
1.92667	38
1.93033	37
1.93400	39
1.93767	42
1.94133	41
1.94500	42
1.94867	42
1.95233	44
1.95600	44
1.95967	47
1.96333	52
1.96700	55
1.97067	54
1.97433	52
1.97800	49
1.98167	49
1.98533	50
1.98900	53
1.99267	56
1.99633	57
2.00000	59
2.00367	59
2.00733	57
2.01100	58
2.01467	60
2.01833	62
2.02200	63
2.02567	62
2.02933	64
2.03300	66
2.03667	66
2.04033	66
2.04400	67
2.04767	67
2.05133	68
2.05500	70
2.05867	72
2.06233	74
2.06600	75
2.06967	76
2.07333	74
2.07700	71
2.08067	73
2.08433	76
2.08800	81
2.09167	83
2.09533	83
2.09900	81
2.10267	82
2.10633	84
2.11000	85
2.11367	84
2.11733	83
2.12100	85
2.12467	87
2.12833	91
2.13200	93
2.13567	94
2.13933	95
2.14300	95
2.14667	98
2.15033	100
2.15400	102
2.15767	104
2.16133	107
2.16500	107
2.16867	109
2.17233	109
2.17600	111
2.17967	111
2.18333	111
2.18700	113
2.19067	117
2.19433	120
2.19800	121
2.20167	123
2.20533	123
2.20900	123
2.21267	124
2.21633	126
2.22000	128
2.22367	130
2.22733	129
2.23100	130
2.23467	128
2.23833	125
2.24200	124
2.24567	128
2.24933	133
2.25300	133
2.25667	133
2.26033	135
2.26400	138
2.26767	139
2.27133	139
2.27500	141
2.27867	143
2.28233	144
2.28600	147
2.28967	150
2.29333	154
2.29700	157
2.30067	156
2.30433	155
2.30800	157
2.31167	160
2.31533	163
2.31900	164
2.32267	163
2.32633	163
2.33000	164
2.33367	167
2.33733	170
2.34100	172
2.34467	172
2.34833	175
2.35200	178
2.35567	176
2.35933	176
2.36300	177
2.36667	178
2.37033	180
2.37400	183
2.37767	183
2.38133	183
2.38500	183
2.38867	182
2.39233	183
2.39600	184
2.39967	184
2.40333	184
2.40700	185
2.41067	187
2.41433	190
2.41800	192
2.42167	192
2.42533	196
2.42900	202
2.43267	204
2.43633	206
2.44000	208
2.44367	217
2.44733	234
2.45100	252
2.45467	265
2.45833	273
2.46200	274
2.46567	271
2.46933	266
2.47300	264
2.47667	264
2.48033	262
2.48400	259
2.48767	254
2.49133	250
2.49500	245
2.49867	239
2.50233	234
2.50600	231
2.50967	230
2.51333	229
2.51700	229
2.52067	230
2.52433	235
2.52800	238
2.53167	239
2.53533	242
2.53900	243
2.54267	240
2.54633	236
2.55000	233
2.55367	229
2.55733	227
2.56100	226
2.56467	225
2.56833	227
2.57200	231
2.57567	231
2.57933	231
2.58300	232
2.58667	233
2.59033	233
2.59400	233
2.59767	231
2.60133	225
2.60500	216
2.60867	203
2.61233	184
2.61600	159
2.61967	129
2.62333	95
2.62700	62
2.63067	31
2.63433	4
2.63800	-19
2.64167	-40
2.64533	-51
2.64900	-55
2.65267	-57
2.65633	-53
2.66000	-48
2.66367	-44
2.66733	-39
2.67100	-33
2.67467	-22
2.67833	-10
2.68200	2
2.68567	14
2.68933	27
2.69300	37
2.69667	45
2.70033	55
2.70400	67
2.70767	79
2.71133	91
2.71500	99
2.71867	107
2.72233	115
2.72600	123
2.72967	131
2.73333	138
2.73700	146
2.74067	152
2.74433	160
2.74800	166
2.75167	171
2.75533	175
2.75900	178
2.76267	182
2.76633	185
2.77000	189
2.77367	193
2.77733	198
2.78100	204
2.78467	208
2.78833	212
2.79200	215
2.79567	219
2.79933	221
2.80300	224
2.80667	228
2.81033	231
2.81400	233
2.81767	236
2.82133	243
2.82500	254
2.82867	267
2.83233	295
2.83600	356
2.83967	470
2.84333	660
2.84700	944
2.85067	1336
2.85433	1834
2.85800	2420
2.86167	3054
2.86533	3683
2.86900	4259
2.87267	4735
2.87633	5077
2.88000	5270
2.88367	5314
2.88733	5222
2.89100	5018
2.89467	4736
2.89833	4400
2.90200	4038
2.90567	3668
2.90933	3307
2.91300	2965
2.91667	2642
2.92033	2349
2.92400	2086
2.92767	1850
2.93133	1641
2.93500	1458
2.93867	1302
2.94233	1165
2.94600	1044
2.94967	938
2.95333	848
2.95700	771
2.96067	702
2.96433	641
2.96800	591
2.97167	550
2.97533	515
2.97900	481
2.98267	451
2.98633	426
2.99000	405
2.99367	388
2.99733	372
3.00100	361
3.00467	349
3.00833	339
3.01200	331
3.01567	325
3.01933	319
3.02300	318
3.02667	315
3.03033	310
3.03400	304
3.03767	299
3.04133	295
3.04500	292
3.04867	290
3.05233	286
3.05600	283
3.05967	282
3.06333	283
3.06700	281
3.07067	278
3.07433	276
3.07800	276
3.08167	277
3.08533	276
3.08900	275
3.09267	274
3.09633	271
3.10000	271
3.10367	271
3.10733	270
3.11100	268
3.11467	266
3.11833	262
3.12200	257
3.12567	256
3.12933	259
3.13300	261
3.13667	261
3.14033	260
3.14400	259
3.14767	260
3.15133	258
3.15500	255
3.15867	251
3.16233	250
3.16600	251
3.16967	251
3.17333	250
3.17700	249
3.18067	247
3.18433	245
3.18800	244
3.19167	245
3.19533	247
3.19900	247
3.20267	247
3.20633	245
3.21000	245
3.21367	245
3.21733	246
3.22100	246
3.22467	248
3.22833	249
3.23200	250
3.23567	249
3.23933	248
3.24300	248
3.24667	247
3.25033	244
3.25400	243
3.25767	245
3.26133	245
3.26500	243
3.26867	241
3.27233	239
3.27600	236
3.27967	234
3.28333	234
3.28700	233
3.29067	233
3.29433	231
3.29800	228
3.30167	226
3.30533	225
3.30900	224
3.31267	222
3.31633	217
3.32000	216
3.32367	214
3.32733	211
3.33100	209
3.33467	208
3.33833	206
3.34200	201
3.34567	198
3.34933	194
3.35300	188
3.35667	187
3.36033	185
3.36400	184
3.36767	183
3.37133	182
3.37500	183
3.37867	182
3.38233	179
3.38600	178
3.38967	178
3.39333	175
3.39700	172
3.40067	171
3.40433	169
3.40800	168
3.41167	166
3.41533	163
3.41900	160
3.42267	155
3.42633	151
3.43000	148
3.43367	145
3.43733	145
3.44100	144
3.44467	142
3.44833	140
3.45200	138
3.45567	134
3.45933	127
3.46300	123
3.46667	123
3.47033	123
3.47400	121
3.47767	118
3.48133	116
3.48500	114
3.48867	111
3.49233	109
3.49600	107
3.49967	103
3.50333	99
3.50700	96
3.51067	92
3.51433	92
3.51800	92
3.52167	92
3.52533	92
3.52900	92
3.53267	92
3.53633	91
3.54000	89
3.54367	87
3.54733	87
3.55100	86
3.55467	85
3.55833	81
3.56200	78
3.56567	77
3.56933	80
3.57300	79
3.57667	77
3.58033	76
3.58400	75
3.58767	74
3.59133	71
3.59500	71
3.59867	69
3.60233	69
3.60600	69
3.60967	68
3.61333	69
3.61700	67
3.62067	65
3.62433	65
3.62800	63
3.63167	60
3.63533	58
3.63900	57
3.64267	57
3.64633	57
3.65000	58
3.65367	60
3.65733	59
3.66100	56
3.66467	56
3.66833	58
3.67200	57
3.67567	56
3.67933	55
3.68300	54
3.68667	53
3.69033	53
3.69400	51
3.69767	50
3.70133	51
3.70500	50
3.70867	47
3.71233	47
3.71600	45
3.71967	46
3.72333	47
3.72700	47
3.73067	47
3.73433	49
3.73800	49
3.74167	47
3.74533	47
3.74900	47
3.75267	48
3.75633	48
3.76000	48
3.76367	50
3.76733	54
3.77100	54
3.77467	53
3.77833	52
3.78200	50
3.78567	51
3.78933	53
3.79300	52
3.79667	51
3.80033	51
3.80400	50
3.80767	50
3.81133	50
3.81500	49
3.81867	50
3.82233	49
3.82600	49
3.82967	48
3.83333	45
3.83700	43
3.84067	44
3.84433	46
3.84800	49
3.85167	52
3.85533	53
3.85900	51
3.86267	51
3.86633	51
3.87000	51
3.87367	50
3.87733	50
3.88100	51
3.88467	52
3.88833	51
3.89200	51
3.89567	52
3.89933	51
3.90300	48
3.90667	49
3.91033	49
3.91400	47
3.91767	47
3.92133	46
3.92500	45
3.92867	45
3.93233	45
3.93600	45
3.93967	46
3.94333	46
3.94700	46
3.95067	45
3.95433	44
3.95800	46
3.96167	49
3.96533	51
3.96900	51
3.97267	51
3.97633	50
3.98000	48
3.98367	51
3.98733	52
3.99100	51
3.99467	50
3.99833	49

[Status Trace (Column Oven Temperature)]
Interval(msec)	1000
# of Points	239
Start Time(min)	0.013
End Time(min)	3.979
Intensity Units	
Intensity Multiplier	1
R.Time (min)	Intensity
0.01278	35.00
0.02945	34.99
0.04612	35.00
0.06278	34.99
0.07945	35.00
0.09612	35.01
0.11278	35.01
0.12945	35.01
0.14612	35.01
0.16278	35.01
0.17945	35.02
0.19612	35.01
0.21278	35.00
0.22945	34.99
0.24612	34.99
0.26278	34.98
0.27945	34.98
0.29612	34.98
0.31278	34.98
0.32945	34.98
0.34612	34.99
0.36278	35.00
0.37945	35.02
0.39612	35.04
0.41278	35.06
0.42945	35.06
0.44612	35.05
0.46278	35.03
0.47945	35.02
0.49612	35.01
0.51278	35.00
0.52945	34.99
0.54612	34.98
0.56278	34.98
0.57945	34.97
0.59612	34.97
0.61278	34.97
0.62945	34.98
0.64612	34.98
0.66278	34.98
0.67945	34.99
0.69612	35.00
0.71278	35.01
0.72945	35.03
0.74612	35.03
0.76278	35.04
0.77945	35.04
0.79612	35.04
0.81278	35.04
0.82945	35.03
0.84612	35.01
0.86278	35.01
0.87945	35.00
0.89612	35.00
0.91278	34.99
0.92945	35.00
0.94612	35.00
0.96278	35.00
0.97945	34.99
0.99612	34.98
1.01278	34.99
1.02945	34.98
1.04612	34.98
1.06278	34.98
1.07945	34.99
1.09612	35.02
1.11278	35.05
1.12945	35.06
1.14612	35.06
1.16278	35.06
1.17945	35.05
1.19612	35.05
1.21278	35.03
1.22945	35.02
1.24612	35.00
1.26278	34.99
1.27945	34.99
1.29612	34.98
1.31278	34.99
1.32945	35.00
1.34612	34.99
1.36278	35.01
1.37945	35.03
1.39612	35.03
1.41278	35.03
1.42945	35.03
1.44612	35.03
1.46278	35.02
1.47945	35.02
1.49612	35.01
1.51278	35.01
1.52945	35.02
1.54612	35.02
1.56278	35.02
1.57945	35.01
1.59612	35.02
1.61278	35.09
1.62945	35.21
1.64612	35.41
1.66278	35.68
1.67945	36.04
1.69612	36.40
1.71278	36.76
1.72945	37.09
1.74612	37.45
1.76278	37.79
1.77945	38.09
1.79612	38.40
1.81278	38.75
1.82945	39.07
1.84612	39.40
1.86278	39.74
1.87945	40.07
1.89612	40.41
1.91278	40.74
1.92945	41.06
1.94612	41.39
1.96278	41.71
1.97945	42.05
1.99612	42.38
2.01278	42.70
2.02945	43.02
2.04612	43.37
2.06278	43.69
2.07945	44.02
2.09612	44.35
2.11278	44.67
2.12945	45.01
2.14612	45.35
2.16278	45.67
2.17945	45.97
2.19612	46.30
2.21278	46.62
2.22945	46.95
2.24612	47.28
2.26278	47.62
2.27945	47.95
2.29612	48.27
2.31278	48.61
2.32945	48.92
2.34612	49.24
2.36278	49.49
2.37945	49.64
2.39612	49.67
2.41278	49.67
2.42945	49.68
2.44612	49.70
2.46278	49.70
2.47945	49.72
2.49612	49.73
2.51278	49.73
2.52945	49.75
2.54612	49.75
2.56278	49.77
2.57945	49.78
2.59612	49.80
2.61278	49.82
2.62945	49.83
2.64612	49.84
2.66278	49.85
2.67945	49.86
2.69612	49.85
2.71278	49.88
2.72945	49.89
2.74612	49.89
2.76278	49.88
2.77945	49.88
2.79612	49.88
2.81278	49.90
2.82945	49.90
2.84612	49.91
2.86278	49.92
2.87945	49.92
2.89612	49.93
2.91278	49.95
2.92945	49.97
2.94612	49.98
2.96278	49.99
2.97945	49.99
2.99612	50.01
3.01278	50.03
3.02945	50.06
3.04612	50.07
3.06278	50.09
3.07945	50.11
3.09612	50.11
3.11278	50.10
3.12945	50.09
3.14612	50.07
3.16278	50.06
3.17945	50.04
3.19612	50.03
3.21278	50.03
3.22945	50.03
3.24612	50.02
3.26278	50.03
3.27945	50.03
3.29612	50.03
3.31278	50.03
3.32945	50.03
3.34612	50.02
3.36278	50.02
3.37945	50.02
3.39612	50.02
3.41278	50.04
3.42945	50.06
3.44612	50.06
3.46278	50.06
3.47945	50.07
3.49612	50.08
3.51278	50.07
3.52945	50.07
3.54612	50.06
3.56278	50.06
3.57945	50.06
3.59612	50.05
3.61278	50.05
3.62945	50.06
3.64612	50.05
3.66278	50.06
3.67945	50.06
3.69612	50.06
3.71278	50.07
3.72945	50.09
3.74612	50.09
3.76278	50.10
3.77945	50.11
3.79612	50.12
3.81278	50.11
3.82945	50.09
3.84612	50.08
3.86278	50.06
3.87945	50.05
3.89612	50.03
3.91278	50.01
3.92945	50.00
3.94612	49.98
3.96278	49.98
3.97945	49.98

[Status Trace (Injection Unit Temperature)]
Interval(msec)	1000
# of Points	239
Start Time(min)	0.013
End Time(min)	3.979
Intensity Units	
Intensity Multiplier	1
R.Time (min)	Intensity
0.01278	99.99
0.02945	99.99
0.04612	100.00
0.06278	99.99
0.07945	99.99
0.09612	99.99
0.11278	100.00
0.12945	99.99
0.14612	100.00
0.16278	99.99
0.17945	100.00
0.19612	99.99
0.21278	99.99
0.22945	100.00
0.24612	99.99
0.26278	99.99
0.27945	100.00
0.29612	99.99
0.31278	100.00
0.32945	99.99
0.34612	99.99
0.36278	100.00
0.37945	100.00
0.39612	100.00
0.41278	100.00
0.42945	100.00
0.44612	100.00
0.46278	100.00
0.47945	99.99
0.49612	100.00
0.51278	100.00
0.52945	100.00
0.54612	100.00
0.56278	100.00
0.57945	100.00
0.59612	100.00
0.61278	99.99
0.62945	100.00
0.64612	100.00
0.66278	100.00
0.67945	100.00
0.69612	100.00
0.71278	100.00
0.72945	100.00
0.74612	100.00
0.76278	100.00
0.77945	100.00
0.79612	100.00
0.81278	100.00
0.82945	100.00
0.84612	100.00
0.86278	100.00
0.87945	100.00
0.89612	100.00
0.91278	100.00
0.92945	100.00
0.94612	100.00
0.96278	100.01
0.97945	100.00
0.99612	100.00
1.01278	100.00
1.02945	100.00
1.04612	100.00
1.06278	100.00
1.07945	100.00
1.09612	100.00
1.11278	100.00
1.12945	100.00
1.14612	100.00
1.16278	100.01
1.17945	100.00
1.19612	100.00
1.21278	100.00
1.22945	100.01
1.24612	100.00
1.26278	100.01
1.27945	100.01
1.29612	100.00
1.31278	100.00
1.32945	100.00
1.34612	100.00
1.36278	100.01
1.37945	100.00
1.39612	100.00
1.41278	100.01
1.42945	100.00
1.44612	100.00
1.46278	100.00
1.47945	100.01
1.49612	100.00
1.51278	100.00
1.52945	100.00
1.54612	100.00
1.56278	100.00
1.57945	100.00
1.59612	100.00
1.61278	100.01
1.62945	100.00
1.64612	100.00
1.66278	100.01
1.67945	100.00
1.69612	100.00
1.71278	100.00
1.72945	100.00
1.74612	100.00
1.76278	100.00
1.77945	100.00
1.79612	100.00
1.81278	100.00
1.82945	100.00
1.84612	100.00
1.86278	100.00
1.87945	99.99
1.89612	99.99
1.91278	99.99
1.92945	99.99
1.94612	99.99
1.96278	99.99
1.97945	99.99
1.99612	99.99
2.01278	99.99
2.02945	99.99
2.04612	99.99
2.06278	99.99
2.07945	99.98
2.09612	99.99
2.11278	99.98
2.12945	99.99
2.14612	99.98
2.16278	99.98
2.17945	99.98
2.19612	99.98
2.21278	99.99
2.22945	99.98
2.24612	99.98
2.26278	99.98
2.27945	99.98
2.29612	99.98
2.31278	99.98
2.32945	99.98
2.34612	99.98
2.36278	99.98
2.37945	99.98
2.39612	99.98
2.41278	99.98
2.42945	99.98
2.44612	99.98
2.46278	99.98
2.47945	99.98
2.49612	99.98
2.51278	99.98
2.52945	99.98
2.54612	99.98
2.56278	99.99
2.57945	99.99
2.59612	99.98
2.61278	99.99
2.62945	99.99
2.64612	99.99
2.66278	99.99
2.67945	99.99
2.69612	99.99
2.71278	99.99
2.72945	100.00
2.74612	100.00
2.76278	100.00
2.77945	100.01
2.79612	100.01
2.81278	100.00
2.82945	100.01
2.84612	100.01
2.86278	100.01
2.87945	100.01
2.89612	100.01
2.91278	100.01
2.92945	100.02
2.94612	100.02
2.96278	100.02
2.97945	100.02
2.99612	100.02
3.01278	100.02
3.02945	100.03
3.04612	100.02
3.06278	100.03
3.07945	100.03
3.09612	100.04
3.11278	100.03
3.12945	100.03
3.14612	100.04
3.16278	100.03
3.17945	100.03
3.19612	100.03
3.21278	100.04
3.22945	100.04
3.24612	100.04
3.26278	100.04
3.27945	100.04
3.29612	100.04
3.31278	100.05
3.32945	100.04
3.34612	100.05
3.36278	100.05
3.37945	100.05
3.39612	100.04
3.41278	100.05
3.42945	100.05
3.44612	100.05
3.46278	100.05
3.47945	100.05
3.49612	100.05
3.51278	100.05
3.52945	100.05
3.54612	100.05
3.56278	100.05
3.57945	100.05
3.59612	100.05
3.61278	100.06
3.62945	100.05
3.64612	100.05
3.66278	100.05
3.67945	100.05
3.69612	100.06
3.71278	100.06
3.72945	100.06
3.74612	100.06
3.76278	100.05
3.77945	100.05
3.79612	100.05
3.81278	100.05
3.82945	100.06
3.84612	100.05
3.86278	100.06
3.87945	100.06
3.89612	100.05
3.91278	100.06
3.92945	100.06
3.94612	100.05
3.96278	100.05
3.97945	100.06

[Status Trace (Carrier Gas Pressure)]
Interval(msec)	1000
# of Points	239
Start Time(min)	0.013
End Time(min)	3.979
Intensity Units	
Intensity Multiplier	1
R.Time (min)	Intensity
0.01278	57.95
0.02945	54.92
0.04612	57.73
0.06278	59.75
0.07945	58.94
0.09612	57.99
0.11278	57.99
0.12945	58.01
0.14612	58.01
0.16278	58.00
0.17945	58.00
0.19612	58.00
0.21278	58.00
0.22945	58.00
0.24612	58.00
0.26278	58.00
0.27945	58.00
0.29612	58.00
0.31278	58.00
0.32945	58.00
0.34612	58.00
0.36278	58.00
0.37945	58.00
0.39612	58.00
0.41278	58.00
0.42945	58.00
0.44612	58.00
0.46278	58.00
0.47945	58.00
0.49612	58.00
0.51278	58.00
0.52945	58.00
0.54612	58.00
0.56278	58.00
0.57945	58.00
0.59612	58.00
0.61278	58.00
0.62945	58.00
0.64612	58.00
0.66278	58.00
0.67945	58.00
0.69612	58.00
0.71278	58.00
0.72945	58.00
0.74612	58.00
0.76278	58.00
0.77945	58.00
0.79612	58.00
0.81278	58.00
0.82945	58.00
0.84612	58.00
0.86278	58.00
0.87945	58.00
0.89612	58.00
0.91278	58.00
0.92945	58.00
0.94612	58.00
0.96278	58.00
0.97945	58.00
0.99612	58.00
1.01278	58.00
1.02945	58.00
1.04612	58.00
1.06278	58.00
1.07945	58.00
1.09612	58.00
1.11278	58.00
1.12945	58.00
1.14612	58.00
1.16278	58.00
1.17945	58.00
1.19612	58.00
1.21278	58.00
1.22945	58.00
1.24612	58.00
1.26278	58.00
1.27945	58.00
1.29612	58.00
1.31278	58.00
1.32945	58.00
1.34612	58.00
1.36278	58.00
1.37945	58.00
1.39612	58.00
1.41278	58.00
1.42945	58.00
1.44612	58.00
1.46278	58.00
1.47945	58.00
1.49612	58.00
1.51278	58.00
1.52945	58.00
1.54612	58.00
1.56278	58.00
1.57945	58.00
1.59612	58.00
1.61278	58.00
1.62945	58.00
1.64612	58.01
1.66278	58.01
1.67945	58.01
1.69612	58.00
1.71278	58.00
1.72945	58.00
1.74612	58.00
1.76278	58.00
1.77945	58.00
1.79612	58.00
1.81278	58.00
1.82945	58.00
1.84612	58.00
1.86278	58.00
1.87945	58.00
1.89612	58.00
1.91278	58.00
1.92945	58.00
1.94612	58.00
1.96278	58.00
1.97945	58.00
1.99612	58.00
2.01278	58.00
2.02945	58.00
2.04612	58.00
2.06278	58.00
2.07945	58.00
2.09612	58.00
2.11278	58.00
2.12945	58.00
2.14612	58.00
2.16278	58.00
2.17945	58.00
2.19612	58.00
2.21278	58.00
2.22945	58.00
2.24612	58.00
2.26278	58.00
2.27945	58.00
2.29612	58.00
2.31278	58.00
2.32945	58.00
2.34612	58.00
2.36278	58.00
2.37945	57.99
2.39612	57.99
2.41278	57.99
2.42945	58.00
2.44612	58.00
2.46278	58.00
2.47945	58.00
2.49612	58.00
2.51278	57.99
2.52945	57.99
2.54612	58.00
2.56278	58.00
2.57945	58.00
2.59612	58.00
2.61278	58.00
2.62945	58.00
2.64612	58.00
2.66278	58.00
2.67945	58.00
2.69612	58.00
2.71278	58.00
2.72945	58.00
2.74612	58.00
2.76278	58.00
2.77945	58.00
2.79612	58.00
2.81278	58.00
2.82945	58.00
2.84612	58.00
2.86278	58.00
2.87945	58.00
2.89612	58.00
2.91278	58.00
2.92945	58.00
2.94612	58.00
2.96278	58.00
2.97945	58.00
2.99612	58.00
3.01278	58.00
3.02945	58.00
3.04612	58.00
3.06278	58.00
3.07945	58.00
3.09612	58.00
3.11278	58.00
3.12945	58.00
3.14612	58.00
3.16278	58.00
3.17945	58.00
3.19612	58.00
3.21278	58.00
3.22945	58.00
3.24612	58.00
3.26278	58.00
3.27945	58.00
3.29612	58.00
3.31278	58.00
3.32945	58.00
3.34612	58.00
3.36278	58.00
3.37945	58.00
3.39612	58.00
3.41278	58.00
3.42945	58.00
3.44612	58.00
3.46278	58.00
3.47945	58.00
3.49612	58.00
3.51278	58.00
3.52945	58.00
3.54612	58.00
3.56278	58.00
3.57945	58.00
3.59612	58.00
3.61278	58.00
3.62945	58.00
3.64612	58.00
3.66278	58.00
3.67945	58.00
3.69612	58.00
3.71278	58.00
3.72945	58.00
3.74612	58.00
3.76278	58.00
3.77945	58.00
3.79612	58.00
3.81278	58.00
3.82945	58.00
3.84612	58.00
3.86278	58.00
3.87945	58.00
3.89612	58.00
3.91278	58.00
3.92945	58.00
3.94612	58.00
3.96278	58.00
3.97945	58.00

[Status Trace (Carrier Gas Flow)]
Interval(msec)	1000
# of Points	239
Start Time(min)	0.013
End Time(min)	3.979
Intensity Units	
Intensity Multiplier	1
R.Time (min)	Intensity
0.01278	34.66
0.02945	34.53
0.04612	34.55
0.06278	34.54
0.07945	34.51
0.09612	34.52
0.11278	34.52
0.12945	34.52
0.14612	34.51
0.16278	34.52
0.17945	34.52
0.19612	34.52
0.21278	34.52
0.22945	34.52
0.24612	34.52
0.26278	34.52
0.27945	34.52
0.29612	34.52
0.31278	34.52
0.32945	34.52
0.34612	34.52
0.36278	34.52
0.37945	34.52
0.39612	34.52
0.41278	34.52
0.42945	34.52
0.44612	34.53
0.46278	34.52
0.47945	34.51
0.49612	34.52
0.51278	34.52
0.52945	34.52
0.54612	34.52
0.56278	34.52
0.57945	34.52
0.59612	34.52
0.61278	34.52
0.62945	34.52
0.64612	34.52
0.66278	34.52
0.67945	34.52
0.69612	34.52
0.71278	34.52
0.72945	34.52
0.74612	34.52
0.76278	34.52
0.77945	34.52
0.79612	34.52
0.81278	34.52
0.82945	34.52
0.84612	34.52
0.86278	34.52
0.87945	34.52
0.89612	34.52
0.91278	34.52
0.92945	34.52
0.94612	34.52
0.96278	34.52
0.97945	34.52
0.99612	34.52
1.01278	34.52
1.02945	34.52
1.04612	34.52
1.06278	34.52
1.07945	34.52
1.09612	34.52
1.11278	34.52
1.12945	34.52
1.14612	34.52
1.16278	34.52
1.17945	34.52
1.19612	34.52
1.21278	34.52
1.22945	34.52
1.24612	34.52
1.26278	34.52
1.27945	34.52
1.29612	34.52
1.31278	34.52
1.32945	34.52
1.34612	34.52
1.36278	34.52
1.37945	34.52
1.39612	34.52
1.41278	34.52
1.42945	34.52
1.44612	34.52
1.46278	34.52
1.47945	34.52
1.49612	34.52
1.51278	34.52
1.52945	34.52
1.54612	34.52
1.56278	34.52
1.57945	34.52
1.59612	34.52
1.61278	34.52
1.62945	34.52
1.64612	34.52
1.66278	34.52
1.67945	34.52
1.69612	34.52
1.71278	34.52
1.72945	34.52
1.74612	34.52
1.76278	34.52
1.77945	34.52
1.79612	34.52
1.81278	34.52
1.82945	34.52
1.84612	34.52
1.86278	34.52
1.87945	34.52
1.89612	34.52
1.91278	34.52
1.92945	34.52
1.94612	34.52
1.96278	34.52
1.97945	34.52
1.99612	34.52
2.01278	34.52
2.02945	34.52
2.04612	34.52
2.06278	34.52
2.07945	34.52
2.09612	34.52
2.11278	34.52
2.12945	34.52
2.14612	34.52
2.16278	34.52
2.17945	34.52
2.19612	34.52
2.21278	34.52
2.22945	34.52
2.24612	34.52
2.26278	34.52
2.27945	34.52
2.29612	34.52
2.31278	34.52
2.32945	34.52
2.34612	34.52
2.36278	34.52
2.37945	34.51
2.39612	34.52
2.41278	34.52
2.42945	34.53
2.44612	34.51
2.46278	34.54
2.47945	34.51
2.49612	34.52
2.51278	34.52
2.52945	34.52
2.54612	34.52
2.56278	34.52
2.57945	34.52
2.59612	34.52
2.61278	34.52
2.62945	34.52
2.64612	34.52
2.66278	34.52
2.67945	34.52
2.69612	34.52
2.71278	34.52
2.72945	34.52
2.74612	34.52
2.76278	34.52
2.77945	34.52
2.79612	34.52
2.81278	34.52
2.82945	34.52
2.84612	34.52
2.86278	34.52
2.87945	34.52
2.89612	34.52
2.91278	34.51
2.92945	34.52
2.94612	34.51
2.96278	34.52
2.97945	34.52
2.99612	34.52
3.01278	34.52
3.02945	34.52
3.04612	34.51
3.06278	34.52
3.07945	34.52
3.09612	34.52
3.11278	34.52
3.12945	34.52
3.14612	34.52
3.16278	34.52
3.17945	34.52
3.19612	34.51
3.21278	34.51
3.22945	34.52
3.24612	34.52
3.26278	34.52
3.27945	34.51
3.29612	34.52
3.31278	34.51
3.32945	34.51
3.34612	34.52
3.36278	34.51
3.37945	34.53
3.39612	34.52
3.41278	34.52
3.42945	34.52
3.44612	34.52
3.46278	34.52
3.47945	34.51
3.49612	34.52
3.51278	34.52
3.52945	34.52
3.54612	34.52
3.56278	34.52
3.57945	34.52
3.59612	34.52
3.61278	34.52
3.62945	34.52
3.64612	34.52
3.66278	34.52
3.67945	34.52
3.69612	34.52
3.71278	34.52
3.72945	34.52
3.74612	34.52
3.76278	34.52
3.77945	34.52
3.79612	34.52
3.81278	34.52
3.82945	34.52
3.84612	34.52
3.86278	34.52
3.87945	34.52
3.89612	34.52
3.91278	34.52
3.92945	34.52
3.94612	34.52
3.96278	34.52
3.97945	34.52

[Status Trace (Column Flow)]
Interval(msec)	1000
# of Points	239
Start Time(min)	0.013
End Time(min)	3.979
Intensity Units	
Intensity Multiplier	1
R.Time (min)	Intensity
0.01278	5.50
0.02945	5.15
0.04612	5.47
0.06278	5.71
0.07945	5.61
0.09612	5.50
0.11278	5.50
0.12945	5.51
0.14612	5.51
0.16278	5.50
0.17945	5.50
0.19612	5.50
0.21278	5.50
0.22945	5.51
0.24612	5.51
0.26278	5.51
0.27945	5.51
0.29612	5.51
0.31278	5.51
0.32945	5.51
0.34612	5.50
0.36278	5.50
0.37945	5.50
0.39612	5.50
0.41278	5.50
0.42945	5.50
0.44612	5.50
0.46278	5.50
0.47945	5.50
0.49612	5.50
0.51278	5.50
0.52945	5.50
0.54612	5.51
0.56278	5.51
0.57945	5.51
0.59612	5.51
0.61278	5.51
0.62945	5.51
0.64612	5.51
0.66278	5.51
0.67945	5.50
0.69612	5.50
0.71278	5.50
0.72945	5.50
0.74612	5.50
0.76278	5.50
0.77945	5.50
0.79612	5.50
0.81278	5.50
0.82945	5.50
0.84612	5.50
0.86278	5.50
0.87945	5.50
0.89612	5.50
0.91278	5.50
0.92945	5.50
0.94612	5.50
0.96278	5.50
0.97945	5.50
0.99612	5.51
1.01278	5.50
1.02945	5.51
1.04612	5.51
1.06278	5.51
1.07945	5.50
1.09612	5.50
1.11278	5.50
1.12945	5.50
1.14612	5.50
1.16278	5.50
1.17945	5.50
1.19612	5.50
1.21278	5.50
1.22945	5.50
1.24612	5.50
1.26278	5.50
1.27945	5.50
1.29612	5.50
1.31278	5.50
1.32945	5.50
1.34612	5.50
1.36278	5.50
1.37945	5.50
1.39612	5.50
1.41278	5.50
1.42945	5.50
1.44612	5.50
1.46278	5.50
1.47945	5.50
1.49612	5.50
1.51278	5.50
1.52945	5.50
1.54612	5.50
1.56278	5.50
1.57945	5.50
1.59612	5.50
1.61278	5.50
1.62945	5.50
1.64612	5.49
1.66278	5.48
1.67945	5.47
1.69612	5.46
1.71278	5.45
1.72945	5.44
1.74612	5.43
1.76278	5.42
1.77945	5.41
1.79612	5.40
1.81278	5.39
1.82945	5.38
1.84612	5.37
1.86278	5.36
1.87945	5.35
1.89612	5.34
1.91278	5.33
1.92945	5.32
1.94612	5.31
1.96278	5.30
1.97945	5.29
1.99612	5.28
2.01278	5.27
2.02945	5.26
2.04612	5.25
2.06278	5.24
2.07945	5.23
2.09612	5.22
2.11278	5.21
2.12945	5.20
2.14612	5.19
2.16278	5.18
2.17945	5.18
2.19612	5.17
2.21278	5.16
2.22945	5.15
2.24612	5.14
2.26278	5.13
2.27945	5.12
2.29612	5.11
2.31278	5.10
2.32945	5.09
2.34612	5.08
2.36278	5.08
2.37945	5.07
2.39612	5.07
2.41278	5.07
2.42945	5.07
2.44612	5.07
2.46278	5.07
2.47945	5.07
2.49612	5.07
2.51278	5.07
2.52945	5.07
2.54612	5.07
2.56278	5.07
2.57945	5.07
2.59612	5.07
2.61278	5.07
2.62945	5.07
2.64612	5.07
2.66278	5.07
2.67945	5.07
2.69612	5.07
2.71278	5.07
2.72945	5.07
2.74612	5.07
2.76278	5.07
2.77945	5.07
2.79612	5.07
2.81278	5.07
2.82945	5.07
2.84612	5.07
2.86278	5.06
2.87945	5.06
2.89612	5.06
2.91278	5.06
2.92945	5.06
2.94612	5.06
2.96278	5.06
2.97945	5.06
2.99612	5.06
3.01278	5.06
3.02945	5.06
3.04612	5.06
3.06278	5.06
3.07945	5.06
3.09612	5.06
3.11278	5.06
3.12945	5.06
3.14612	5.06
3.16278	5.06
3.17945	5.06
3.19612	5.06
3.21278	5.06
3.22945	5.06
3.24612	5.06
3.26278	5.06
3.27945	5.06
3.29612	5.06
3.31278	5.06
3.32945	5.06
3.34612	5.06
3.36278	5.06
3.37945	5.06
3.39612	5.06
3.41278	5.06
3.42945	5.06
3.44612	5.06
3.46278	5.06
3.47945	5.06
3.49612	5.06
3.51278	5.06
3.52945	5.06
3.54612	5.06
3.56278	5.06
3.57945	5.06
3.59612	5.06
3.61278	5.06
3.62945	5.06
3.64612	5.06
3.66278	5.06
3.67945	5.06
3.69612	5.06
3.71278	5.06
3.72945	5.06
3.74612	5.06
3.76278	5.06
3.77945	5.06
3.79612	5.06
3.81278	5.06
3.82945	5.06
3.84612	5.06
3.86278	5.06
3.87945	5.06
3.89612	5.06
3.91278	5.06
3.92945	5.06
3.94612	5.06
3.96278	5.06
3.97945	5.06

[Status Trace (Linear Velocity)]
Interval(msec)	1000
# of Points	239
Start Time(min)	0.013
End Time(min)	3.979
Intensity Units	
Intensity Multiplier	1
R.Time (min)	Intensity
0.01278	38.98
0.02945	36.99
0.04612	38.84
0.06278	40.16
0.07945	39.63
0.09612	39.01
0.11278	39.01
0.12945	39.02
0.14612	39.02
0.16278	39.01
0.17945	39.01
0.19612	39.01
0.21278	39.01
0.22945	39.02
0.24612	39.02
0.26278	39.01
0.27945	39.02
0.29612	39.01
0.31278	39.02
0.32945	39.02
0.34612	39.01
0.36278	39.01
0.37945	39.01
0.39612	39.01
0.41278	39.01
0.42945	39.01
0.44612	39.01
0.46278	39.01
0.47945	39.01
0.49612	39.01
0.51278	39.01
0.52945	39.01
0.54612	39.01
0.56278	39.02
0.57945	39.02
0.59612	39.02
0.61278	39.02
0.62945	39.01
0.64612	39.01
0.66278	39.01
0.67945	39.01
0.69612	39.01
0.71278	39.01
0.72945	39.01
0.74612	39.01
0.76278	39.01
0.77945	39.01
0.79612	39.01
0.81278	39.01
0.82945	39.01
0.84612	39.01
0.86278	39.01
0.87945	39.01
0.89612	39.01
0.91278	39.01
0.92945	39.01
0.94612	39.01
0.96278	39.01
0.97945	39.01
0.99612	39.01
1.01278	39.01
1.02945	39.02
1.04612	39.02
1.06278	39.02
1.07945	39.01
1.09612	39.01
1.11278	39.01
1.12945	39.01
1.14612	39.01
1.16278	39.01
1.17945	39.01
1.19612	39.01
1.21278	39.01
1.22945	39.01
1.24612	39.01
1.26278	39.01
1.27945	39.01
1.29612	39.01
1.31278	39.01
1.32945	39.01
1.34612	39.01
1.36278	39.01
1.37945	39.01
1.39612	39.01
1.41278	39.01
1.42945	39.01
1.44612	39.01
1.46278	39.01
1.47945	39.01
1.49612	39.01
1.51278	39.01
1.52945	39.01
1.54612	39.01
1.56278	39.01
1.57945	39.01
1.59612	39.01
1.61278	39.01
1.62945	39.00
1.64612	38.98
1.66278	38.95
1.67945	38.92
1.69612	38.88
1.71278	38.84
1.72945	38.81
1.74612	38.78
1.76278	38.75
1.77945	38.72
1.79612	38.69
1.81278	38.66
1.82945	38.62
1.84612	38.59
1.86278	38.56
1.87945	38.53
1.89612	38.50
1.91278	38.47
1.92945	38.44
1.94612	38.41
1.96278	38.38
1.97945	38.35
1.99612	38.32
2.01278	38.29
2.02945	38.26
2.04612	38.23
2.06278	38.20
2.07945	38.17
2.09612	38.14
2.11278	38.11
2.12945	38.08
2.14612	38.04
2.16278	38.02
2.17945	37.99
2.19612	37.96
2.21278	37.93
2.22945	37.90
2.24612	37.87
2.26278	37.84
2.27945	37.81
2.29612	37.78
2.31278	37.75
2.32945	37.72
2.34612	37.70
2.36278	37.67
2.37945	37.66
2.39612	37.65
2.41278	37.65
2.42945	37.66
2.44612	37.65
2.46278	37.65
2.47945	37.65
2.49612	37.65
2.51278	37.65
2.52945	37.64
2.54612	37.65
2.56278	37.65
2.57945	37.65
2.59612	37.65
2.61278	37.65
2.62945	37.64
2.64612	37.64
2.66278	37.64
2.67945	37.64
2.69612	37.64
2.71278	37.64
2.72945	37.64
2.74612	37.64
2.76278	37.64
2.77945	37.64
2.79612	37.64
2.81278	37.64
2.82945	37.64
2.84612	37.64
2.86278	37.64
2.87945	37.64
2.89612	37.63
2.91278	37.63
2.92945	37.63
2.94612	37.63
2.96278	37.63
2.97945	37.63
2.99612	37.63
3.01278	37.63
3.02945	37.62
3.04612	37.62
3.06278	37.62
3.07945	37.62
3.09612	37.62
3.11278	37.62
3.12945	37.62
3.14612	37.62
3.16278	37.62
3.17945	37.63
3.19612	37.63
3.21278	37.63
3.22945	37.63
3.24612	37.63
3.26278	37.63
3.27945	37.63
3.29612	37.63
3.31278	37.63
3.32945	37.63
3.34612	37.63
3.36278	37.63
3.37945	37.63
3.39612	37.63
3.41278	37.63
3.42945	37.62
3.44612	37.62
3.46278	37.62
3.47945	37.62
3.49612	37.62
3.51278	37.62
3.52945	37.62
3.54612	37.62
3.56278	37.62
3.57945	37.62
3.59612	37.62
3.61278	37.62
3.62945	37.62
3.64612	37.62
3.66278	37.62
3.67945	37.62
3.69612	37.62
3.71278	37.62
3.72945	37.62
3.74612	37.62
3.76278	37.62
3.77945	37.62
3.79612	37.62
3.81278	37.62
3.82945	37.62
3.84612	37.62
3.86278	37.62
3.87945	37.62
3.89612	37.63
3.91278	37.63
3.92945	37.63
3.94612	37.63
3.96278	37.63
3.97945	37.63

