[Header]
Application Name	LabSolutions
Version	5.110
Data File Name	C:\Users\User\Desktop\GC Analyses\Jack\UIC Prairie Sampling\9.2.22\220902_057.gcd
Output Date	10/28/2022
Output Time	1:23:55 PM

[File Information]
Type	Data File
Generated	10/26/2022 1:59:01 PM
Generated by	System Administrator
Modified	10/26/2022 2:03:27 PM
Modified by	System Administrator

[Sample Information]
Operator Name	System Administrator
Acquired	10/26/2022 1:59:26 PM
Sample Type	1:Standard
Level	1
Sample Name	220902_UICPrairie
Sample ID	220902_UICPrairie
ISTD Amount1	1
ISTD Amount2	1
ISTD Amount3	1
ISTD Amount4	1
ISTD Amount5	1
ISTD Amount6	1
ISTD Amount7	1
ISTD Amount8	1
ISTD Amount9	1
ISTD Amount10	1
ISTD Amount11	1
ISTD Amount12	1
ISTD Amount13	1
ISTD Amount14	1
ISTD Amount15	1
ISTD Amount16	1
ISTD Amount17	1
ISTD Amount18	1
ISTD Amount19	1
ISTD Amount20	1
ISTD Amount21	1
ISTD Amount22	1
ISTD Amount23	1
ISTD Amount24	1
ISTD Amount25	1
ISTD Amount26	1
ISTD Amount27	1
ISTD Amount28	1
ISTD Amount29	1
ISTD Amount30	1
ISTD Amount31	1
ISTD Amount32	1
Sample Amount	1
Dilution Factor	1
Vial#	1
Injection Volume	1
Injection Count	1
Bar Code	

[Original Files]
Data File	C:\Users\User\Desktop\GC Analyses\Jack\UIC Prairie Sampling\9.2.22\220902_057.gcd
Method File	C:\LabSolutions\Data\GHG_4min_2022\ghg3_togas_w_acet_4 min_new_int.gcm
Batch File	
Report Format File	c:\LabSolutions\System\DEFAULT.lsr

[File Description]


[Configuration]
Instrument Name	C0B7VH3-Instrument1
Instrument #	1
Line #	1
# of Detectors	3
Detector ID	DET#1	DET#2	DET#3
Detector Name	FID	PTCD	ECD
# of Channels	1	1	1

[Peak Table(Ch1)]
# of Peaks	3
Peak#	R.Time	I.Time	F.Time	Area	Height	A/H	Conc.	Mark	ID#	Name	k'	Plate #	Plate Ht.	Tailing	Resolution	Sep.Factor	Area Ratio	Height Ratio	Conc. %	Norm Conc.
1	1.476	1.435	1.538	11406	5011	2.276	100.000	   	1	CO	0.000	8268	18.143	1.276	0.000	0.000	0	0	16.667	16.667
2	1.571	1.538	1.622	4551	2299	1.979	100.000	 V 	2	CH4	0.065	11383	13.178	1.108	1.540	0.000	0	0	16.667	16.667
3	2.000	1.952	2.308	1735731	840617	2.065	400.000	   	3	CO2	0.355	17837	8.409	1.163	7.222	5.500	0	0	66.667	66.667

[Peak Table(Ch2)]
# of Peaks	0

[Peak Table(Ch3)]
# of Peaks	1
Peak#	R.Time	I.Time	F.Time	Area	Height	A/H	Conc.	Mark	ID#	Name	k'	Plate #	Plate Ht.	Tailing	Resolution	Sep.Factor	Area Ratio	Height Ratio	Conc. %	Norm Conc.
1	2.884	2.667	3.958	55090	5765	9.557	1.000	   	1	N2O	0.000	10417	14.400	7.857	0.000	0.000	0	0	100.000	100.000

[Compound Results(Ch1)]
# of IDs	6
ID#	Name	R.Time	Area	Height	Conc.	Curve	3rd	2nd	1st	Constant	Area Ratio	Height Ratio	Conc. %	Norm Conc.
1	CO	1.476	11406	5011	100.000	Linear	0.000000e+00	0.000000e+00	1.140644e+002	0.000000e+00	0	0	16.667	16.667
2	CH4	1.571	4551	2299	100.000	Linear	0.000000e+00	0.000000e+00	4.550663e+001	0.000000e+00	0	0	16.667	16.667
3	CO2	2.000	1735731	840617	400.000	Linear	0.000000e+00	0.000000e+00	4.339328e+003	0.000000e+00	0	0	66.667	66.667
4	Ethylene	0.000	0	0	0.000	Linear	0.000000e+00	0.000000e+00	0.000000e+00	0.000000e+00	0	0	0.000	0.000
5	Acetylene	0.000	0	0	0.000	Linear	0.000000e+00	0.000000e+00	0.000000e+00	0.000000e+00	0	0	0.000	0.000
6	Ethane	0.000	0	0	0.000	Linear	0.000000e+00	0.000000e+00	0.000000e+00	0.000000e+00	0	0	0.000	0.000

[Compound Results(Ch2)]
# of IDs	5
ID#	Name	R.Time	Area	Height	Conc.	Curve	3rd	2nd	1st	Constant	Area Ratio	Height Ratio	Conc. %	Norm Conc.
1	Hydrogen	0.000	0	0	0.000	Linear	0.000000e+00	0.000000e+00	0.000000e+00	0.000000e+00	0	0	0.000	0.000
2	Oxygen	0.000	0	0	0.000	Linear	0.000000e+00	0.000000e+00	0.000000e+00	0.000000e+00	0	0	0.000	0.000
3	Nitrogen	0.000	0	0	0.000	Linear	0.000000e+00	0.000000e+00	0.000000e+00	0.000000e+00	0	0	0.000	0.000
4	Methane	0.000	0	0	0.000	Linear	0.000000e+00	0.000000e+00	0.000000e+00	0.000000e+00	0	0	0.000	0.000
5	Carbon Monoxide	0.000	0	0	0.000	Linear	0.000000e+00	0.000000e+00	0.000000e+00	0.000000e+00	0	0	0.000	0.000

[Compound Results(Ch3)]
# of IDs	2
ID#	Name	R.Time	Area	Height	Conc.	Curve	3rd	2nd	1st	Constant	Area Ratio	Height Ratio	Conc. %	Norm Conc.
1	N2O	2.884	55090	5765	1.000	Linear	0.000000e+00	0.000000e+00	5.508956e+004	0.000000e+00	0	0	100.000	100.000
2	SF6	0.000	0	0	0.000	Linear	0.000000e+00	0.000000e+00	0.000000e+00	0.000000e+00	0	0	0.000	0.000

[Group Results(Ch1)]
# of Groups	0

[Group Results(Ch2)]
# of Groups	0

[Group Results(Ch3)]
# of Groups	0

[Chromatogram (Ch1)]
Interval(msec)	220
# of Points	1091
Start Time(min)	0.002
End Time(min)	3.998
R.Time (min)	Intensity
0.00167	-19
0.00533	-16
0.00900	-16
0.01267	-17
0.01633	-18
0.02000	-15
0.02367	-12
0.02733	-10
0.03100	-12
0.03467	-15
0.03833	-19
0.04200	-22
0.04567	-25
0.04933	-22
0.05300	-16
0.05667	-11
0.06033	-9
0.06400	-13
0.06767	-16
0.07133	-17
0.07500	-23
0.07867	-30
0.08233	-37
0.08600	-41
0.08967	-36
0.09333	-27
0.09700	-18
0.10067	-12
0.10433	-9
0.10800	-8
0.11167	-12
0.11533	-20
0.11900	-28
0.12267	-32
0.12633	-32
0.13000	-28
0.13367	-24
0.13733	-20
0.14100	-20
0.14467	-24
0.14833	-29
0.15200	-34
0.15567	-37
0.15933	-38
0.16300	-38
0.16667	-38
0.17033	-39
0.17400	-41
0.17767	-41
0.18133	-42
0.18500	-44
0.18867	-44
0.19233	-44
0.19600	-45
0.19967	-45
0.20333	-45
0.20700	-44
0.21067	-40
0.21433	-34
0.21800	-28
0.22167	-23
0.22533	-19
0.22900	-20
0.23267	-24
0.23633	-27
0.24000	-30
0.24367	-32
0.24733	-34
0.25100	-35
0.25467	-38
0.25833	-43
0.26200	-50
0.26567	-54
0.26933	-56
0.27300	-53
0.27667	-47
0.28033	-42
0.28400	-40
0.28767	-40
0.29133	-41
0.29500	-42
0.29867	-42
0.30233	-40
0.30600	-42
0.30967	-50
0.31333	-54
0.31700	-48
0.32067	-40
0.32433	-33
0.32800	-29
0.33167	-25
0.33533	-20
0.33900	-19
0.34267	-19
0.34633	-21
0.35000	-22
0.35367	-20
0.35733	-16
0.36100	-14
0.36467	-16
0.36833	-18
0.37200	-20
0.37567	-19
0.37933	-15
0.38300	-9
0.38667	0
0.39033	10
0.39400	18
0.39767	23
0.40133	22
0.40500	17
0.40867	9
0.41233	-0
0.41600	-8
0.41967	-13
0.42333	-17
0.42700	-21
0.43067	-25
0.43433	-26
0.43800	-23
0.44167	-19
0.44533	-15
0.44900	-10
0.45267	-5
0.45633	-3
0.46000	-1
0.46367	1
0.46733	-1
0.47100	-6
0.47467	-13
0.47833	-19
0.48200	-22
0.48567	-16
0.48933	-7
0.49300	1
0.49667	6
0.50033	5
0.50400	0
0.50767	-6
0.51133	-12
0.51500	-18
0.51867	-25
0.52233	-30
0.52600	-34
0.52967	-37
0.53333	-36
0.53700	-29
0.54067	-17
0.54433	-6
0.54800	-2
0.55167	-3
0.55533	-8
0.55900	-10
0.56267	-9
0.56633	-7
0.57000	-5
0.57367	-2
0.57733	-0
0.58100	3
0.58467	3
0.58833	-0
0.59200	-5
0.59567	-9
0.59933	-12
0.60300	-12
0.60667	-11
0.61033	-11
0.61400	-12
0.61767	-13
0.62133	-13
0.62500	-12
0.62867	-10
0.63233	-4
0.63600	6
0.63967	12
0.64333	12
0.64700	12
0.65067	9
0.65433	4
0.65800	-4
0.66167	-16
0.66533	-28
0.66900	-37
0.67267	-42
0.67633	-42
0.68000	-38
0.68367	-32
0.68733	-25
0.69100	-18
0.69467	-12
0.69833	-4
0.70200	0
0.70567	-0
0.70933	-4
0.71300	-9
0.71667	-12
0.72033	-12
0.72400	-11
0.72767	-12
0.73133	-14
0.73500	-16
0.73867	-18
0.74233	-21
0.74600	-26
0.74967	-33
0.75333	-36
0.75700	-36
0.76067	-37
0.76433	-35
0.76800	-31
0.77167	-29
0.77533	-30
0.77900	-30
0.78267	-28
0.78633	-27
0.79000	-24
0.79367	-16
0.79733	-7
0.80100	-3
0.80467	-5
0.80833	-9
0.81200	-12
0.81567	-16
0.81933	-20
0.82300	-24
0.82667	-31
0.83033	-36
0.83400	-38
0.83767	-37
0.84133	-35
0.84500	-34
0.84867	-37
0.85233	-41
0.85600	-41
0.85967	-39
0.86333	-36
0.86700	-36
0.87067	-35
0.87433	-34
0.87800	-32
0.88167	-26
0.88533	-22
0.88900	-22
0.89267	-21
0.89633	-22
0.90000	-25
0.90367	-27
0.90733	-28
0.91100	-32
0.91467	-37
0.91833	-42
0.92200	-45
0.92567	-47
0.92933	-50
0.93300	-49
0.93667	-42
0.94033	-34
0.94400	-27
0.94767	-23
0.95133	-23
0.95500	-24
0.95867	-24
0.96233	-23
0.96600	-23
0.96967	-22
0.97333	-23
0.97700	-26
0.98067	-28
0.98433	-30
0.98800	-28
0.99167	-26
0.99533	-25
0.99900	-28
1.00267	-31
1.00633	-34
1.01000	-38
1.01367	-41
1.01733	-44
1.02100	-47
1.02467	-50
1.02833	-50
1.03200	-48
1.03567	-44
1.03933	-41
1.04300	-39
1.04667	-36
1.05033	-33
1.05400	-31
1.05767	-33
1.06133	-37
1.06500	-41
1.06867	-44
1.07233	-43
1.07600	-44
1.07967	-47
1.08333	-48
1.08700	-47
1.09067	-46
1.09433	-44
1.09800	-43
1.10167	-47
1.10533	-52
1.10900	-55
1.11267	-54
1.11633	-50
1.12000	-44
1.12367	-39
1.12733	-37
1.13100	-34
1.13467	-31
1.13833	-30
1.14200	-32
1.14567	-35
1.14933	-34
1.15300	-30
1.15667	-26
1.16033	-28
1.16400	-35
1.16767	-41
1.17133	-44
1.17500	-44
1.17867	-41
1.18233	-40
1.18600	-42
1.18967	-47
1.19333	-52
1.19700	-56
1.20067	-60
1.20433	-64
1.20800	-68
1.21167	-72
1.21533	-73
1.21900	-73
1.22267	-72
1.22633	-68
1.23000	-61
1.23367	-55
1.23733	-52
1.24100	-52
1.24467	-54
1.24833	-55
1.25200	-54
1.25567	-51
1.25933	-46
1.26300	-42
1.26667	-42
1.27033	-44
1.27400	-43
1.27767	-40
1.28133	-36
1.28500	-34
1.28867	-36
1.29233	-40
1.29600	-43
1.29967	-48
1.30333	-56
1.30700	-63
1.31067	-68
1.31433	-69
1.31800	-66
1.32167	-58
1.32533	-49
1.32900	-42
1.33267	-39
1.33633	-39
1.34000	-44
1.34367	-51
1.34733	-59
1.35100	-63
1.35467	-62
1.35833	-63
1.36200	-64
1.36567	-66
1.36933	-64
1.37300	-58
1.37667	-53
1.38033	-53
1.38400	-52
1.38767	-51
1.39133	-49
1.39500	-49
1.39867	-51
1.40233	-53
1.40600	-53
1.40967	-58
1.41333	-65
1.41700	-70
1.42067	-75
1.42433	-78
1.42800	-77
1.43167	-74
1.43533	-69
1.43900	-47
1.44267	36
1.44633	246
1.45000	609
1.45367	1165
1.45733	1940
1.46100	2823
1.46467	3647
1.46833	4300
1.47200	4742
1.47567	4944
1.47933	4875
1.48300	4527
1.48667	3945
1.49033	3236
1.49400	2520
1.49767	1888
1.50133	1375
1.50500	983
1.50867	699
1.51233	502
1.51600	363
1.51967	257
1.52333	176
1.52700	119
1.53067	77
1.53433	44
1.53800	26
1.54167	48
1.54533	170
1.54900	444
1.55267	850
1.55633	1294
1.56000	1693
1.56367	2000
1.56733	2190
1.57100	2235
1.57467	2109
1.57833	1828
1.58200	1460
1.58567	1085
1.58933	761
1.59300	507
1.59667	320
1.60033	188
1.60400	96
1.60767	34
1.61133	-6
1.61500	-32
1.61867	-51
1.62233	-63
1.62600	-68
1.62967	-67
1.63333	-66
1.63700	-66
1.64067	-66
1.64433	-68
1.64800	-72
1.65167	-76
1.65533	-80
1.65900	-83
1.66267	-85
1.66633	-83
1.67000	-82
1.67367	-80
1.67733	-76
1.68100	-73
1.68467	-75
1.68833	-81
1.69200	-87
1.69567	-93
1.69933	-97
1.70300	-100
1.70667	-100
1.71033	-99
1.71400	-100
1.71767	-103
1.72133	-104
1.72500	-104
1.72867	-107
1.73233	-109
1.73600	-107
1.73967	-104
1.74333	-102
1.74700	-96
1.75067	-92
1.75433	-89
1.75800	-85
1.76167	-83
1.76533	-84
1.76900	-86
1.77267	-87
1.77633	-88
1.78000	-90
1.78367	-96
1.78733	-98
1.79100	-95
1.79467	-89
1.79833	-82
1.80200	-77
1.80567	-70
1.80933	-64
1.81300	-60
1.81667	-59
1.82033	-60
1.82400	-61
1.82767	-64
1.83133	-66
1.83500	-69
1.83867	-70
1.84233	-74
1.84600	-81
1.84967	-89
1.85333	-97
1.85700	-103
1.86067	-106
1.86433	-104
1.86800	-98
1.87167	-92
1.87533	-88
1.87900	-88
1.88267	-89
1.88633	-92
1.89000	-95
1.89367	-97
1.89733	-100
1.90100	-101
1.90467	-97
1.90833	-89
1.91200	-82
1.91567	-75
1.91933	-70
1.92300	-66
1.92667	-60
1.93033	-55
1.93400	-56
1.93767	-64
1.94133	-76
1.94500	-88
1.94867	-94
1.95233	-83
1.95600	2
1.95967	502
1.96333	2979
1.96700	12353
1.97067	39344
1.97433	99364
1.97800	203683
1.98167	347848
1.98533	510295
1.98900	661942
1.99267	777354
1.99633	839500
2.00000	840573
2.00367	783510
2.00733	682028
2.01100	557198
2.01467	430554
2.01833	317809
2.02200	226562
2.02567	157680
2.02933	108207
2.03300	73875
2.03667	50587
2.04033	34993
2.04400	24606
2.04767	17681
2.05133	13031
2.05500	9866
2.05867	7676
2.06233	6129
2.06600	5012
2.06967	4188
2.07333	3565
2.07700	3084
2.08067	2707
2.08433	2404
2.08800	2155
2.09167	1949
2.09533	1777
2.09900	1631
2.10267	1503
2.10633	1391
2.11000	1292
2.11367	1203
2.11733	1124
2.12100	1052
2.12467	988
2.12833	931
2.13200	880
2.13567	834
2.13933	795
2.14300	759
2.14667	727
2.15033	697
2.15400	667
2.15767	637
2.16133	611
2.16500	589
2.16867	566
2.17233	542
2.17600	521
2.17967	502
2.18333	482
2.18700	464
2.19067	448
2.19433	434
2.19800	421
2.20167	409
2.20533	401
2.20900	394
2.21267	385
2.21633	375
2.22000	367
2.22367	360
2.22733	352
2.23100	346
2.23467	340
2.23833	329
2.24200	314
2.24567	299
2.24933	285
2.25300	272
2.25667	261
2.26033	257
2.26400	259
2.26767	259
2.27133	255
2.27500	250
2.27867	247
2.28233	243
2.28600	236
2.28967	230
2.29333	225
2.29700	220
2.30067	216
2.30433	213
2.30800	212
2.31167	208
2.31533	204
2.31900	202
2.32267	203
2.32633	205
2.33000	207
2.33367	210
2.33733	211
2.34100	209
2.34467	208
2.34833	204
2.35200	200
2.35567	196
2.35933	191
2.36300	185
2.36667	176
2.37033	169
2.37400	164
2.37767	163
2.38133	163
2.38500	165
2.38867	166
2.39233	165
2.39600	167
2.39967	172
2.40333	179
2.40700	182
2.41067	180
2.41433	177
2.41800	175
2.42167	176
2.42533	178
2.42900	181
2.43267	182
2.43633	181
2.44000	176
2.44367	168
2.44733	160
2.45100	153
2.45467	148
2.45833	144
2.46200	138
2.46567	137
2.46933	137
2.47300	140
2.47667	145
2.48033	150
2.48400	152
2.48767	148
2.49133	142
2.49500	136
2.49867	130
2.50233	127
2.50600	132
2.50967	138
2.51333	140
2.51700	137
2.52067	135
2.52433	138
2.52800	142
2.53167	143
2.53533	142
2.53900	140
2.54267	138
2.54633	136
2.55000	130
2.55367	122
2.55733	116
2.56100	112
2.56467	108
2.56833	106
2.57200	105
2.57567	105
2.57933	105
2.58300	104
2.58667	103
2.59033	104
2.59400	107
2.59767	111
2.60133	118
2.60500	125
2.60867	131
2.61233	136
2.61600	137
2.61967	135
2.62333	134
2.62700	133
2.63067	134
2.63433	135
2.63800	137
2.64167	135
2.64533	130
2.64900	126
2.65267	121
2.65633	117
2.66000	113
2.66367	110
2.66733	109
2.67100	109
2.67467	111
2.67833	112
2.68200	111
2.68567	107
2.68933	102
2.69300	100
2.69667	99
2.70033	100
2.70400	102
2.70767	104
2.71133	104
2.71500	106
2.71867	110
2.72233	115
2.72600	120
2.72967	126
2.73333	129
2.73700	128
2.74067	126
2.74433	121
2.74800	114
2.75167	109
2.75533	105
2.75900	104
2.76267	105
2.76633	108
2.77000	113
2.77367	118
2.77733	121
2.78100	122
2.78467	121
2.78833	119
2.79200	117
2.79567	116
2.79933	116
2.80300	115
2.80667	111
2.81033	107
2.81400	105
2.81767	107
2.82133	108
2.82500	105
2.82867	102
2.83233	101
2.83600	99
2.83967	97
2.84333	97
2.84700	99
2.85067	102
2.85433	107
2.85800	113
2.86167	119
2.86533	124
2.86900	126
2.87267	127
2.87633	130
2.88000	134
2.88367	136
2.88733	133
2.89100	126
2.89467	118
2.89833	111
2.90200	108
2.90567	108
2.90933	110
2.91300	115
2.91667	117
2.92033	115
2.92400	113
2.92767	114
2.93133	114
2.93500	113
2.93867	111
2.94233	107
2.94600	102
2.94967	101
2.95333	104
2.95700	109
2.96067	113
2.96433	117
2.96800	117
2.97167	114
2.97533	109
2.97900	105
2.98267	104
2.98633	109
2.99000	118
2.99367	127
2.99733	132
3.00100	131
3.00467	127
3.00833	123
3.01200	121
3.01567	120
3.01933	116
3.02300	110
3.02667	107
3.03033	108
3.03400	113
3.03767	118
3.04133	122
3.04500	122
3.04867	117
3.05233	113
3.05600	110
3.05967	107
3.06333	106
3.06700	105
3.07067	105
3.07433	105
3.07800	104
3.08167	101
3.08533	95
3.08900	89
3.09267	86
3.09633	85
3.10000	85
3.10367	92
3.10733	100
3.11100	105
3.11467	104
3.11833	105
3.12200	106
3.12567	107
3.12933	107
3.13300	107
3.13667	107
3.14033	108
3.14400	107
3.14767	104
3.15133	100
3.15500	95
3.15867	87
3.16233	82
3.16600	83
3.16967	88
3.17333	90
3.17700	91
3.18067	94
3.18433	99
3.18800	106
3.19167	110
3.19533	106
3.19900	99
3.20267	95
3.20633	93
3.21000	89
3.21367	85
3.21733	85
3.22100	88
3.22467	94
3.22833	99
3.23200	104
3.23567	106
3.23933	105
3.24300	101
3.24667	95
3.25033	89
3.25400	83
3.25767	82
3.26133	84
3.26500	87
3.26867	87
3.27233	84
3.27600	82
3.27967	82
3.28333	83
3.28700	85
3.29067	85
3.29433	85
3.29800	88
3.30167	93
3.30533	96
3.30900	94
3.31267	91
3.31633	89
3.32000	89
3.32367	89
3.32733	86
3.33100	79
3.33467	72
3.33833	66
3.34200	65
3.34567	66
3.34933	67
3.35300	66
3.35667	66
3.36033	65
3.36400	63
3.36767	63
3.37133	64
3.37500	63
3.37867	62
3.38233	63
3.38600	67
3.38967	73
3.39333	80
3.39700	87
3.40067	90
3.40433	89
3.40800	86
3.41167	78
3.41533	70
3.41900	64
3.42267	62
3.42633	65
3.43000	69
3.43367	70
3.43733	70
3.44100	69
3.44467	71
3.44833	74
3.45200	77
3.45567	80
3.45933	81
3.46300	80
3.46667	77
3.47033	72
3.47400	68
3.47767	62
3.48133	57
3.48500	56
3.48867	61
3.49233	68
3.49600	74
3.49967	76
3.50333	78
3.50700	77
3.51067	73
3.51433	69
3.51800	63
3.52167	58
3.52533	58
3.52900	61
3.53267	66
3.53633	70
3.54000	75
3.54367	78
3.54733	81
3.55100	83
3.55467	78
3.55833	67
3.56200	54
3.56567	43
3.56933	37
3.57300	37
3.57667	41
3.58033	46
3.58400	49
3.58767	49
3.59133	48
3.59500	47
3.59867	46
3.60233	48
3.60600	49
3.60967	47
3.61333	42
3.61700	38
3.62067	41
3.62433	48
3.62800	55
3.63167	60
3.63533	64
3.63900	66
3.64267	65
3.64633	65
3.65000	66
3.65367	68
3.65733	71
3.66100	72
3.66467	73
3.66833	74
3.67200	73
3.67567	71
3.67933	71
3.68300	73
3.68667	74
3.69033	76
3.69400	78
3.69767	79
3.70133	76
3.70500	71
3.70867	65
3.71233	58
3.71600	55
3.71967	57
3.72333	63
3.72700	69
3.73067	69
3.73433	68
3.73800	67
3.74167	68
3.74533	70
3.74900	72
3.75267	70
3.75633	67
3.76000	62
3.76367	59
3.76733	58
3.77100	59
3.77467	59
3.77833	56
3.78200	51
3.78567	51
3.78933	59
3.79300	70
3.79667	83
3.80033	90
3.80400	91
3.80767	87
3.81133	81
3.81500	74
3.81867	71
3.82233	72
3.82600	76
3.82967	78
3.83333	76
3.83700	71
3.84067	66
3.84433	61
3.84800	56
3.85167	53
3.85533	55
3.85900	60
3.86267	65
3.86633	70
3.87000	75
3.87367	79
3.87733	82
3.88100	83
3.88467	83
3.88833	83
3.89200	81
3.89567	77
3.89933	74
3.90300	72
3.90667	70
3.91033	73
3.91400	76
3.91767	76
3.92133	75
3.92500	73
3.92867	72
3.93233	71
3.93600	67
3.93967	62
3.94333	58
3.94700	58
3.95067	61
3.95433	65
3.95800	68
3.96167	61
3.96533	49
3.96900	39
3.97267	35
3.97633	37
3.98000	44
3.98367	51
3.98733	58
3.99100	63
3.99467	67
3.99833	65

[Chromatogram (Ch2)]
Interval(msec)	220
# of Points	1091
Start Time(min)	0.002
End Time(min)	3.998
R.Time (min)	Intensity
0.00167	-1
0.00533	-1
0.00900	-1
0.01267	-2
0.01633	-2
0.02000	-2
0.02367	-2
0.02733	-2
0.03100	-1
0.03467	-1
0.03833	-1
0.04200	-0
0.04567	0
0.04933	0
0.05300	0
0.05667	0
0.06033	0
0.06400	0
0.06767	0
0.07133	1
0.07500	1
0.07867	1
0.08233	1
0.08600	2
0.08967	2
0.09333	2
0.09700	3
0.10067	3
0.10433	3
0.10800	4
0.11167	4
0.11533	4
0.11900	5
0.12267	5
0.12633	5
0.13000	5
0.13367	5
0.13733	4
0.14100	4
0.14467	4
0.14833	4
0.15200	3
0.15567	3
0.15933	3
0.16300	3
0.16667	3
0.17033	3
0.17400	3
0.17767	3
0.18133	3
0.18500	3
0.18867	3
0.19233	3
0.19600	3
0.19967	3
0.20333	4
0.20700	4
0.21067	4
0.21433	5
0.21800	5
0.22167	5
0.22533	4
0.22900	4
0.23267	4
0.23633	4
0.24000	3
0.24367	3
0.24733	2
0.25100	2
0.25467	2
0.25833	1
0.26200	1
0.26567	1
0.26933	1
0.27300	1
0.27667	1
0.28033	1
0.28400	1
0.28767	1
0.29133	1
0.29500	1
0.29867	1
0.30233	1
0.30600	1
0.30967	1
0.31333	1
0.31700	1
0.32067	1
0.32433	1
0.32800	1
0.33167	1
0.33533	2
0.33900	2
0.34267	2
0.34633	2
0.35000	2
0.35367	2
0.35733	2
0.36100	2
0.36467	2
0.36833	2
0.37200	2
0.37567	2
0.37933	1
0.38300	1
0.38667	1
0.39033	1
0.39400	1
0.39767	0
0.40133	0
0.40500	1
0.40867	1
0.41233	1
0.41600	1
0.41967	1
0.42333	1
0.42700	1
0.43067	1
0.43433	1
0.43800	2
0.44167	2
0.44533	2
0.44900	2
0.45267	2
0.45633	2
0.46000	2
0.46367	1
0.46733	1
0.47100	1
0.47467	1
0.47833	1
0.48200	1
0.48567	1
0.48933	1
0.49300	1
0.49667	1
0.50033	1
0.50400	0
0.50767	-0
0.51133	-1
0.51500	-1
0.51867	-1
0.52233	-2
0.52600	-2
0.52967	-2
0.53333	-2
0.53700	-2
0.54067	-2
0.54433	-3
0.54800	-3
0.55167	-3
0.55533	-3
0.55900	-3
0.56267	-3
0.56633	-3
0.57000	-4
0.57367	-4
0.57733	-3
0.58100	-3
0.58467	-3
0.58833	-3
0.59200	-3
0.59567	-2
0.59933	-2
0.60300	-2
0.60667	-1
0.61033	-1
0.61400	-0
0.61767	0
0.62133	0
0.62500	1
0.62867	1
0.63233	2
0.63600	2
0.63967	2
0.64333	2
0.64700	3
0.65067	3
0.65433	3
0.65800	3
0.66167	3
0.66533	3
0.66900	3
0.67267	3
0.67633	4
0.68000	4
0.68367	4
0.68733	4
0.69100	4
0.69467	4
0.69833	4
0.70200	4
0.70567	3
0.70933	3
0.71300	3
0.71667	3
0.72033	3
0.72400	3
0.72767	3
0.73133	3
0.73500	3
0.73867	3
0.74233	3
0.74600	3
0.74967	3
0.75333	3
0.75700	3
0.76067	3
0.76433	3
0.76800	3
0.77167	3
0.77533	2
0.77900	2
0.78267	2
0.78633	1
0.79000	1
0.79367	1
0.79733	1
0.80100	1
0.80467	1
0.80833	1
0.81200	0
0.81567	0
0.81933	0
0.82300	0
0.82667	0
0.83033	0
0.83400	0
0.83767	0
0.84133	0
0.84500	0
0.84867	0
0.85233	-0
0.85600	-0
0.85967	-1
0.86333	-1
0.86700	-1
0.87067	-1
0.87433	-1
0.87800	-2
0.88167	-2
0.88533	-2
0.88900	-2
0.89267	-2
0.89633	-3
0.90000	-3
0.90367	-3
0.90733	-3
0.91100	-3
0.91467	-3
0.91833	-3
0.92200	-2
0.92567	-2
0.92933	-2
0.93300	-2
0.93667	-1
0.94033	-1
0.94400	-1
0.94767	-1
0.95133	-1
0.95500	-0
0.95867	0
0.96233	0
0.96600	1
0.96967	1
0.97333	2
0.97700	2
0.98067	2
0.98433	2
0.98800	2
0.99167	2
0.99533	1
0.99900	1
1.00267	1
1.00633	1
1.01000	1
1.01367	2
1.01733	2
1.02100	2
1.02467	3
1.02833	3
1.03200	3
1.03567	3
1.03933	3
1.04300	3
1.04667	2
1.05033	2
1.05400	2
1.05767	2
1.06133	2
1.06500	1
1.06867	1
1.07233	1
1.07600	1
1.07967	0
1.08333	0
1.08700	-0
1.09067	-1
1.09433	-1
1.09800	-2
1.10167	-2
1.10533	-2
1.10900	-2
1.11267	-3
1.11633	-3
1.12000	-3
1.12367	-3
1.12733	-3
1.13100	-3
1.13467	-3
1.13833	-3
1.14200	-3
1.14567	-3
1.14933	-3
1.15300	-3
1.15667	-2
1.16033	-2
1.16400	-1
1.16767	-1
1.17133	-0
1.17500	0
1.17867	1
1.18233	1
1.18600	1
1.18967	1
1.19333	1
1.19700	1
1.20067	1
1.20433	1
1.20800	1
1.21167	1
1.21533	1
1.21900	1
1.22267	1
1.22633	2
1.23000	2
1.23367	2
1.23733	2
1.24100	2
1.24467	2
1.24833	2
1.25200	2
1.25567	3
1.25933	3
1.26300	2
1.26667	2
1.27033	2
1.27400	2
1.27767	2
1.28133	2
1.28500	2
1.28867	2
1.29233	2
1.29600	2
1.29967	2
1.30333	1
1.30700	1
1.31067	1
1.31433	1
1.31800	1
1.32167	1
1.32533	0
1.32900	-0
1.33267	-1
1.33633	-1
1.34000	-1
1.34367	-1
1.34733	-1
1.35100	-1
1.35467	-1
1.35833	-2
1.36200	-2
1.36567	-2
1.36933	-2
1.37300	-3
1.37667	-3
1.38033	-3
1.38400	-3
1.38767	-3
1.39133	-3
1.39500	-3
1.39867	-3
1.40233	-3
1.40600	-2
1.40967	-2
1.41333	-1
1.41700	-1
1.42067	-1
1.42433	-0
1.42800	-0
1.43167	0
1.43533	0
1.43900	1
1.44267	1
1.44633	1
1.45000	2
1.45367	2
1.45733	2
1.46100	2
1.46467	2
1.46833	3
1.47200	3
1.47567	3
1.47933	3
1.48300	3
1.48667	3
1.49033	2
1.49400	2
1.49767	2
1.50133	2
1.50500	2
1.50867	2
1.51233	2
1.51600	2
1.51967	2
1.52333	2
1.52700	2
1.53067	2
1.53433	2
1.53800	1
1.54167	1
1.54533	0
1.54900	0
1.55267	0
1.55633	0
1.56000	0
1.56367	1
1.56733	1
1.57100	1
1.57467	1
1.57833	1
1.58200	1
1.58567	0
1.58933	0
1.59300	-0
1.59667	-1
1.60033	-2
1.60400	-3
1.60767	-4
1.61133	-6
1.61500	-8
1.61867	-10
1.62233	-13
1.62600	-15
1.62967	-18
1.63333	-21
1.63700	-25
1.64067	-28
1.64433	-32
1.64800	-36
1.65167	-40
1.65533	-43
1.65900	-47
1.66267	-51
1.66633	-55
1.67000	-60
1.67367	-65
1.67733	-70
1.68100	-75
1.68467	-80
1.68833	-84
1.69200	-88
1.69567	-92
1.69933	-96
1.70300	-99
1.70667	-101
1.71033	-103
1.71400	-105
1.71767	-106
1.72133	-107
1.72500	-108
1.72867	-109
1.73233	-110
1.73600	-110
1.73967	-111
1.74333	-111
1.74700	-112
1.75067	-112
1.75433	-113
1.75800	-113
1.76167	-114
1.76533	-115
1.76900	-115
1.77267	-116
1.77633	-116
1.78000	-117
1.78367	-117
1.78733	-118
1.79100	-118
1.79467	-119
1.79833	-120
1.80200	-120
1.80567	-121
1.80933	-121
1.81300	-122
1.81667	-122
1.82033	-122
1.82400	-121
1.82767	-120
1.83133	-119
1.83500	-118
1.83867	-117
1.84233	-117
1.84600	-116
1.84967	-116
1.85333	-116
1.85700	-117
1.86067	-117
1.86433	-117
1.86800	-118
1.87167	-119
1.87533	-119
1.87900	-119
1.88267	-119
1.88633	-118
1.89000	-118
1.89367	-118
1.89733	-117
1.90100	-117
1.90467	-117
1.90833	-117
1.91200	-117
1.91567	-117
1.91933	-117
1.92300	-117
1.92667	-116
1.93033	-117
1.93400	-117
1.93767	-117
1.94133	-117
1.94500	-117
1.94867	-117
1.95233	-117
1.95600	-116
1.95967	-116
1.96333	-116
1.96700	-115
1.97067	-115
1.97433	-115
1.97800	-115
1.98167	-115
1.98533	-115
1.98900	-114
1.99267	-114
1.99633	-113
2.00000	-113
2.00367	-112
2.00733	-112
2.01100	-112
2.01467	-111
2.01833	-111
2.02200	-110
2.02567	-110
2.02933	-110
2.03300	-110
2.03667	-110
2.04033	-110
2.04400	-111
2.04767	-111
2.05133	-111
2.05500	-110
2.05867	-109
2.06233	-107
2.06600	-107
2.06967	-106
2.07333	-106
2.07700	-106
2.08067	-106
2.08433	-106
2.08800	-106
2.09167	-106
2.09533	-106
2.09900	-106
2.10267	-105
2.10633	-105
2.11000	-105
2.11367	-105
2.11733	-105
2.12100	-105
2.12467	-105
2.12833	-105
2.13200	-104
2.13567	-103
2.13933	-102
2.14300	-102
2.14667	-101
2.15033	-101
2.15400	-101
2.15767	-100
2.16133	-100
2.16500	-100
2.16867	-99
2.17233	-99
2.17600	-99
2.17967	-98
2.18333	-98
2.18700	-98
2.19067	-98
2.19433	-98
2.19800	-97
2.20167	-96
2.20533	-96
2.20900	-95
2.21267	-95
2.21633	-94
2.22000	-94
2.22367	-94
2.22733	-93
2.23100	-93
2.23467	-93
2.23833	-93
2.24200	-92
2.24567	-92
2.24933	-92
2.25300	-92
2.25667	-93
2.26033	-93
2.26400	-93
2.26767	-93
2.27133	-92
2.27500	-92
2.27867	-91
2.28233	-91
2.28600	-90
2.28967	-90
2.29333	-90
2.29700	-90
2.30067	-89
2.30433	-89
2.30800	-89
2.31167	-89
2.31533	-89
2.31900	-88
2.32267	-88
2.32633	-87
2.33000	-87
2.33367	-87
2.33733	-86
2.34100	-86
2.34467	-86
2.34833	-86
2.35200	-85
2.35567	-84
2.35933	-83
2.36300	-82
2.36667	-80
2.37033	-78
2.37400	-75
2.37767	-73
2.38133	-69
2.38500	-66
2.38867	-62
2.39233	-58
2.39600	-53
2.39967	-48
2.40333	-44
2.40700	-39
2.41067	-35
2.41433	-31
2.41800	-28
2.42167	-25
2.42533	-22
2.42900	-19
2.43267	-17
2.43633	-14
2.44000	-12
2.44367	-10
2.44733	-8
2.45100	-7
2.45467	-6
2.45833	-4
2.46200	-3
2.46567	-2
2.46933	-0
2.47300	1
2.47667	2
2.48033	3
2.48400	4
2.48767	5
2.49133	5
2.49500	6
2.49867	6
2.50233	7
2.50600	8
2.50967	9
2.51333	10
2.51700	11
2.52067	11
2.52433	12
2.52800	12
2.53167	12
2.53533	12
2.53900	13
2.54267	13
2.54633	13
2.55000	14
2.55367	14
2.55733	14
2.56100	14
2.56467	14
2.56833	14
2.57200	14
2.57567	14
2.57933	14
2.58300	14
2.58667	15
2.59033	15
2.59400	15
2.59767	15
2.60133	15
2.60500	16
2.60867	16
2.61233	16
2.61600	16
2.61967	16
2.62333	17
2.62700	17
2.63067	18
2.63433	18
2.63800	19
2.64167	19
2.64533	19
2.64900	19
2.65267	19
2.65633	20
2.66000	20
2.66367	20
2.66733	21
2.67100	21
2.67467	21
2.67833	22
2.68200	22
2.68567	22
2.68933	22
2.69300	23
2.69667	23
2.70033	23
2.70400	23
2.70767	24
2.71133	24
2.71500	24
2.71867	24
2.72233	23
2.72600	23
2.72967	23
2.73333	24
2.73700	24
2.74067	24
2.74433	25
2.74800	25
2.75167	26
2.75533	26
2.75900	27
2.76267	27
2.76633	27
2.77000	28
2.77367	28
2.77733	28
2.78100	28
2.78467	28
2.78833	28
2.79200	28
2.79567	28
2.79933	28
2.80300	27
2.80667	27
2.81033	26
2.81400	25
2.81767	25
2.82133	24
2.82500	24
2.82867	24
2.83233	24
2.83600	24
2.83967	24
2.84333	24
2.84700	23
2.85067	22
2.85433	19
2.85800	13
2.86167	5
2.86533	-6
2.86900	-21
2.87267	-40
2.87633	-63
2.88000	-89
2.88367	-120
2.88733	-154
2.89100	-192
2.89467	-232
2.89833	-275
2.90200	-321
2.90567	-368
2.90933	-416
2.91300	-465
2.91667	-515
2.92033	-565
2.92400	-614
2.92767	-663
2.93133	-712
2.93500	-760
2.93867	-809
2.94233	-860
2.94600	-917
2.94967	-979
2.95333	-1035
2.95700	-1076
2.96067	-1093
2.96433	-1083
2.96800	-1049
2.97167	-995
2.97533	-928
2.97900	-851
2.98267	-772
2.98633	-692
2.99000	-615
2.99367	-542
2.99733	-474
3.00100	-412
3.00467	-357
3.00833	-307
3.01200	-263
3.01567	-225
3.01933	-191
3.02300	-162
3.02667	-136
3.03033	-114
3.03400	-96
3.03767	-79
3.04133	-66
3.04500	-54
3.04867	-44
3.05233	-35
3.05600	-28
3.05967	-22
3.06333	-16
3.06700	-12
3.07067	-8
3.07433	-5
3.07800	-2
3.08167	0
3.08533	2
3.08900	4
3.09267	6
3.09633	7
3.10000	8
3.10367	9
3.10733	10
3.11100	11
3.11467	12
3.11833	12
3.12200	13
3.12567	13
3.12933	14
3.13300	14
3.13667	14
3.14033	15
3.14400	15
3.14767	15
3.15133	15
3.15500	15
3.15867	16
3.16233	16
3.16600	16
3.16967	17
3.17333	17
3.17700	17
3.18067	18
3.18433	19
3.18800	19
3.19167	19
3.19533	20
3.19900	20
3.20267	21
3.20633	21
3.21000	21
3.21367	21
3.21733	21
3.22100	22
3.22467	22
3.22833	22
3.23200	22
3.23567	23
3.23933	23
3.24300	23
3.24667	23
3.25033	23
3.25400	24
3.25767	24
3.26133	24
3.26500	24
3.26867	24
3.27233	24
3.27600	24
3.27967	24
3.28333	24
3.28700	24
3.29067	25
3.29433	25
3.29800	25
3.30167	25
3.30533	25
3.30900	25
3.31267	25
3.31633	25
3.32000	25
3.32367	25
3.32733	25
3.33100	24
3.33467	24
3.33833	25
3.34200	25
3.34567	25
3.34933	25
3.35300	25
3.35667	25
3.36033	25
3.36400	25
3.36767	25
3.37133	25
3.37500	26
3.37867	26
3.38233	26
3.38600	26
3.38967	26
3.39333	27
3.39700	27
3.40067	27
3.40433	28
3.40800	28
3.41167	28
3.41533	28
3.41900	29
3.42267	29
3.42633	29
3.43000	29
3.43367	29
3.43733	29
3.44100	29
3.44467	29
3.44833	29
3.45200	28
3.45567	28
3.45933	28
3.46300	28
3.46667	28
3.47033	28
3.47400	28
3.47767	28
3.48133	28
3.48500	28
3.48867	28
3.49233	28
3.49600	28
3.49967	28
3.50333	28
3.50700	28
3.51067	27
3.51433	27
3.51800	27
3.52167	27
3.52533	27
3.52900	26
3.53267	26
3.53633	26
3.54000	26
3.54367	26
3.54733	26
3.55100	26
3.55467	26
3.55833	26
3.56200	26
3.56567	26
3.56933	26
3.57300	26
3.57667	26
3.58033	26
3.58400	26
3.58767	26
3.59133	26
3.59500	26
3.59867	26
3.60233	26
3.60600	26
3.60967	26
3.61333	26
3.61700	27
3.62067	27
3.62433	27
3.62800	27
3.63167	28
3.63533	28
3.63900	28
3.64267	28
3.64633	28
3.65000	28
3.65367	28
3.65733	28
3.66100	28
3.66467	28
3.66833	28
3.67200	28
3.67567	28
3.67933	28
3.68300	29
3.68667	29
3.69033	28
3.69400	28
3.69767	28
3.70133	28
3.70500	28
3.70867	28
3.71233	28
3.71600	28
3.71967	28
3.72333	27
3.72700	27
3.73067	27
3.73433	26
3.73800	26
3.74167	26
3.74533	26
3.74900	26
3.75267	26
3.75633	26
3.76000	26
3.76367	26
3.76733	26
3.77100	26
3.77467	26
3.77833	26
3.78200	26
3.78567	26
3.78933	26
3.79300	26
3.79667	26
3.80033	26
3.80400	26
3.80767	26
3.81133	27
3.81500	27
3.81867	27
3.82233	27
3.82600	27
3.82967	27
3.83333	27
3.83700	27
3.84067	27
3.84433	27
3.84800	27
3.85167	27
3.85533	27
3.85900	27
3.86267	27
3.86633	27
3.87000	27
3.87367	27
3.87733	27
3.88100	27
3.88467	27
3.88833	27
3.89200	28
3.89567	28
3.89933	28
3.90300	28
3.90667	28
3.91033	28
3.91400	28
3.91767	28
3.92133	28
3.92500	28
3.92867	28
3.93233	27
3.93600	27
3.93967	27
3.94333	27
3.94700	28
3.95067	28
3.95433	28
3.95800	28
3.96167	27
3.96533	27
3.96900	27
3.97267	27
3.97633	27
3.98000	27
3.98367	27
3.98733	27
3.99100	27
3.99467	27
3.99833	27

[Chromatogram (Ch3)]
Interval(msec)	220
# of Points	1091
Start Time(min)	0.002
End Time(min)	3.998
R.Time (min)	Intensity
0.00167	1
0.00533	3
0.00900	5
0.01267	5
0.01633	3
0.02000	1
0.02367	1
0.02733	-0
0.03100	-1
0.03467	-4
0.03833	-3
0.04200	-2
0.04567	-1
0.04933	1
0.05300	3
0.05667	4
0.06033	4
0.06400	5
0.06767	5
0.07133	5
0.07500	4
0.07867	2
0.08233	3
0.08600	3
0.08967	4
0.09333	4
0.09700	4
0.10067	7
0.10433	9
0.10800	12
0.11167	14
0.11533	16
0.11900	13
0.12267	9
0.12633	6
0.13000	6
0.13367	6
0.13733	4
0.14100	5
0.14467	9
0.14833	9
0.15200	9
0.15567	9
0.15933	9
0.16300	9
0.16667	9
0.17033	7
0.17400	7
0.17767	9
0.18133	10
0.18500	11
0.18867	10
0.19233	11
0.19600	12
0.19967	11
0.20333	11
0.20700	12
0.21067	13
0.21433	15
0.21800	17
0.22167	19
0.22533	20
0.22900	20
0.23267	18
0.23633	16
0.24000	14
0.24367	11
0.24733	8
0.25100	8
0.25467	9
0.25833	10
0.26200	11
0.26567	11
0.26933	11
0.27300	10
0.27667	8
0.28033	8
0.28400	10
0.28767	14
0.29133	16
0.29500	16
0.29867	15
0.30233	16
0.30600	18
0.30967	18
0.31333	17
0.31700	15
0.32067	13
0.32433	13
0.32800	11
0.33167	14
0.33533	16
0.33900	17
0.34267	19
0.34633	22
0.35000	24
0.35367	26
0.35733	27
0.36100	27
0.36467	24
0.36833	25
0.37200	26
0.37567	26
0.37933	26
0.38300	24
0.38667	26
0.39033	24
0.39400	22
0.39767	19
0.40133	18
0.40500	18
0.40867	18
0.41233	17
0.41600	18
0.41967	21
0.42333	24
0.42700	25
0.43067	26
0.43433	26
0.43800	23
0.44167	20
0.44533	22
0.44900	24
0.45267	26
0.45633	26
0.46000	24
0.46367	24
0.46733	24
0.47100	23
0.47467	24
0.47833	26
0.48200	27
0.48567	28
0.48933	28
0.49300	28
0.49667	29
0.50033	30
0.50400	32
0.50767	32
0.51133	30
0.51500	30
0.51867	30
0.52233	30
0.52600	29
0.52967	28
0.53333	26
0.53700	27
0.54067	30
0.54433	32
0.54800	36
0.55167	36
0.55533	35
0.55900	34
0.56267	34
0.56633	35
0.57000	35
0.57367	36
0.57733	37
0.58100	37
0.58467	35
0.58833	32
0.59200	32
0.59567	33
0.59933	34
0.60300	37
0.60667	38
0.61033	37
0.61400	32
0.61767	31
0.62133	30
0.62500	30
0.62867	28
0.63233	30
0.63600	31
0.63967	33
0.64333	34
0.64700	36
0.65067	36
0.65433	38
0.65800	37
0.66167	38
0.66533	38
0.66900	38
0.67267	39
0.67633	41
0.68000	43
0.68367	42
0.68733	41
0.69100	41
0.69467	41
0.69833	40
0.70200	40
0.70567	41
0.70933	41
0.71300	42
0.71667	43
0.72033	43
0.72400	44
0.72767	45
0.73133	45
0.73500	46
0.73867	49
0.74233	50
0.74600	50
0.74967	49
0.75333	46
0.75700	43
0.76067	43
0.76433	41
0.76800	40
0.77167	39
0.77533	40
0.77900	38
0.78267	38
0.78633	40
0.79000	41
0.79367	42
0.79733	42
0.80100	43
0.80467	43
0.80833	44
0.81200	45
0.81567	48
0.81933	51
0.82300	51
0.82667	49
0.83033	48
0.83400	48
0.83767	47
0.84133	46
0.84500	50
0.84867	56
0.85233	57
0.85600	55
0.85967	55
0.86333	55
0.86700	54
0.87067	55
0.87433	57
0.87800	56
0.88167	57
0.88533	57
0.88900	57
0.89267	58
0.89633	60
0.90000	61
0.90367	63
0.90733	61
0.91100	60
0.91467	60
0.91833	59
0.92200	58
0.92567	56
0.92933	56
0.93300	57
0.93667	56
0.94033	57
0.94400	56
0.94767	56
0.95133	59
0.95500	60
0.95867	58
0.96233	57
0.96600	57
0.96967	59
0.97333	62
0.97700	64
0.98067	67
0.98433	69
0.98800	71
0.99167	70
0.99533	68
0.99900	68
1.00267	68
1.00633	65
1.01000	64
1.01367	64
1.01733	65
1.02100	64
1.02467	63
1.02833	62
1.03200	61
1.03567	61
1.03933	64
1.04300	65
1.04667	63
1.05033	63
1.05400	62
1.05767	63
1.06133	64
1.06500	64
1.06867	65
1.07233	68
1.07600	69
1.07967	68
1.08333	66
1.08700	65
1.09067	65
1.09433	67
1.09800	69
1.10167	72
1.10533	72
1.10900	70
1.11267	70
1.11633	70
1.12000	69
1.12367	68
1.12733	68
1.13100	68
1.13467	68
1.13833	67
1.14200	67
1.14567	67
1.14933	67
1.15300	68
1.15667	68
1.16033	68
1.16400	72
1.16767	77
1.17133	79
1.17500	79
1.17867	76
1.18233	72
1.18600	72
1.18967	74
1.19333	75
1.19700	78
1.20067	80
1.20433	80
1.20800	78
1.21167	74
1.21533	73
1.21900	72
1.22267	72
1.22633	75
1.23000	75
1.23367	75
1.23733	73
1.24100	71
1.24467	71
1.24833	74
1.25200	76
1.25567	78
1.25933	78
1.26300	80
1.26667	80
1.27033	80
1.27400	81
1.27767	82
1.28133	82
1.28500	81
1.28867	82
1.29233	83
1.29600	83
1.29967	81
1.30333	80
1.30700	81
1.31067	83
1.31433	86
1.31800	86
1.32167	85
1.32533	85
1.32900	86
1.33267	86
1.33633	87
1.34000	88
1.34367	87
1.34733	84
1.35100	81
1.35467	80
1.35833	79
1.36200	78
1.36567	80
1.36933	82
1.37300	84
1.37667	85
1.38033	83
1.38400	80
1.38767	81
1.39133	81
1.39500	82
1.39867	85
1.40233	86
1.40600	85
1.40967	84
1.41333	84
1.41700	86
1.42067	87
1.42433	87
1.42800	83
1.43167	82
1.43533	80
1.43900	79
1.44267	79
1.44633	78
1.45000	78
1.45367	79
1.45733	80
1.46100	81
1.46467	80
1.46833	80
1.47200	81
1.47567	84
1.47933	83
1.48300	83
1.48667	84
1.49033	85
1.49400	87
1.49767	84
1.50133	81
1.50500	84
1.50867	87
1.51233	87
1.51600	88
1.51967	91
1.52333	90
1.52700	88
1.53067	87
1.53433	88
1.53800	87
1.54167	88
1.54533	89
1.54900	88
1.55267	86
1.55633	85
1.56000	85
1.56367	84
1.56733	83
1.57100	83
1.57467	84
1.57833	84
1.58200	85
1.58567	87
1.58933	87
1.59300	85
1.59667	83
1.60033	81
1.60400	82
1.60767	83
1.61133	86
1.61500	86
1.61867	85
1.62233	84
1.62600	82
1.62967	84
1.63333	86
1.63700	88
1.64067	92
1.64433	93
1.64800	93
1.65167	94
1.65533	95
1.65900	96
1.66267	97
1.66633	96
1.67000	96
1.67367	98
1.67733	101
1.68100	104
1.68467	107
1.68833	108
1.69200	109
1.69567	109
1.69933	111
1.70300	109
1.70667	108
1.71033	108
1.71400	108
1.71767	109
1.72133	108
1.72500	109
1.72867	110
1.73233	109
1.73600	110
1.73967	111
1.74333	111
1.74700	112
1.75067	113
1.75433	114
1.75800	114
1.76167	115
1.76533	117
1.76900	120
1.77267	122
1.77633	123
1.78000	122
1.78367	121
1.78733	124
1.79100	128
1.79467	131
1.79833	134
1.80200	134
1.80567	133
1.80933	132
1.81300	133
1.81667	135
1.82033	137
1.82400	138
1.82767	139
1.83133	140
1.83500	138
1.83867	137
1.84233	135
1.84600	135
1.84967	136
1.85333	135
1.85700	136
1.86067	136
1.86433	135
1.86800	136
1.87167	136
1.87533	135
1.87900	132
1.88267	131
1.88633	133
1.89000	134
1.89367	134
1.89733	134
1.90100	133
1.90467	132
1.90833	133
1.91200	134
1.91567	137
1.91933	141
1.92300	142
1.92667	143
1.93033	146
1.93400	147
1.93767	148
1.94133	149
1.94500	149
1.94867	149
1.95233	150
1.95600	151
1.95967	149
1.96333	149
1.96700	148
1.97067	146
1.97433	147
1.97800	149
1.98167	153
1.98533	154
1.98900	154
1.99267	152
1.99633	152
2.00000	152
2.00367	153
2.00733	154
2.01100	156
2.01467	157
2.01833	157
2.02200	158
2.02567	161
2.02933	164
2.03300	166
2.03667	169
2.04033	170
2.04400	171
2.04767	170
2.05133	168
2.05500	168
2.05867	170
2.06233	173
2.06600	175
2.06967	178
2.07333	180
2.07700	179
2.08067	179
2.08433	179
2.08800	181
2.09167	183
2.09533	184
2.09900	182
2.10267	179
2.10633	178
2.11000	178
2.11367	180
2.11733	182
2.12100	186
2.12467	189
2.12833	191
2.13200	194
2.13567	196
2.13933	196
2.14300	195
2.14667	193
2.15033	192
2.15400	193
2.15767	193
2.16133	194
2.16500	195
2.16867	199
2.17233	202
2.17600	201
2.17967	201
2.18333	201
2.18700	203
2.19067	206
2.19433	208
2.19800	208
2.20167	207
2.20533	206
2.20900	206
2.21267	206
2.21633	206
2.22000	207
2.22367	209
2.22733	213
2.23100	218
2.23467	219
2.23833	220
2.24200	220
2.24567	217
2.24933	216
2.25300	216
2.25667	218
2.26033	221
2.26400	221
2.26767	219
2.27133	215
2.27500	212
2.27867	211
2.28233	213
2.28600	214
2.28967	216
2.29333	216
2.29700	217
2.30067	217
2.30433	217
2.30800	217
2.31167	219
2.31533	222
2.31900	226
2.32267	230
2.32633	233
2.33000	234
2.33367	233
2.33733	232
2.34100	233
2.34467	234
2.34833	234
2.35200	234
2.35567	231
2.35933	232
2.36300	233
2.36667	233
2.37033	233
2.37400	235
2.37767	237
2.38133	238
2.38500	239
2.38867	239
2.39233	238
2.39600	236
2.39967	237
2.40333	238
2.40700	236
2.41067	236
2.41433	237
2.41800	240
2.42167	242
2.42533	241
2.42900	244
2.43267	246
2.43633	247
2.44000	245
2.44367	250
2.44733	269
2.45100	292
2.45467	311
2.45833	323
2.46200	326
2.46567	327
2.46933	327
2.47300	327
2.47667	326
2.48033	323
2.48400	320
2.48767	314
2.49133	306
2.49500	297
2.49867	293
2.50233	292
2.50600	289
2.50967	285
2.51333	283
2.51700	284
2.52067	285
2.52433	284
2.52800	282
2.53167	282
2.53533	278
2.53900	273
2.54267	267
2.54633	262
2.55000	257
2.55367	252
2.55733	248
2.56100	244
2.56467	244
2.56833	246
2.57200	243
2.57567	239
2.57933	234
2.58300	233
2.58667	230
2.59033	228
2.59400	228
2.59767	226
2.60133	221
2.60500	211
2.60867	191
2.61233	166
2.61600	134
2.61967	98
2.62333	65
2.62700	31
2.63067	-2
2.63433	-33
2.63800	-59
2.64167	-78
2.64533	-92
2.64900	-102
2.65267	-106
2.65633	-104
2.66000	-102
2.66367	-99
2.66733	-93
2.67100	-86
2.67467	-78
2.67833	-69
2.68200	-58
2.68567	-48
2.68933	-38
2.69300	-29
2.69667	-20
2.70033	-12
2.70400	-3
2.70767	4
2.71133	11
2.71500	18
2.71867	26
2.72233	32
2.72600	37
2.72967	44
2.73333	52
2.73700	59
2.74067	68
2.74433	75
2.74800	80
2.75167	84
2.75533	87
2.75900	91
2.76267	94
2.76633	95
2.77000	97
2.77367	101
2.77733	106
2.78100	111
2.78467	115
2.78833	117
2.79200	118
2.79567	117
2.79933	118
2.80300	121
2.80667	125
2.81033	125
2.81400	128
2.81767	131
2.82133	136
2.82500	144
2.82867	158
2.83233	189
2.83600	249
2.83967	354
2.84333	545
2.84700	855
2.85067	1294
2.85433	1843
2.85800	2465
2.86167	3127
2.86533	3794
2.86900	4421
2.87267	4959
2.87633	5367
2.88000	5627
2.88367	5737
2.88733	5708
2.89100	5560
2.89467	5319
2.89833	5019
2.90200	4686
2.90567	4341
2.90933	3995
2.91300	3663
2.91667	3354
2.92033	3070
2.92400	2809
2.92767	2577
2.93133	2374
2.93500	2194
2.93867	2037
2.94233	1899
2.94600	1778
2.94967	1671
2.95333	1580
2.95700	1497
2.96067	1425
2.96433	1362
2.96800	1310
2.97167	1268
2.97533	1232
2.97900	1198
2.98267	1169
2.98633	1143
2.99000	1124
2.99367	1106
2.99733	1088
3.00100	1075
3.00467	1060
3.00833	1048
3.01200	1038
3.01567	1028
3.01933	1019
3.02300	1013
3.02667	1008
3.03033	1005
3.03400	1003
3.03767	1002
3.04133	1000
3.04500	996
3.04867	992
3.05233	991
3.05600	989
3.05967	986
3.06333	982
3.06700	979
3.07067	975
3.07433	975
3.07800	977
3.08167	977
3.08533	975
3.08900	976
3.09267	979
3.09633	978
3.10000	977
3.10367	977
3.10733	978
3.11100	977
3.11467	973
3.11833	970
3.12200	967
3.12567	967
3.12933	966
3.13300	964
3.13667	962
3.14033	962
3.14400	963
3.14767	961
3.15133	959
3.15500	961
3.15867	960
3.16233	959
3.16600	959
3.16967	956
3.17333	955
3.17700	953
3.18067	950
3.18433	946
3.18800	942
3.19167	939
3.19533	936
3.19900	933
3.20267	929
3.20633	925
3.21000	923
3.21367	922
3.21733	921
3.22100	918
3.22467	913
3.22833	909
3.23200	907
3.23567	905
3.23933	902
3.24300	898
3.24667	896
3.25033	893
3.25400	888
3.25767	880
3.26133	874
3.26500	870
3.26867	867
3.27233	867
3.27600	863
3.27967	862
3.28333	860
3.28700	855
3.29067	849
3.29433	844
3.29800	840
3.30167	837
3.30533	834
3.30900	830
3.31267	826
3.31633	820
3.32000	815
3.32367	810
3.32733	804
3.33100	796
3.33467	790
3.33833	785
3.34200	780
3.34567	775
3.34933	771
3.35300	766
3.35667	761
3.36033	756
3.36400	754
3.36767	750
3.37133	745
3.37500	740
3.37867	737
3.38233	735
3.38600	731
3.38967	723
3.39333	714
3.39700	706
3.40067	698
3.40433	689
3.40800	682
3.41167	678
3.41533	675
3.41900	673
3.42267	670
3.42633	665
3.43000	660
3.43367	655
3.43733	649
3.44100	644
3.44467	639
3.44833	636
3.45200	634
3.45567	630
3.45933	625
3.46300	621
3.46667	616
3.47033	612
3.47400	609
3.47767	606
3.48133	600
3.48500	597
3.48867	594
3.49233	591
3.49600	584
3.49967	578
3.50333	577
3.50700	577
3.51067	575
3.51433	570
3.51800	563
3.52167	554
3.52533	545
3.52900	539
3.53267	534
3.53633	532
3.54000	529
3.54367	525
3.54733	520
3.55100	515
3.55467	510
3.55833	506
3.56200	502
3.56567	496
3.56933	489
3.57300	485
3.57667	483
3.58033	479
3.58400	476
3.58767	472
3.59133	465
3.59500	460
3.59867	458
3.60233	456
3.60600	454
3.60967	450
3.61333	444
3.61700	438
3.62067	436
3.62433	433
3.62800	431
3.63167	430
3.63533	427
3.63900	425
3.64267	420
3.64633	413
3.65000	407
3.65367	403
3.65733	403
3.66100	402
3.66467	397
3.66833	395
3.67200	392
3.67567	390
3.67933	388
3.68300	385
3.68667	383
3.69033	380
3.69400	377
3.69767	375
3.70133	375
3.70500	372
3.70867	370
3.71233	370
3.71600	369
3.71967	364
3.72333	357
3.72700	355
3.73067	353
3.73433	351
3.73800	350
3.74167	351
3.74533	350
3.74900	347
3.75267	344
3.75633	344
3.76000	343
3.76367	338
3.76733	334
3.77100	330
3.77467	329
3.77833	329
3.78200	326
3.78567	321
3.78933	318
3.79300	316
3.79667	315
3.80033	314
3.80400	313
3.80767	313
3.81133	313
3.81500	312
3.81867	310
3.82233	308
3.82600	306
3.82967	303
3.83333	301
3.83700	302
3.84067	302
3.84433	303
3.84800	304
3.85167	304
3.85533	305
3.85900	305
3.86267	303
3.86633	302
3.87000	304
3.87367	303
3.87733	302
3.88100	304
3.88467	303
3.88833	300
3.89200	300
3.89567	300
3.89933	300
3.90300	302
3.90667	304
3.91033	303
3.91400	302
3.91767	302
3.92133	302
3.92500	301
3.92867	302
3.93233	304
3.93600	305
3.93967	303
3.94333	301
3.94700	300
3.95067	299
3.95433	297
3.95800	296
3.96167	295
3.96533	294
3.96900	293
3.97267	295
3.97633	298
3.98000	298
3.98367	299
3.98733	299
3.99100	298
3.99467	298
3.99833	299

[Status Trace (Column Oven Temperature)]
Interval(msec)	1000
# of Points	240
Start Time(min)	0.012
End Time(min)	3.995
Intensity Units	
Intensity Multiplier	1
R.Time (min)	Intensity
0.01162	35.03
0.02828	35.04
0.04495	35.04
0.06162	35.04
0.07828	35.03
0.09495	35.02
0.11162	35.01
0.12828	35.01
0.14495	35.00
0.16162	35.00
0.17828	35.00
0.19495	34.98
0.21162	34.97
0.22828	34.96
0.24495	34.98
0.26162	34.99
0.27828	35.00
0.29495	35.00
0.31162	35.00
0.32828	34.98
0.34495	34.98
0.36162	34.98
0.37828	34.99
0.39495	34.99
0.41162	34.99
0.42828	34.98
0.44495	34.97
0.46162	34.97
0.47828	34.98
0.49495	34.98
0.51162	34.99
0.52828	35.01
0.54495	35.02
0.56162	35.03
0.57828	35.04
0.59495	35.05
0.61162	35.04
0.62828	35.03
0.64495	35.02
0.66162	35.01
0.67828	34.99
0.69495	34.98
0.71162	34.97
0.72828	34.96
0.74495	34.97
0.76162	34.96
0.77828	34.97
0.79495	34.97
0.81162	34.96
0.82828	34.97
0.84495	34.97
0.86162	34.98
0.87828	35.00
0.89495	35.01
0.91162	35.02
0.92828	35.02
0.94495	35.02
0.96162	35.01
0.97828	35.00
0.99495	34.99
1.01162	34.98
1.02828	34.97
1.04495	34.97
1.06162	34.96
1.07828	34.98
1.09495	35.00
1.11162	35.01
1.12828	35.02
1.14495	35.03
1.16162	35.02
1.17828	35.02
1.19495	35.02
1.21162	35.01
1.22828	35.00
1.24495	34.99
1.26162	34.99
1.27828	34.98
1.29495	34.99
1.31162	34.99
1.32828	34.99
1.34495	35.00
1.36162	35.02
1.37828	35.03
1.39495	35.04
1.41162	35.04
1.42828	35.03
1.44495	35.02
1.46162	35.01
1.47828	35.01
1.49495	35.00
1.51162	34.99
1.52828	35.00
1.54495	34.99
1.56162	34.98
1.57828	34.99
1.59495	35.01
1.61162	35.08
1.62828	35.22
1.64495	35.41
1.66162	35.68
1.67828	36.02
1.69495	36.39
1.71162	36.74
1.72828	37.08
1.74495	37.40
1.76162	37.73
1.77828	38.07
1.79495	38.40
1.81162	38.74
1.82828	39.06
1.84495	39.36
1.86162	39.71
1.87828	40.03
1.89495	40.37
1.91162	40.69
1.92828	41.02
1.94495	41.35
1.96162	41.67
1.97828	42.01
1.99495	42.32
2.01162	42.64
2.02828	42.98
2.04495	43.32
2.06162	43.62
2.07828	43.93
2.09495	44.27
2.11162	44.60
2.12828	44.93
2.14495	45.27
2.16162	45.60
2.17828	45.93
2.19495	46.26
2.21162	46.58
2.22828	46.91
2.24495	47.23
2.26162	47.58
2.27828	47.91
2.29495	48.23
2.31162	48.57
2.32828	48.89
2.34495	49.23
2.36162	49.48
2.37828	49.61
2.39495	49.62
2.41162	49.61
2.42828	49.62
2.44495	49.63
2.46162	49.64
2.47828	49.65
2.49495	49.68
2.51162	49.68
2.52828	49.71
2.54495	49.72
2.56162	49.74
2.57828	49.76
2.59495	49.77
2.61162	49.80
2.62828	49.80
2.64495	49.83
2.66162	49.84
2.67828	49.84
2.69495	49.85
2.71162	49.86
2.72828	49.88
2.74495	49.87
2.76162	49.86
2.77828	49.85
2.79495	49.85
2.81162	49.90
2.82828	49.92
2.84495	49.92
2.86162	49.93
2.87828	49.94
2.89495	49.93
2.91162	49.94
2.92828	49.94
2.94495	49.93
2.96162	49.94
2.97828	49.96
2.99495	49.97
3.01162	49.98
3.02828	49.99
3.04495	49.99
3.06162	50.00
3.07828	50.00
3.09495	50.01
3.11162	50.03
3.12828	50.04
3.14495	50.06
3.16162	50.08
3.17828	50.08
3.19495	50.08
3.21162	50.08
3.22828	50.08
3.24495	50.08
3.26162	50.09
3.27828	50.09
3.29495	50.09
3.31162	50.09
3.32828	50.10
3.34495	50.10
3.36162	50.11
3.37828	50.10
3.39495	50.10
3.41162	50.08
3.42828	50.07
3.44495	50.06
3.46162	50.06
3.47828	50.05
3.49495	50.04
3.51162	50.04
3.52828	50.05
3.54495	50.06
3.56162	50.07
3.57828	50.07
3.59495	50.07
3.61162	50.07
3.62828	50.06
3.64495	50.04
3.66162	50.04
3.67828	50.04
3.69495	50.03
3.71162	50.03
3.72828	50.04
3.74495	50.05
3.76162	50.06
3.77828	50.07
3.79495	50.07
3.81162	50.08
3.82828	50.08
3.84495	50.08
3.86162	50.08
3.87828	50.08
3.89495	50.07
3.91162	50.07
3.92828	50.07
3.94495	50.06
3.96162	50.06
3.97828	50.05
3.99495	50.05

[Status Trace (Injection Unit Temperature)]
Interval(msec)	1000
# of Points	240
Start Time(min)	0.012
End Time(min)	3.995
Intensity Units	
Intensity Multiplier	1
R.Time (min)	Intensity
0.01162	99.98
0.02828	99.98
0.04495	99.98
0.06162	99.98
0.07828	99.98
0.09495	99.98
0.11162	99.98
0.12828	99.98
0.14495	99.98
0.16162	99.98
0.17828	99.99
0.19495	99.98
0.21162	99.98
0.22828	99.98
0.24495	99.99
0.26162	99.98
0.27828	99.98
0.29495	99.99
0.31162	99.98
0.32828	99.98
0.34495	99.98
0.36162	99.98
0.37828	99.99
0.39495	99.98
0.41162	99.98
0.42828	99.98
0.44495	99.98
0.46162	99.99
0.47828	99.99
0.49495	99.98
0.51162	99.99
0.52828	99.99
0.54495	99.99
0.56162	99.98
0.57828	99.98
0.59495	99.98
0.61162	99.98
0.62828	99.99
0.64495	99.99
0.66162	99.99
0.67828	99.98
0.69495	99.98
0.71162	99.98
0.72828	99.98
0.74495	99.98
0.76162	99.98
0.77828	99.98
0.79495	99.98
0.81162	99.98
0.82828	99.98
0.84495	99.99
0.86162	99.98
0.87828	99.98
0.89495	99.98
0.91162	99.98
0.92828	99.99
0.94495	99.98
0.96162	99.98
0.97828	99.99
0.99495	99.98
1.01162	99.98
1.02828	99.98
1.04495	99.98
1.06162	99.99
1.07828	99.98
1.09495	99.98
1.11162	99.98
1.12828	99.99
1.14495	99.99
1.16162	99.98
1.17828	99.98
1.19495	99.98
1.21162	99.98
1.22828	99.98
1.24495	99.98
1.26162	99.98
1.27828	99.98
1.29495	99.98
1.31162	99.98
1.32828	99.98
1.34495	99.98
1.36162	99.98
1.37828	99.98
1.39495	99.98
1.41162	99.98
1.42828	99.98
1.44495	99.98
1.46162	99.98
1.47828	99.98
1.49495	99.98
1.51162	99.98
1.52828	99.98
1.54495	99.98
1.56162	99.98
1.57828	99.98
1.59495	99.98
1.61162	99.98
1.62828	99.98
1.64495	99.98
1.66162	99.98
1.67828	99.98
1.69495	99.98
1.71162	99.98
1.72828	99.98
1.74495	99.98
1.76162	99.99
1.77828	99.98
1.79495	99.98
1.81162	99.98
1.82828	99.98
1.84495	99.98
1.86162	99.98
1.87828	99.98
1.89495	99.98
1.91162	99.98
1.92828	99.98
1.94495	99.98
1.96162	99.98
1.97828	99.98
1.99495	99.97
2.01162	99.97
2.02828	99.98
2.04495	99.98
2.06162	99.98
2.07828	99.97
2.09495	99.98
2.11162	99.97
2.12828	99.98
2.14495	99.98
2.16162	99.98
2.17828	99.97
2.19495	99.97
2.21162	99.97
2.22828	99.97
2.24495	99.97
2.26162	99.97
2.27828	99.97
2.29495	99.97
2.31162	99.98
2.32828	99.97
2.34495	99.97
2.36162	99.97
2.37828	99.98
2.39495	99.97
2.41162	99.98
2.42828	99.98
2.44495	99.97
2.46162	99.97
2.47828	99.97
2.49495	99.98
2.51162	99.98
2.52828	99.98
2.54495	99.97
2.56162	99.97
2.57828	99.98
2.59495	99.98
2.61162	99.97
2.62828	99.98
2.64495	99.98
2.66162	99.98
2.67828	99.99
2.69495	99.98
2.71162	99.99
2.72828	99.99
2.74495	99.99
2.76162	99.99
2.77828	99.99
2.79495	99.99
2.81162	99.99
2.82828	99.99
2.84495	100.00
2.86162	100.00
2.87828	100.00
2.89495	100.00
2.91162	100.00
2.92828	100.01
2.94495	100.00
2.96162	100.00
2.97828	100.01
2.99495	100.01
3.01162	100.01
3.02828	100.01
3.04495	100.01
3.06162	100.01
3.07828	100.01
3.09495	100.02
3.11162	100.02
3.12828	100.02
3.14495	100.02
3.16162	100.02
3.17828	100.02
3.19495	100.02
3.21162	100.02
3.22828	100.02
3.24495	100.02
3.26162	100.02
3.27828	100.02
3.29495	100.03
3.31162	100.03
3.32828	100.03
3.34495	100.03
3.36162	100.03
3.37828	100.03
3.39495	100.03
3.41162	100.03
3.42828	100.03
3.44495	100.03
3.46162	100.03
3.47828	100.03
3.49495	100.04
3.51162	100.03
3.52828	100.04
3.54495	100.04
3.56162	100.03
3.57828	100.03
3.59495	100.04
3.61162	100.03
3.62828	100.04
3.64495	100.04
3.66162	100.04
3.67828	100.04
3.69495	100.04
3.71162	100.04
3.72828	100.04
3.74495	100.03
3.76162	100.04
3.77828	100.04
3.79495	100.04
3.81162	100.04
3.82828	100.04
3.84495	100.04
3.86162	100.05
3.87828	100.04
3.89495	100.04
3.91162	100.04
3.92828	100.04
3.94495	100.05
3.96162	100.04
3.97828	100.05
3.99495	100.05

[Status Trace (Carrier Gas Pressure)]
Interval(msec)	1000
# of Points	240
Start Time(min)	0.012
End Time(min)	3.995
Intensity Units	
Intensity Multiplier	1
R.Time (min)	Intensity
0.01162	58.00
0.02828	54.96
0.04495	57.61
0.06162	59.58
0.07828	59.05
0.09495	58.00
0.11162	57.99
0.12828	58.01
0.14495	58.01
0.16162	58.00
0.17828	58.00
0.19495	58.00
0.21162	58.00
0.22828	58.00
0.24495	58.00
0.26162	58.00
0.27828	58.00
0.29495	58.00
0.31162	58.00
0.32828	58.00
0.34495	58.00
0.36162	58.00
0.37828	58.00
0.39495	58.00
0.41162	58.00
0.42828	58.00
0.44495	58.00
0.46162	58.00
0.47828	58.00
0.49495	58.00
0.51162	58.00
0.52828	58.00
0.54495	58.00
0.56162	58.00
0.57828	58.00
0.59495	58.00
0.61162	58.00
0.62828	58.00
0.64495	58.00
0.66162	58.00
0.67828	58.00
0.69495	58.00
0.71162	58.00
0.72828	58.00
0.74495	58.00
0.76162	58.00
0.77828	58.00
0.79495	58.00
0.81162	58.00
0.82828	58.00
0.84495	58.00
0.86162	58.00
0.87828	58.00
0.89495	58.00
0.91162	58.00
0.92828	58.00
0.94495	58.00
0.96162	58.00
0.97828	58.00
0.99495	58.00
1.01162	58.00
1.02828	58.00
1.04495	58.00
1.06162	58.00
1.07828	58.00
1.09495	58.00
1.11162	58.00
1.12828	58.00
1.14495	58.00
1.16162	58.00
1.17828	58.00
1.19495	58.00
1.21162	58.00
1.22828	58.00
1.24495	58.00
1.26162	58.00
1.27828	58.00
1.29495	58.00
1.31162	58.00
1.32828	58.00
1.34495	58.00
1.36162	58.00
1.37828	58.00
1.39495	58.00
1.41162	58.00
1.42828	58.00
1.44495	58.00
1.46162	58.00
1.47828	58.00
1.49495	58.00
1.51162	58.00
1.52828	58.00
1.54495	58.00
1.56162	58.00
1.57828	58.00
1.59495	58.00
1.61162	58.00
1.62828	58.00
1.64495	58.01
1.66162	58.01
1.67828	58.01
1.69495	58.00
1.71162	58.00
1.72828	58.00
1.74495	58.00
1.76162	58.00
1.77828	58.00
1.79495	58.00
1.81162	58.00
1.82828	58.00
1.84495	58.00
1.86162	58.00
1.87828	58.00
1.89495	58.00
1.91162	58.00
1.92828	58.00
1.94495	58.00
1.96162	58.00
1.97828	58.00
1.99495	58.00
2.01162	58.00
2.02828	58.00
2.04495	58.00
2.06162	58.00
2.07828	58.00
2.09495	58.00
2.11162	58.00
2.12828	58.00
2.14495	58.00
2.16162	58.00
2.17828	58.00
2.19495	58.00
2.21162	58.00
2.22828	58.00
2.24495	58.00
2.26162	58.00
2.27828	58.00
2.29495	58.00
2.31162	58.00
2.32828	58.00
2.34495	58.00
2.36162	58.00
2.37828	57.99
2.39495	57.99
2.41162	58.00
2.42828	58.00
2.44495	58.00
2.46162	58.00
2.47828	58.00
2.49495	58.00
2.51162	57.99
2.52828	57.99
2.54495	58.00
2.56162	58.00
2.57828	58.00
2.59495	58.00
2.61162	58.00
2.62828	58.00
2.64495	58.00
2.66162	58.00
2.67828	58.00
2.69495	58.00
2.71162	58.00
2.72828	58.00
2.74495	58.00
2.76162	58.00
2.77828	58.00
2.79495	58.00
2.81162	58.00
2.82828	58.00
2.84495	58.00
2.86162	58.00
2.87828	58.00
2.89495	58.00
2.91162	58.00
2.92828	58.00
2.94495	58.00
2.96162	58.00
2.97828	58.00
2.99495	58.00
3.01162	58.00
3.02828	58.00
3.04495	58.00
3.06162	58.00
3.07828	58.00
3.09495	58.00
3.11162	58.00
3.12828	58.00
3.14495	58.00
3.16162	58.00
3.17828	58.00
3.19495	58.00
3.21162	58.00
3.22828	58.00
3.24495	58.00
3.26162	58.00
3.27828	58.00
3.29495	58.00
3.31162	58.00
3.32828	58.00
3.34495	58.00
3.36162	58.00
3.37828	58.00
3.39495	58.00
3.41162	58.00
3.42828	58.00
3.44495	58.00
3.46162	58.00
3.47828	58.00
3.49495	58.00
3.51162	58.00
3.52828	58.00
3.54495	58.00
3.56162	58.00
3.57828	58.00
3.59495	58.00
3.61162	58.00
3.62828	58.00
3.64495	58.00
3.66162	58.00
3.67828	58.00
3.69495	58.00
3.71162	58.00
3.72828	58.00
3.74495	58.00
3.76162	58.00
3.77828	58.00
3.79495	58.00
3.81162	58.00
3.82828	58.00
3.84495	58.00
3.86162	58.00
3.87828	58.00
3.89495	58.00
3.91162	58.00
3.92828	58.00
3.94495	58.00
3.96162	58.00
3.97828	58.00
3.99495	58.00

[Status Trace (Carrier Gas Flow)]
Interval(msec)	1000
# of Points	240
Start Time(min)	0.012
End Time(min)	3.995
Intensity Units	
Intensity Multiplier	1
R.Time (min)	Intensity
0.01162	34.52
0.02828	34.53
0.04495	34.54
0.06162	34.54
0.07828	34.50
0.09495	34.52
0.11162	34.52
0.12828	34.52
0.14495	34.52
0.16162	34.52
0.17828	34.52
0.19495	34.52
0.21162	34.52
0.22828	34.52
0.24495	34.52
0.26162	34.52
0.27828	34.52
0.29495	34.52
0.31162	34.52
0.32828	34.52
0.34495	34.52
0.36162	34.52
0.37828	34.52
0.39495	34.52
0.41162	34.52
0.42828	34.52
0.44495	34.52
0.46162	34.52
0.47828	34.52
0.49495	34.52
0.51162	34.52
0.52828	34.52
0.54495	34.52
0.56162	34.52
0.57828	34.52
0.59495	34.52
0.61162	34.52
0.62828	34.52
0.64495	34.52
0.66162	34.52
0.67828	34.52
0.69495	34.52
0.71162	34.52
0.72828	34.52
0.74495	34.52
0.76162	34.52
0.77828	34.52
0.79495	34.52
0.81162	34.52
0.82828	34.52
0.84495	34.52
0.86162	34.52
0.87828	34.52
0.89495	34.52
0.91162	34.52
0.92828	34.52
0.94495	34.52
0.96162	34.52
0.97828	34.52
0.99495	34.52
1.01162	34.52
1.02828	34.52
1.04495	34.52
1.06162	34.52
1.07828	34.52
1.09495	34.52
1.11162	34.52
1.12828	34.52
1.14495	34.52
1.16162	34.52
1.17828	34.52
1.19495	34.52
1.21162	34.52
1.22828	34.52
1.24495	34.52
1.26162	34.52
1.27828	34.52
1.29495	34.52
1.31162	34.52
1.32828	34.52
1.34495	34.52
1.36162	34.52
1.37828	34.50
1.39495	34.52
1.41162	34.52
1.42828	34.52
1.44495	34.52
1.46162	34.52
1.47828	34.52
1.49495	34.52
1.51162	34.52
1.52828	34.52
1.54495	34.52
1.56162	34.52
1.57828	34.52
1.59495	34.52
1.61162	34.52
1.62828	34.52
1.64495	34.52
1.66162	34.52
1.67828	34.52
1.69495	34.52
1.71162	34.52
1.72828	34.52
1.74495	34.52
1.76162	34.52
1.77828	34.52
1.79495	34.52
1.81162	34.52
1.82828	34.52
1.84495	34.52
1.86162	34.52
1.87828	34.52
1.89495	34.52
1.91162	34.52
1.92828	34.52
1.94495	34.52
1.96162	34.52
1.97828	34.52
1.99495	34.52
2.01162	34.52
2.02828	34.52
2.04495	34.52
2.06162	34.52
2.07828	34.52
2.09495	34.52
2.11162	34.52
2.12828	34.52
2.14495	34.52
2.16162	34.52
2.17828	34.52
2.19495	34.52
2.21162	34.52
2.22828	34.52
2.24495	34.52
2.26162	34.52
2.27828	34.52
2.29495	34.52
2.31162	34.52
2.32828	34.52
2.34495	34.52
2.36162	34.52
2.37828	34.52
2.39495	34.52
2.41162	34.52
2.42828	34.52
2.44495	34.52
2.46162	34.52
2.47828	34.52
2.49495	34.52
2.51162	34.51
2.52828	34.52
2.54495	34.52
2.56162	34.51
2.57828	34.52
2.59495	34.52
2.61162	34.52
2.62828	34.52
2.64495	34.52
2.66162	34.52
2.67828	34.52
2.69495	34.52
2.71162	34.52
2.72828	34.52
2.74495	34.52
2.76162	34.52
2.77828	34.52
2.79495	34.52
2.81162	34.52
2.82828	34.52
2.84495	34.52
2.86162	34.52
2.87828	34.52
2.89495	34.52
2.91162	34.52
2.92828	34.52
2.94495	34.52
2.96162	34.52
2.97828	34.52
2.99495	34.52
3.01162	34.52
3.02828	34.52
3.04495	34.52
3.06162	34.52
3.07828	34.52
3.09495	34.52
3.11162	34.52
3.12828	34.52
3.14495	34.52
3.16162	34.52
3.17828	34.52
3.19495	34.52
3.21162	34.52
3.22828	34.52
3.24495	34.52
3.26162	34.52
3.27828	34.52
3.29495	34.52
3.31162	34.52
3.32828	34.52
3.34495	34.52
3.36162	34.53
3.37828	34.51
3.39495	34.52
3.41162	34.52
3.42828	34.52
3.44495	34.52
3.46162	34.52
3.47828	34.52
3.49495	34.52
3.51162	34.52
3.52828	34.52
3.54495	34.52
3.56162	34.52
3.57828	34.52
3.59495	34.52
3.61162	34.52
3.62828	34.52
3.64495	34.52
3.66162	34.52
3.67828	34.52
3.69495	34.52
3.71162	34.52
3.72828	34.52
3.74495	34.52
3.76162	34.52
3.77828	34.52
3.79495	34.52
3.81162	34.52
3.82828	34.52
3.84495	34.52
3.86162	34.52
3.87828	34.52
3.89495	34.52
3.91162	34.52
3.92828	34.52
3.94495	34.52
3.96162	34.52
3.97828	34.52
3.99495	34.52

[Status Trace (Column Flow)]
Interval(msec)	1000
# of Points	240
Start Time(min)	0.012
End Time(min)	3.995
Intensity Units	
Intensity Multiplier	1
R.Time (min)	Intensity
0.01162	5.50
0.02828	5.15
0.04495	5.46
0.06162	5.69
0.07828	5.63
0.09495	5.50
0.11162	5.50
0.12828	5.51
0.14495	5.51
0.16162	5.51
0.17828	5.51
0.19495	5.51
0.21162	5.51
0.22828	5.51
0.24495	5.51
0.26162	5.51
0.27828	5.51
0.29495	5.51
0.31162	5.51
0.32828	5.51
0.34495	5.51
0.36162	5.51
0.37828	5.51
0.39495	5.51
0.41162	5.51
0.42828	5.51
0.44495	5.51
0.46162	5.51
0.47828	5.51
0.49495	5.51
0.51162	5.51
0.52828	5.51
0.54495	5.51
0.56162	5.50
0.57828	5.50
0.59495	5.50
0.61162	5.50
0.62828	5.50
0.64495	5.51
0.66162	5.51
0.67828	5.51
0.69495	5.51
0.71162	5.51
0.72828	5.51
0.74495	5.51
0.76162	5.51
0.77828	5.51
0.79495	5.51
0.81162	5.51
0.82828	5.51
0.84495	5.51
0.86162	5.51
0.87828	5.51
0.89495	5.51
0.91162	5.50
0.92828	5.50
0.94495	5.50
0.96162	5.51
0.97828	5.51
0.99495	5.51
1.01162	5.51
1.02828	5.51
1.04495	5.51
1.06162	5.51
1.07828	5.51
1.09495	5.51
1.11162	5.51
1.12828	5.51
1.14495	5.50
1.16162	5.50
1.17828	5.51
1.19495	5.51
1.21162	5.51
1.22828	5.51
1.24495	5.51
1.26162	5.51
1.27828	5.51
1.29495	5.51
1.31162	5.51
1.32828	5.51
1.34495	5.51
1.36162	5.50
1.37828	5.50
1.39495	5.50
1.41162	5.50
1.42828	5.50
1.44495	5.50
1.46162	5.51
1.47828	5.51
1.49495	5.51
1.51162	5.51
1.52828	5.51
1.54495	5.51
1.56162	5.51
1.57828	5.51
1.59495	5.51
1.61162	5.50
1.62828	5.50
1.64495	5.49
1.66162	5.49
1.67828	5.47
1.69495	5.46
1.71162	5.45
1.72828	5.44
1.74495	5.43
1.76162	5.42
1.77828	5.41
1.79495	5.40
1.81162	5.39
1.82828	5.38
1.84495	5.37
1.86162	5.36
1.87828	5.35
1.89495	5.34
1.91162	5.33
1.92828	5.32
1.94495	5.31
1.96162	5.30
1.97828	5.29
1.99495	5.28
2.01162	5.27
2.02828	5.26
2.04495	5.25
2.06162	5.24
2.07828	5.24
2.09495	5.23
2.11162	5.22
2.12828	5.21
2.14495	5.20
2.16162	5.19
2.17828	5.18
2.19495	5.17
2.21162	5.16
2.22828	5.15
2.24495	5.14
2.26162	5.13
2.27828	5.12
2.29495	5.11
2.31162	5.10
2.32828	5.09
2.34495	5.08
2.36162	5.08
2.37828	5.07
2.39495	5.07
2.41162	5.07
2.42828	5.07
2.44495	5.07
2.46162	5.07
2.47828	5.07
2.49495	5.07
2.51162	5.07
2.52828	5.07
2.54495	5.07
2.56162	5.07
2.57828	5.07
2.59495	5.07
2.61162	5.07
2.62828	5.07
2.64495	5.07
2.66162	5.07
2.67828	5.07
2.69495	5.07
2.71162	5.07
2.72828	5.07
2.74495	5.07
2.76162	5.07
2.77828	5.07
2.79495	5.07
2.81162	5.07
2.82828	5.07
2.84495	5.07
2.86162	5.07
2.87828	5.07
2.89495	5.07
2.91162	5.07
2.92828	5.07
2.94495	5.07
2.96162	5.07
2.97828	5.06
2.99495	5.06
3.01162	5.06
3.02828	5.06
3.04495	5.06
3.06162	5.06
3.07828	5.06
3.09495	5.06
3.11162	5.06
3.12828	5.06
3.14495	5.06
3.16162	5.06
3.17828	5.06
3.19495	5.06
3.21162	5.06
3.22828	5.06
3.24495	5.06
3.26162	5.06
3.27828	5.06
3.29495	5.06
3.31162	5.06
3.32828	5.06
3.34495	5.06
3.36162	5.06
3.37828	5.06
3.39495	5.06
3.41162	5.06
3.42828	5.06
3.44495	5.06
3.46162	5.06
3.47828	5.06
3.49495	5.06
3.51162	5.06
3.52828	5.06
3.54495	5.06
3.56162	5.06
3.57828	5.06
3.59495	5.06
3.61162	5.06
3.62828	5.06
3.64495	5.06
3.66162	5.06
3.67828	5.06
3.69495	5.06
3.71162	5.06
3.72828	5.06
3.74495	5.06
3.76162	5.06
3.77828	5.06
3.79495	5.06
3.81162	5.06
3.82828	5.06
3.84495	5.06
3.86162	5.06
3.87828	5.06
3.89495	5.06
3.91162	5.06
3.92828	5.06
3.94495	5.06
3.96162	5.06
3.97828	5.06
3.99495	5.06

[Status Trace (Linear Velocity)]
Interval(msec)	1000
# of Points	240
Start Time(min)	0.012
End Time(min)	3.995
Intensity Units	
Intensity Multiplier	1
R.Time (min)	Intensity
0.01162	39.01
0.02828	37.02
0.04495	38.76
0.06162	40.05
0.07828	39.70
0.09495	39.01
0.11162	39.00
0.12828	39.02
0.14495	39.02
0.16162	39.02
0.17828	39.02
0.19495	39.02
0.21162	39.02
0.22828	39.02
0.24495	39.02
0.26162	39.01
0.27828	39.01
0.29495	39.01
0.31162	39.01
0.32828	39.02
0.34495	39.02
0.36162	39.01
0.37828	39.01
0.39495	39.01
0.41162	39.01
0.42828	39.01
0.44495	39.02
0.46162	39.02
0.47828	39.02
0.49495	39.02
0.51162	39.01
0.52828	39.01
0.54495	39.01
0.56162	39.01
0.57828	39.01
0.59495	39.01
0.61162	39.01
0.62828	39.01
0.64495	39.01
0.66162	39.01
0.67828	39.01
0.69495	39.01
0.71162	39.02
0.72828	39.02
0.74495	39.02
0.76162	39.02
0.77828	39.02
0.79495	39.02
0.81162	39.02
0.82828	39.02
0.84495	39.02
0.86162	39.02
0.87828	39.01
0.89495	39.01
0.91162	39.01
0.92828	39.01
0.94495	39.01
0.96162	39.01
0.97828	39.01
0.99495	39.01
1.01162	39.01
1.02828	39.02
1.04495	39.02
1.06162	39.02
1.07828	39.02
1.09495	39.01
1.11162	39.01
1.12828	39.01
1.14495	39.01
1.16162	39.01
1.17828	39.01
1.19495	39.01
1.21162	39.01
1.22828	39.01
1.24495	39.01
1.26162	39.01
1.27828	39.01
1.29495	39.01
1.31162	39.01
1.32828	39.01
1.34495	39.01
1.36162	39.01
1.37828	39.01
1.39495	39.01
1.41162	39.01
1.42828	39.01
1.44495	39.01
1.46162	39.01
1.47828	39.01
1.49495	39.01
1.51162	39.01
1.52828	39.01
1.54495	39.01
1.56162	39.01
1.57828	39.01
1.59495	39.01
1.61162	39.01
1.62828	39.00
1.64495	38.98
1.66162	38.95
1.67828	38.92
1.69495	38.88
1.71162	38.85
1.72828	38.81
1.74495	38.78
1.76162	38.75
1.77828	38.72
1.79495	38.69
1.81162	38.66
1.82828	38.63
1.84495	38.60
1.86162	38.57
1.87828	38.54
1.89495	38.50
1.91162	38.47
1.92828	38.44
1.94495	38.41
1.96162	38.38
1.97828	38.35
1.99495	38.32
2.01162	38.29
2.02828	38.26
2.04495	38.23
2.06162	38.20
2.07828	38.17
2.09495	38.14
2.11162	38.11
2.12828	38.08
2.14495	38.05
2.16162	38.02
2.17828	37.99
2.19495	37.96
2.21162	37.93
2.22828	37.90
2.24495	37.88
2.26162	37.84
2.27828	37.81
2.29495	37.79
2.31162	37.76
2.32828	37.73
2.34495	37.70
2.36162	37.67
2.37828	37.66
2.39495	37.66
2.41162	37.66
2.42828	37.66
2.44495	37.66
2.46162	37.66
2.47828	37.66
2.49495	37.66
2.51162	37.65
2.52828	37.65
2.54495	37.65
2.56162	37.65
2.57828	37.65
2.59495	37.65
2.61162	37.65
2.62828	37.65
2.64495	37.64
2.66162	37.64
2.67828	37.64
2.69495	37.64
2.71162	37.64
2.72828	37.64
2.74495	37.64
2.76162	37.64
2.77828	37.64
2.79495	37.64
2.81162	37.64
2.82828	37.64
2.84495	37.63
2.86162	37.63
2.87828	37.63
2.89495	37.63
2.91162	37.63
2.92828	37.63
2.94495	37.63
2.96162	37.63
2.97828	37.63
2.99495	37.63
3.01162	37.63
3.02828	37.63
3.04495	37.63
3.06162	37.63
3.07828	37.63
3.09495	37.63
3.11162	37.63
3.12828	37.63
3.14495	37.62
3.16162	37.62
3.17828	37.62
3.19495	37.62
3.21162	37.62
3.22828	37.62
3.24495	37.62
3.26162	37.62
3.27828	37.62
3.29495	37.62
3.31162	37.62
3.32828	37.62
3.34495	37.62
3.36162	37.62
3.37828	37.62
3.39495	37.62
3.41162	37.62
3.42828	37.62
3.44495	37.62
3.46162	37.62
3.47828	37.62
3.49495	37.63
3.51162	37.63
3.52828	37.62
3.54495	37.62
3.56162	37.62
3.57828	37.62
3.59495	37.62
3.61162	37.62
3.62828	37.62
3.64495	37.62
3.66162	37.63
3.67828	37.63
3.69495	37.63
3.71162	37.63
3.72828	37.63
3.74495	37.62
3.76162	37.62
3.77828	37.62
3.79495	37.62
3.81162	37.62
3.82828	37.62
3.84495	37.62
3.86162	37.62
3.87828	37.62
3.89495	37.62
3.91162	37.62
3.92828	37.62
3.94495	37.62
3.96162	37.62
3.97828	37.62
3.99495	37.62

