[Header]
Application Name	LabSolutions
Version	5.110
Data File Name	C:\Users\User\Desktop\GC Analyses\Jack\UIC Prairie Sampling\9.2.22\220902_056.gcd
Output Date	10/28/2022
Output Time	1:23:55 PM

[File Information]
Type	Data File
Generated	10/26/2022 1:51:40 PM
Generated by	System Administrator
Modified	10/26/2022 1:56:22 PM
Modified by	System Administrator

[Sample Information]
Operator Name	System Administrator
Acquired	10/26/2022 1:52:20 PM
Sample Type	1:Standard
Level	1
Sample Name	220902_UICPrairie
Sample ID	220902_UICPrairie
ISTD Amount1	1
ISTD Amount2	1
ISTD Amount3	1
ISTD Amount4	1
ISTD Amount5	1
ISTD Amount6	1
ISTD Amount7	1
ISTD Amount8	1
ISTD Amount9	1
ISTD Amount10	1
ISTD Amount11	1
ISTD Amount12	1
ISTD Amount13	1
ISTD Amount14	1
ISTD Amount15	1
ISTD Amount16	1
ISTD Amount17	1
ISTD Amount18	1
ISTD Amount19	1
ISTD Amount20	1
ISTD Amount21	1
ISTD Amount22	1
ISTD Amount23	1
ISTD Amount24	1
ISTD Amount25	1
ISTD Amount26	1
ISTD Amount27	1
ISTD Amount28	1
ISTD Amount29	1
ISTD Amount30	1
ISTD Amount31	1
ISTD Amount32	1
Sample Amount	1
Dilution Factor	1
Vial#	1
Injection Volume	1
Injection Count	1
Bar Code	

[Original Files]
Data File	C:\Users\User\Desktop\GC Analyses\Jack\UIC Prairie Sampling\9.2.22\220902_056.gcd
Method File	C:\LabSolutions\Data\GHG_4min_2022\ghg3_togas_w_acet_4 min_new_int.gcm
Batch File	
Report Format File	c:\LabSolutions\System\DEFAULT.lsr

[File Description]


[Configuration]
Instrument Name	C0B7VH3-Instrument1
Instrument #	1
Line #	1
# of Detectors	3
Detector ID	DET#1	DET#2	DET#3
Detector Name	FID	PTCD	ECD
# of Channels	1	1	1

[Peak Table(Ch1)]
# of Peaks	3
Peak#	R.Time	I.Time	F.Time	Area	Height	A/H	Conc.	Mark	ID#	Name	k'	Plate #	Plate Ht.	Tailing	Resolution	Sep.Factor	Area Ratio	Height Ratio	Conc. %	Norm Conc.
1	1.476	1.435	1.538	11496	5030	2.285	100.000	   	1	CO	0.000	8230	18.227	1.299	0.000	0.000	0	0	16.667	16.667
2	1.571	1.538	1.637	5189	2600	1.996	100.000	 V 	2	CH4	0.065	11376	13.185	1.147	1.538	0.000	0	0	16.667	16.667
3	2.000	1.952	2.312	1130524	550200	2.055	400.000	   	3	CO2	0.355	17887	8.386	1.175	7.226	5.500	0	0	66.667	66.667

[Peak Table(Ch2)]
# of Peaks	0

[Peak Table(Ch3)]
# of Peaks	2
Peak#	R.Time	I.Time	F.Time	Area	Height	A/H	Conc.	Mark	ID#	Name	k'	Plate #	Plate Ht.	Tailing	Resolution	Sep.Factor	Area Ratio	Height Ratio	Conc. %	Norm Conc.
1	2.469	2.260	2.653	3371	247	13.631	0.000	   			0.000	1706	87.945	0.984	0.000	0.000	0	0	0.000	0.000
2	2.884	2.660	3.965	51402	6265	8.204	1.000	   	1	N2O	0.168	10949	13.700	2.097	2.372	0.000	0	0	100.000	100.000

[Compound Results(Ch1)]
# of IDs	6
ID#	Name	R.Time	Area	Height	Conc.	Curve	3rd	2nd	1st	Constant	Area Ratio	Height Ratio	Conc. %	Norm Conc.
1	CO	1.476	11496	5030	100.000	Linear	0.000000e+00	0.000000e+00	1.149594e+002	0.000000e+00	0	0	16.667	16.667
2	CH4	1.571	5189	2600	100.000	Linear	0.000000e+00	0.000000e+00	5.189362e+001	0.000000e+00	0	0	16.667	16.667
3	CO2	2.000	1130524	550200	400.000	Linear	0.000000e+00	0.000000e+00	2.826309e+003	0.000000e+00	0	0	66.667	66.667
4	Ethylene	0.000	0	0	0.000	Linear	0.000000e+00	0.000000e+00	0.000000e+00	0.000000e+00	0	0	0.000	0.000
5	Acetylene	0.000	0	0	0.000	Linear	0.000000e+00	0.000000e+00	0.000000e+00	0.000000e+00	0	0	0.000	0.000
6	Ethane	0.000	0	0	0.000	Linear	0.000000e+00	0.000000e+00	0.000000e+00	0.000000e+00	0	0	0.000	0.000

[Compound Results(Ch2)]
# of IDs	5
ID#	Name	R.Time	Area	Height	Conc.	Curve	3rd	2nd	1st	Constant	Area Ratio	Height Ratio	Conc. %	Norm Conc.
1	Hydrogen	0.000	0	0	0.000	Linear	0.000000e+00	0.000000e+00	0.000000e+00	0.000000e+00	0	0	0.000	0.000
2	Oxygen	0.000	0	0	0.000	Linear	0.000000e+00	0.000000e+00	0.000000e+00	0.000000e+00	0	0	0.000	0.000
3	Nitrogen	0.000	0	0	0.000	Linear	0.000000e+00	0.000000e+00	0.000000e+00	0.000000e+00	0	0	0.000	0.000
4	Methane	0.000	0	0	0.000	Linear	0.000000e+00	0.000000e+00	0.000000e+00	0.000000e+00	0	0	0.000	0.000
5	Carbon Monoxide	0.000	0	0	0.000	Linear	0.000000e+00	0.000000e+00	0.000000e+00	0.000000e+00	0	0	0.000	0.000

[Compound Results(Ch3)]
# of IDs	2
ID#	Name	R.Time	Area	Height	Conc.	Curve	3rd	2nd	1st	Constant	Area Ratio	Height Ratio	Conc. %	Norm Conc.
1	N2O	2.884	51402	6265	1.000	Linear	0.000000e+00	0.000000e+00	5.140163e+004	0.000000e+00	0	0	100.000	100.000
2	SF6	0.000	0	0	0.000	Linear	0.000000e+00	0.000000e+00	0.000000e+00	0.000000e+00	0	0	0.000	0.000

[Group Results(Ch1)]
# of Groups	0

[Group Results(Ch2)]
# of Groups	0

[Group Results(Ch3)]
# of Groups	0

[Chromatogram (Ch1)]
Interval(msec)	220
# of Points	1091
Start Time(min)	0.002
End Time(min)	3.998
R.Time (min)	Intensity
0.00167	-32
0.00533	-37
0.00900	-40
0.01267	-42
0.01633	-42
0.02000	-40
0.02367	-36
0.02733	-30
0.03100	-22
0.03467	-16
0.03833	-11
0.04200	-9
0.04567	-10
0.04933	-13
0.05300	-17
0.05667	-21
0.06033	-22
0.06400	-20
0.06767	-14
0.07133	-8
0.07500	-2
0.07867	-0
0.08233	-3
0.08600	-7
0.08967	-10
0.09333	-13
0.09700	-15
0.10067	-16
0.10433	-20
0.10800	-24
0.11167	-27
0.11533	-30
0.11900	-35
0.12267	-41
0.12633	-46
0.13000	-48
0.13367	-48
0.13733	-45
0.14100	-40
0.14467	-37
0.14833	-35
0.15200	-33
0.15567	-31
0.15933	-30
0.16300	-31
0.16667	-31
0.17033	-31
0.17400	-28
0.17767	-22
0.18133	-19
0.18500	-20
0.18867	-23
0.19233	-26
0.19600	-26
0.19967	-26
0.20333	-26
0.20700	-28
0.21067	-32
0.21433	-34
0.21800	-35
0.22167	-38
0.22533	-41
0.22900	-44
0.23267	-43
0.23633	-41
0.24000	-36
0.24367	-30
0.24733	-26
0.25100	-27
0.25467	-32
0.25833	-39
0.26200	-47
0.26567	-53
0.26933	-57
0.27300	-55
0.27667	-50
0.28033	-46
0.28400	-45
0.28767	-46
0.29133	-50
0.29500	-54
0.29867	-55
0.30233	-53
0.30600	-50
0.30967	-46
0.31333	-42
0.31700	-42
0.32067	-43
0.32433	-44
0.32800	-47
0.33167	-51
0.33533	-51
0.33900	-47
0.34267	-43
0.34633	-43
0.35000	-46
0.35367	-47
0.35733	-48
0.36100	-48
0.36467	-51
0.36833	-56
0.37200	-62
0.37567	-64
0.37933	-57
0.38300	-45
0.38667	-33
0.39033	-28
0.39400	-31
0.39767	-38
0.40133	-47
0.40500	-53
0.40867	-57
0.41233	-56
0.41600	-56
0.41967	-54
0.42333	-52
0.42700	-53
0.43067	-55
0.43433	-56
0.43800	-54
0.44167	-50
0.44533	-45
0.44900	-40
0.45267	-35
0.45633	-33
0.46000	-36
0.46367	-42
0.46733	-53
0.47100	-66
0.47467	-74
0.47833	-77
0.48200	-74
0.48567	-67
0.48933	-63
0.49300	-61
0.49667	-61
0.50033	-59
0.50400	-54
0.50767	-49
0.51133	-50
0.51500	-55
0.51867	-61
0.52233	-63
0.52600	-61
0.52967	-54
0.53333	-47
0.53700	-44
0.54067	-50
0.54433	-60
0.54800	-68
0.55167	-71
0.55533	-76
0.55900	-81
0.56267	-89
0.56633	-95
0.57000	-96
0.57367	-93
0.57733	-86
0.58100	-82
0.58467	-79
0.58833	-77
0.59200	-76
0.59567	-75
0.59933	-73
0.60300	-71
0.60667	-69
0.61033	-67
0.61400	-67
0.61767	-67
0.62133	-70
0.62500	-73
0.62867	-72
0.63233	-69
0.63600	-69
0.63967	-70
0.64333	-70
0.64700	-67
0.65067	-62
0.65433	-58
0.65800	-56
0.66167	-60
0.66533	-67
0.66900	-78
0.67267	-88
0.67633	-95
0.68000	-96
0.68367	-93
0.68733	-90
0.69100	-87
0.69467	-85
0.69833	-85
0.70200	-84
0.70567	-82
0.70933	-77
0.71300	-70
0.71667	-64
0.72033	-62
0.72400	-64
0.72767	-65
0.73133	-67
0.73500	-69
0.73867	-71
0.74233	-75
0.74600	-82
0.74967	-90
0.75333	-95
0.75700	-99
0.76067	-100
0.76433	-98
0.76800	-95
0.77167	-91
0.77533	-86
0.77900	-81
0.78267	-79
0.78633	-80
0.79000	-82
0.79367	-81
0.79733	-78
0.80100	-76
0.80467	-75
0.80833	-75
0.81200	-75
0.81567	-77
0.81933	-79
0.82300	-79
0.82667	-80
0.83033	-82
0.83400	-82
0.83767	-79
0.84133	-75
0.84500	-75
0.84867	-78
0.85233	-81
0.85600	-86
0.85967	-89
0.86333	-88
0.86700	-88
0.87067	-87
0.87433	-85
0.87800	-81
0.88167	-77
0.88533	-78
0.88900	-82
0.89267	-86
0.89633	-88
0.90000	-89
0.90367	-90
0.90733	-93
0.91100	-98
0.91467	-100
0.91833	-100
0.92200	-98
0.92567	-96
0.92933	-94
0.93300	-90
0.93667	-88
0.94033	-89
0.94400	-90
0.94767	-91
0.95133	-90
0.95500	-87
0.95867	-85
0.96233	-84
0.96600	-84
0.96967	-86
0.97333	-91
0.97700	-93
0.98067	-95
0.98433	-97
0.98800	-98
0.99167	-97
0.99533	-95
0.99900	-90
1.00267	-87
1.00633	-88
1.01000	-93
1.01367	-96
1.01733	-95
1.02100	-92
1.02467	-94
1.02833	-99
1.03200	-106
1.03567	-112
1.03933	-113
1.04300	-111
1.04667	-112
1.05033	-114
1.05400	-116
1.05767	-117
1.06133	-118
1.06500	-118
1.06867	-119
1.07233	-120
1.07600	-117
1.07967	-109
1.08333	-99
1.08700	-91
1.09067	-88
1.09433	-93
1.09800	-102
1.10167	-108
1.10533	-109
1.10900	-105
1.11267	-99
1.11633	-95
1.12000	-97
1.12367	-103
1.12733	-105
1.13100	-105
1.13467	-106
1.13833	-107
1.14200	-110
1.14567	-112
1.14933	-111
1.15300	-109
1.15667	-109
1.16033	-111
1.16400	-115
1.16767	-121
1.17133	-128
1.17500	-136
1.17867	-142
1.18233	-145
1.18600	-141
1.18967	-131
1.19333	-123
1.19700	-120
1.20067	-120
1.20433	-118
1.20800	-113
1.21167	-106
1.21533	-104
1.21900	-103
1.22267	-104
1.22633	-110
1.23000	-119
1.23367	-127
1.23733	-132
1.24100	-133
1.24467	-131
1.24833	-125
1.25200	-120
1.25567	-117
1.25933	-113
1.26300	-109
1.26667	-106
1.27033	-105
1.27400	-110
1.27767	-116
1.28133	-122
1.28500	-130
1.28867	-138
1.29233	-145
1.29600	-151
1.29967	-156
1.30333	-158
1.30700	-154
1.31067	-144
1.31433	-135
1.31800	-130
1.32167	-131
1.32533	-135
1.32900	-139
1.33267	-139
1.33633	-136
1.34000	-133
1.34367	-131
1.34733	-134
1.35100	-139
1.35467	-144
1.35833	-148
1.36200	-150
1.36567	-150
1.36933	-150
1.37300	-148
1.37667	-142
1.38033	-135
1.38400	-127
1.38767	-123
1.39133	-120
1.39500	-118
1.39867	-117
1.40233	-121
1.40600	-130
1.40967	-139
1.41333	-145
1.41700	-148
1.42067	-147
1.42433	-148
1.42800	-150
1.43167	-151
1.43533	-147
1.43900	-128
1.44267	-52
1.44633	153
1.45000	513
1.45367	1071
1.45733	1851
1.46100	2746
1.46467	3578
1.46833	4237
1.47200	4679
1.47567	4880
1.47933	4814
1.48300	4470
1.48667	3893
1.49033	3188
1.49400	2475
1.49767	1842
1.50133	1326
1.50500	932
1.50867	646
1.51233	447
1.51600	306
1.51967	198
1.52333	110
1.52700	39
1.53067	-14
1.53433	-53
1.53800	-71
1.54167	-40
1.54533	105
1.54900	418
1.55267	874
1.55633	1377
1.56000	1830
1.56367	2180
1.56733	2395
1.57100	2443
1.57467	2298
1.57833	1979
1.58200	1564
1.58567	1144
1.58933	781
1.59300	496
1.59667	289
1.60033	144
1.60400	46
1.60767	-19
1.61133	-66
1.61500	-102
1.61867	-124
1.62233	-134
1.62600	-138
1.62967	-142
1.63333	-151
1.63700	-161
1.64067	-166
1.64433	-166
1.64800	-168
1.65167	-170
1.65533	-171
1.65900	-172
1.66267	-172
1.66633	-170
1.67000	-168
1.67367	-167
1.67733	-167
1.68100	-169
1.68467	-174
1.68833	-181
1.69200	-188
1.69567	-193
1.69933	-195
1.70300	-196
1.70667	-194
1.71033	-188
1.71400	-182
1.71767	-180
1.72133	-178
1.72500	-176
1.72867	-172
1.73233	-168
1.73600	-163
1.73967	-158
1.74333	-152
1.74700	-149
1.75067	-153
1.75433	-159
1.75800	-165
1.76167	-172
1.76533	-177
1.76900	-175
1.77267	-168
1.77633	-162
1.78000	-161
1.78367	-165
1.78733	-169
1.79100	-175
1.79467	-179
1.79833	-180
1.80200	-178
1.80567	-173
1.80933	-168
1.81300	-167
1.81667	-168
1.82033	-167
1.82400	-165
1.82767	-164
1.83133	-164
1.83500	-169
1.83867	-173
1.84233	-172
1.84600	-171
1.84967	-169
1.85333	-165
1.85700	-162
1.86067	-161
1.86433	-161
1.86800	-161
1.87167	-157
1.87533	-151
1.87900	-149
1.88267	-153
1.88633	-160
1.89000	-170
1.89367	-177
1.89733	-177
1.90100	-175
1.90467	-174
1.90833	-171
1.91200	-164
1.91567	-155
1.91933	-149
1.92300	-149
1.92667	-155
1.93033	-158
1.93400	-158
1.93767	-155
1.94133	-149
1.94500	-146
1.94867	-146
1.95233	-140
1.95600	-92
1.95967	209
1.96333	1687
1.96700	7284
1.97067	23489
1.97433	59857
1.97800	124047
1.98167	214647
1.98533	319023
1.98900	419078
1.99267	498058
1.99633	543890
2.00000	550089
2.00367	517112
2.00733	453165
2.01100	372061
2.01467	288475
2.01833	213438
2.02200	152443
2.02567	106283
2.02933	73076
2.03300	50003
2.03667	34320
2.04033	23793
2.04400	16766
2.04767	12075
2.05133	8923
2.05500	6780
2.05867	5294
2.06233	4240
2.06600	3474
2.06967	2899
2.07333	2459
2.07700	2117
2.08067	1850
2.08433	1637
2.08800	1463
2.09167	1317
2.09533	1191
2.09900	1081
2.10267	984
2.10633	900
2.11000	830
2.11367	775
2.11733	727
2.12100	679
2.12467	630
2.12833	583
2.13200	542
2.13567	509
2.13933	481
2.14300	454
2.14667	431
2.15033	409
2.15400	386
2.15767	361
2.16133	337
2.16500	318
2.16867	306
2.17233	295
2.17600	285
2.17967	275
2.18333	262
2.18700	248
2.19067	234
2.19433	221
2.19800	208
2.20167	197
2.20533	189
2.20900	184
2.21267	181
2.21633	179
2.22000	177
2.22367	174
2.22733	169
2.23100	162
2.23467	154
2.23833	144
2.24200	135
2.24567	130
2.24933	129
2.25300	131
2.25667	134
2.26033	137
2.26400	135
2.26767	127
2.27133	114
2.27500	103
2.27867	97
2.28233	95
2.28600	95
2.28967	92
2.29333	86
2.29700	82
2.30067	81
2.30433	80
2.30800	78
2.31167	77
2.31533	73
2.31900	69
2.32267	69
2.32633	72
2.33000	72
2.33367	70
2.33733	68
2.34100	64
2.34467	60
2.34833	54
2.35200	50
2.35567	47
2.35933	47
2.36300	49
2.36667	45
2.37033	39
2.37400	33
2.37767	26
2.38133	21
2.38500	19
2.38867	22
2.39233	26
2.39600	27
2.39967	25
2.40333	23
2.40700	21
2.41067	21
2.41433	20
2.41800	20
2.42167	21
2.42533	23
2.42900	24
2.43267	25
2.43633	25
2.44000	22
2.44367	18
2.44733	18
2.45100	21
2.45467	23
2.45833	25
2.46200	29
2.46567	32
2.46933	30
2.47300	27
2.47667	27
2.48033	29
2.48400	33
2.48767	37
2.49133	39
2.49500	37
2.49867	33
2.50233	30
2.50600	29
2.50967	31
2.51333	34
2.51700	37
2.52067	40
2.52433	39
2.52800	34
2.53167	28
2.53533	25
2.53900	25
2.54267	27
2.54633	29
2.55000	32
2.55367	34
2.55733	33
2.56100	30
2.56467	26
2.56833	24
2.57200	25
2.57567	27
2.57933	21
2.58300	10
2.58667	-0
2.59033	-7
2.59400	-10
2.59767	-9
2.60133	-8
2.60500	-6
2.60867	-3
2.61233	3
2.61600	14
2.61967	22
2.62333	25
2.62700	23
2.63067	18
2.63433	11
2.63800	6
2.64167	4
2.64533	6
2.64900	9
2.65267	11
2.65633	11
2.66000	9
2.66367	8
2.66733	8
2.67100	11
2.67467	15
2.67833	17
2.68200	22
2.68567	25
2.68933	26
2.69300	28
2.69667	32
2.70033	33
2.70400	30
2.70767	27
2.71133	24
2.71500	17
2.71867	11
2.72233	10
2.72600	12
2.72967	16
2.73333	19
2.73700	20
2.74067	19
2.74433	16
2.74800	13
2.75167	8
2.75533	5
2.75900	5
2.76267	7
2.76633	14
2.77000	22
2.77367	29
2.77733	34
2.78100	35
2.78467	33
2.78833	32
2.79200	30
2.79567	26
2.79933	22
2.80300	18
2.80667	15
2.81033	12
2.81400	10
2.81767	11
2.82133	16
2.82500	24
2.82867	34
2.83233	41
2.83600	46
2.83967	45
2.84333	44
2.84700	43
2.85067	40
2.85433	37
2.85800	36
2.86167	38
2.86533	42
2.86900	45
2.87267	45
2.87633	44
2.88000	43
2.88367	42
2.88733	40
2.89100	38
2.89467	38
2.89833	35
2.90200	32
2.90567	28
2.90933	23
2.91300	18
2.91667	14
2.92033	14
2.92400	18
2.92767	24
2.93133	27
2.93500	28
2.93867	27
2.94233	27
2.94600	28
2.94967	28
2.95333	29
2.95700	30
2.96067	28
2.96433	25
2.96800	25
2.97167	25
2.97533	24
2.97900	24
2.98267	24
2.98633	27
2.99000	29
2.99367	35
2.99733	42
3.00100	46
3.00467	43
3.00833	37
3.01200	32
3.01567	29
3.01933	27
3.02300	27
3.02667	29
3.03033	30
3.03400	31
3.03767	36
3.04133	42
3.04500	46
3.04867	49
3.05233	52
3.05600	51
3.05967	50
3.06333	50
3.06700	51
3.07067	47
3.07433	40
3.07800	34
3.08167	29
3.08533	29
3.08900	28
3.09267	29
3.09633	29
3.10000	31
3.10367	35
3.10733	43
3.11100	51
3.11467	57
3.11833	61
3.12200	60
3.12567	54
3.12933	44
3.13300	38
3.13667	40
3.14033	43
3.14400	46
3.14767	46
3.15133	45
3.15500	45
3.15867	43
3.16233	36
3.16600	29
3.16967	26
3.17333	28
3.17700	33
3.18067	37
3.18433	36
3.18800	31
3.19167	25
3.19533	21
3.19900	22
3.20267	28
3.20633	35
3.21000	42
3.21367	46
3.21733	47
3.22100	47
3.22467	47
3.22833	46
3.23200	43
3.23567	42
3.23933	50
3.24300	60
3.24667	64
3.25033	61
3.25400	58
3.25767	58
3.26133	60
3.26500	62
3.26867	65
3.27233	67
3.27600	64
3.27967	57
3.28333	51
3.28700	47
3.29067	47
3.29433	45
3.29800	43
3.30167	42
3.30533	44
3.30900	48
3.31267	51
3.31633	50
3.32000	49
3.32367	47
3.32733	46
3.33100	50
3.33467	57
3.33833	60
3.34200	57
3.34567	48
3.34933	39
3.35300	37
3.35667	38
3.36033	40
3.36400	42
3.36767	42
3.37133	39
3.37500	35
3.37867	36
3.38233	39
3.38600	42
3.38967	46
3.39333	50
3.39700	56
3.40067	59
3.40433	58
3.40800	56
3.41167	54
3.41533	50
3.41900	44
3.42267	38
3.42633	39
3.43000	43
3.43367	50
3.43733	56
3.44100	62
3.44467	65
3.44833	63
3.45200	61
3.45567	60
3.45933	59
3.46300	57
3.46667	53
3.47033	49
3.47400	44
3.47767	42
3.48133	45
3.48500	51
3.48867	58
3.49233	65
3.49600	69
3.49967	67
3.50333	61
3.50700	58
3.51067	57
3.51433	59
3.51800	63
3.52167	69
3.52533	73
3.52900	72
3.53267	65
3.53633	54
3.54000	43
3.54367	39
3.54733	40
3.55100	41
3.55467	43
3.55833	46
3.56200	46
3.56567	44
3.56933	40
3.57300	37
3.57667	38
3.58033	42
3.58400	48
3.58767	55
3.59133	63
3.59500	68
3.59867	68
3.60233	65
3.60600	60
3.60967	57
3.61333	59
3.61700	63
3.62067	64
3.62433	63
3.62800	58
3.63167	55
3.63533	54
3.63900	56
3.64267	57
3.64633	57
3.65000	57
3.65367	58
3.65733	58
3.66100	56
3.66467	50
3.66833	46
3.67200	47
3.67567	50
3.67933	51
3.68300	51
3.68667	52
3.69033	52
3.69400	49
3.69767	45
3.70133	43
3.70500	42
3.70867	41
3.71233	41
3.71600	43
3.71967	49
3.72333	54
3.72700	60
3.73067	67
3.73433	72
3.73800	70
3.74167	64
3.74533	57
3.74900	49
3.75267	43
3.75633	38
3.76000	34
3.76367	35
3.76733	37
3.77100	39
3.77467	41
3.77833	40
3.78200	40
3.78567	41
3.78933	43
3.79300	42
3.79667	39
3.80033	36
3.80400	33
3.80767	31
3.81133	30
3.81500	25
3.81867	19
3.82233	16
3.82600	17
3.82967	18
3.83333	16
3.83700	12
3.84067	13
3.84433	16
3.84800	18
3.85167	19
3.85533	20
3.85900	21
3.86267	19
3.86633	20
3.87000	21
3.87367	19
3.87733	18
3.88100	19
3.88467	22
3.88833	24
3.89200	23
3.89567	21
3.89933	21
3.90300	21
3.90667	19
3.91033	15
3.91400	8
3.91767	3
3.92133	1
3.92500	2
3.92867	4
3.93233	7
3.93600	10
3.93967	12
3.94333	16
3.94700	18
3.95067	17
3.95433	15
3.95800	14
3.96167	13
3.96533	10
3.96900	7
3.97267	6
3.97633	5
3.98000	1
3.98367	-5
3.98733	-10
3.99100	-13
3.99467	-13
3.99833	-10

[Chromatogram (Ch2)]
Interval(msec)	220
# of Points	1091
Start Time(min)	0.002
End Time(min)	3.998
R.Time (min)	Intensity
0.00167	1
0.00533	1
0.00900	1
0.01267	1
0.01633	2
0.02000	2
0.02367	2
0.02733	3
0.03100	3
0.03467	3
0.03833	3
0.04200	3
0.04567	4
0.04933	4
0.05300	4
0.05667	4
0.06033	4
0.06400	4
0.06767	4
0.07133	4
0.07500	4
0.07867	4
0.08233	4
0.08600	4
0.08967	4
0.09333	5
0.09700	5
0.10067	5
0.10433	5
0.10800	4
0.11167	4
0.11533	4
0.11900	4
0.12267	3
0.12633	3
0.13000	3
0.13367	3
0.13733	2
0.14100	2
0.14467	2
0.14833	1
0.15200	1
0.15567	1
0.15933	0
0.16300	0
0.16667	0
0.17033	0
0.17400	1
0.17767	1
0.18133	1
0.18500	1
0.18867	1
0.19233	1
0.19600	1
0.19967	1
0.20333	1
0.20700	1
0.21067	1
0.21433	1
0.21800	1
0.22167	0
0.22533	0
0.22900	0
0.23267	0
0.23633	1
0.24000	1
0.24367	1
0.24733	1
0.25100	1
0.25467	1
0.25833	1
0.26200	1
0.26567	1
0.26933	2
0.27300	2
0.27667	2
0.28033	2
0.28400	2
0.28767	2
0.29133	2
0.29500	2
0.29867	1
0.30233	1
0.30600	1
0.30967	0
0.31333	0
0.31700	-0
0.32067	-0
0.32433	-1
0.32800	-1
0.33167	-1
0.33533	-1
0.33900	-0
0.34267	-0
0.34633	-0
0.35000	0
0.35367	0
0.35733	1
0.36100	1
0.36467	2
0.36833	2
0.37200	2
0.37567	3
0.37933	3
0.38300	4
0.38667	4
0.39033	4
0.39400	4
0.39767	4
0.40133	4
0.40500	5
0.40867	5
0.41233	5
0.41600	5
0.41967	5
0.42333	5
0.42700	5
0.43067	5
0.43433	5
0.43800	5
0.44167	5
0.44533	5
0.44900	5
0.45267	5
0.45633	5
0.46000	5
0.46367	5
0.46733	5
0.47100	5
0.47467	5
0.47833	5
0.48200	5
0.48567	5
0.48933	4
0.49300	4
0.49667	3
0.50033	3
0.50400	2
0.50767	2
0.51133	1
0.51500	1
0.51867	1
0.52233	0
0.52600	0
0.52967	0
0.53333	-0
0.53700	-0
0.54067	-0
0.54433	-0
0.54800	-1
0.55167	-1
0.55533	-0
0.55900	-0
0.56267	-0
0.56633	-0
0.57000	-0
0.57367	-0
0.57733	-0
0.58100	0
0.58467	0
0.58833	0
0.59200	0
0.59567	0
0.59933	-0
0.60300	-0
0.60667	-0
0.61033	-0
0.61400	-0
0.61767	0
0.62133	0
0.62500	1
0.62867	1
0.63233	1
0.63600	2
0.63967	2
0.64333	2
0.64700	2
0.65067	2
0.65433	2
0.65800	1
0.66167	1
0.66533	1
0.66900	0
0.67267	-0
0.67633	-0
0.68000	-1
0.68367	-1
0.68733	-1
0.69100	-2
0.69467	-2
0.69833	-2
0.70200	-2
0.70567	-2
0.70933	-2
0.71300	-2
0.71667	-2
0.72033	-1
0.72400	-1
0.72767	-1
0.73133	-1
0.73500	-1
0.73867	-1
0.74233	-1
0.74600	-1
0.74967	-0
0.75333	-0
0.75700	0
0.76067	1
0.76433	1
0.76800	1
0.77167	1
0.77533	1
0.77900	1
0.78267	1
0.78633	1
0.79000	1
0.79367	1
0.79733	1
0.80100	2
0.80467	2
0.80833	2
0.81200	2
0.81567	2
0.81933	2
0.82300	2
0.82667	2
0.83033	2
0.83400	2
0.83767	2
0.84133	2
0.84500	2
0.84867	2
0.85233	2
0.85600	2
0.85967	2
0.86333	2
0.86700	1
0.87067	1
0.87433	1
0.87800	1
0.88167	1
0.88533	1
0.88900	1
0.89267	1
0.89633	0
0.90000	0
0.90367	-0
0.90733	-1
0.91100	-1
0.91467	-2
0.91833	-2
0.92200	-2
0.92567	-2
0.92933	-3
0.93300	-2
0.93667	-2
0.94033	-2
0.94400	-1
0.94767	-1
0.95133	-1
0.95500	-1
0.95867	-1
0.96233	-0
0.96600	-0
0.96967	-0
0.97333	0
0.97700	0
0.98067	0
0.98433	0
0.98800	0
0.99167	0
0.99533	1
0.99900	1
1.00267	1
1.00633	1
1.01000	1
1.01367	1
1.01733	1
1.02100	1
1.02467	0
1.02833	0
1.03200	0
1.03567	0
1.03933	-0
1.04300	-0
1.04667	-0
1.05033	-0
1.05400	-0
1.05767	-0
1.06133	-0
1.06500	0
1.06867	0
1.07233	0
1.07600	0
1.07967	0
1.08333	0
1.08700	0
1.09067	-0
1.09433	0
1.09800	0
1.10167	0
1.10533	0
1.10900	0
1.11267	0
1.11633	0
1.12000	0
1.12367	1
1.12733	1
1.13100	1
1.13467	1
1.13833	2
1.14200	2
1.14567	3
1.14933	3
1.15300	3
1.15667	3
1.16033	3
1.16400	4
1.16767	4
1.17133	3
1.17500	3
1.17867	3
1.18233	3
1.18600	3
1.18967	3
1.19333	3
1.19700	2
1.20067	2
1.20433	2
1.20800	1
1.21167	1
1.21533	1
1.21900	0
1.22267	-0
1.22633	-0
1.23000	-0
1.23367	-0
1.23733	-1
1.24100	-1
1.24467	-1
1.24833	-1
1.25200	-1
1.25567	-1
1.25933	-2
1.26300	-2
1.26667	-2
1.27033	-2
1.27400	-2
1.27767	-2
1.28133	-2
1.28500	-1
1.28867	-1
1.29233	-1
1.29600	-1
1.29967	-1
1.30333	-1
1.30700	-1
1.31067	-1
1.31433	-1
1.31800	-1
1.32167	-1
1.32533	-1
1.32900	-2
1.33267	-2
1.33633	-2
1.34000	-2
1.34367	-2
1.34733	-2
1.35100	-2
1.35467	-2
1.35833	-2
1.36200	-2
1.36567	-1
1.36933	-1
1.37300	-1
1.37667	-1
1.38033	-1
1.38400	-1
1.38767	-1
1.39133	-1
1.39500	-0
1.39867	-0
1.40233	0
1.40600	0
1.40967	0
1.41333	0
1.41700	0
1.42067	0
1.42433	0
1.42800	0
1.43167	-0
1.43533	-0
1.43900	-0
1.44267	-0
1.44633	-1
1.45000	-1
1.45367	-1
1.45733	-1
1.46100	-1
1.46467	-1
1.46833	-1
1.47200	-1
1.47567	-2
1.47933	-2
1.48300	-2
1.48667	-2
1.49033	-2
1.49400	-2
1.49767	-2
1.50133	-2
1.50500	-2
1.50867	-2
1.51233	-2
1.51600	-2
1.51967	-2
1.52333	-2
1.52700	-1
1.53067	-1
1.53433	-1
1.53800	-1
1.54167	-1
1.54533	-0
1.54900	-0
1.55267	-0
1.55633	0
1.56000	1
1.56367	1
1.56733	1
1.57100	1
1.57467	1
1.57833	1
1.58200	1
1.58567	1
1.58933	1
1.59300	0
1.59667	0
1.60033	-1
1.60400	-2
1.60767	-3
1.61133	-4
1.61500	-6
1.61867	-8
1.62233	-11
1.62600	-14
1.62967	-17
1.63333	-20
1.63700	-24
1.64067	-28
1.64433	-32
1.64800	-36
1.65167	-39
1.65533	-43
1.65900	-47
1.66267	-51
1.66633	-55
1.67000	-60
1.67367	-65
1.67733	-71
1.68100	-76
1.68467	-81
1.68833	-86
1.69200	-90
1.69567	-94
1.69933	-98
1.70300	-101
1.70667	-104
1.71033	-106
1.71400	-107
1.71767	-108
1.72133	-109
1.72500	-110
1.72867	-110
1.73233	-110
1.73600	-111
1.73967	-111
1.74333	-111
1.74700	-112
1.75067	-113
1.75433	-114
1.75800	-115
1.76167	-116
1.76533	-116
1.76900	-117
1.77267	-117
1.77633	-117
1.78000	-117
1.78367	-117
1.78733	-117
1.79100	-117
1.79467	-117
1.79833	-117
1.80200	-117
1.80567	-117
1.80933	-117
1.81300	-118
1.81667	-118
1.82033	-118
1.82400	-119
1.82767	-119
1.83133	-119
1.83500	-119
1.83867	-119
1.84233	-119
1.84600	-120
1.84967	-120
1.85333	-119
1.85700	-119
1.86067	-119
1.86433	-119
1.86800	-120
1.87167	-120
1.87533	-120
1.87900	-120
1.88267	-120
1.88633	-120
1.89000	-120
1.89367	-119
1.89733	-118
1.90100	-118
1.90467	-118
1.90833	-117
1.91200	-117
1.91567	-117
1.91933	-116
1.92300	-116
1.92667	-116
1.93033	-116
1.93400	-116
1.93767	-117
1.94133	-117
1.94500	-117
1.94867	-116
1.95233	-116
1.95600	-116
1.95967	-116
1.96333	-115
1.96700	-115
1.97067	-115
1.97433	-115
1.97800	-114
1.98167	-114
1.98533	-114
1.98900	-114
1.99267	-113
1.99633	-113
2.00000	-113
2.00367	-113
2.00733	-113
2.01100	-113
2.01467	-113
2.01833	-113
2.02200	-113
2.02567	-113
2.02933	-113
2.03300	-113
2.03667	-112
2.04033	-111
2.04400	-111
2.04767	-110
2.05133	-110
2.05500	-109
2.05867	-108
2.06233	-108
2.06600	-107
2.06967	-107
2.07333	-107
2.07700	-108
2.08067	-108
2.08433	-108
2.08800	-108
2.09167	-108
2.09533	-107
2.09900	-106
2.10267	-105
2.10633	-104
2.11000	-104
2.11367	-104
2.11733	-104
2.12100	-104
2.12467	-104
2.12833	-104
2.13200	-104
2.13567	-104
2.13933	-104
2.14300	-103
2.14667	-103
2.15033	-102
2.15400	-101
2.15767	-101
2.16133	-100
2.16500	-100
2.16867	-99
2.17233	-99
2.17600	-98
2.17967	-97
2.18333	-96
2.18700	-96
2.19067	-96
2.19433	-95
2.19800	-95
2.20167	-95
2.20533	-95
2.20900	-94
2.21267	-94
2.21633	-94
2.22000	-94
2.22367	-94
2.22733	-94
2.23100	-93
2.23467	-93
2.23833	-93
2.24200	-93
2.24567	-92
2.24933	-92
2.25300	-91
2.25667	-91
2.26033	-91
2.26400	-91
2.26767	-91
2.27133	-90
2.27500	-90
2.27867	-90
2.28233	-89
2.28600	-89
2.28967	-89
2.29333	-89
2.29700	-89
2.30067	-89
2.30433	-89
2.30800	-89
2.31167	-89
2.31533	-88
2.31900	-88
2.32267	-88
2.32633	-87
2.33000	-87
2.33367	-87
2.33733	-87
2.34100	-87
2.34467	-87
2.34833	-86
2.35200	-86
2.35567	-85
2.35933	-84
2.36300	-83
2.36667	-82
2.37033	-80
2.37400	-77
2.37767	-75
2.38133	-71
2.38500	-68
2.38867	-64
2.39233	-60
2.39600	-56
2.39967	-51
2.40333	-47
2.40700	-43
2.41067	-38
2.41433	-34
2.41800	-30
2.42167	-26
2.42533	-23
2.42900	-20
2.43267	-18
2.43633	-16
2.44000	-14
2.44367	-12
2.44733	-9
2.45100	-7
2.45467	-5
2.45833	-4
2.46200	-2
2.46567	-1
2.46933	0
2.47300	1
2.47667	2
2.48033	4
2.48400	5
2.48767	6
2.49133	8
2.49500	9
2.49867	9
2.50233	9
2.50600	10
2.50967	10
2.51333	10
2.51700	11
2.52067	11
2.52433	11
2.52800	12
2.53167	12
2.53533	13
2.53900	14
2.54267	15
2.54633	16
2.55000	16
2.55367	16
2.55733	15
2.56100	15
2.56467	15
2.56833	15
2.57200	15
2.57567	15
2.57933	15
2.58300	15
2.58667	15
2.59033	15
2.59400	15
2.59767	15
2.60133	15
2.60500	15
2.60867	14
2.61233	14
2.61600	14
2.61967	14
2.62333	14
2.62700	14
2.63067	15
2.63433	15
2.63800	16
2.64167	17
2.64533	18
2.64900	19
2.65267	19
2.65633	20
2.66000	20
2.66367	21
2.66733	21
2.67100	22
2.67467	22
2.67833	22
2.68200	22
2.68567	22
2.68933	22
2.69300	22
2.69667	22
2.70033	22
2.70400	22
2.70767	22
2.71133	22
2.71500	22
2.71867	22
2.72233	23
2.72600	23
2.72967	24
2.73333	24
2.73700	25
2.74067	26
2.74433	26
2.74800	27
2.75167	27
2.75533	27
2.75900	27
2.76267	27
2.76633	27
2.77000	27
2.77367	27
2.77733	27
2.78100	27
2.78467	27
2.78833	26
2.79200	26
2.79567	26
2.79933	26
2.80300	26
2.80667	26
2.81033	26
2.81400	25
2.81767	25
2.82133	25
2.82500	25
2.82867	25
2.83233	25
2.83600	25
2.83967	26
2.84333	25
2.84700	25
2.85067	23
2.85433	20
2.85800	14
2.86167	6
2.86533	-5
2.86900	-20
2.87267	-39
2.87633	-61
2.88000	-88
2.88367	-119
2.88733	-153
2.89100	-191
2.89467	-231
2.89833	-275
2.90200	-321
2.90567	-368
2.90933	-418
2.91300	-468
2.91667	-519
2.92033	-570
2.92400	-622
2.92767	-673
2.93133	-724
2.93500	-775
2.93867	-826
2.94233	-879
2.94600	-939
2.94967	-1002
2.95333	-1060
2.95700	-1101
2.96067	-1118
2.96433	-1108
2.96800	-1073
2.97167	-1017
2.97533	-948
2.97900	-869
2.98267	-788
2.98633	-706
2.99000	-626
2.99367	-552
2.99733	-482
3.00100	-419
3.00467	-363
3.00833	-312
3.01200	-268
3.01567	-229
3.01933	-195
3.02300	-165
3.02667	-140
3.03033	-118
3.03400	-99
3.03767	-82
3.04133	-68
3.04500	-57
3.04867	-46
3.05233	-38
3.05600	-30
3.05967	-24
3.06333	-18
3.06700	-14
3.07067	-10
3.07433	-6
3.07800	-3
3.08167	-1
3.08533	1
3.08900	3
3.09267	5
3.09633	6
3.10000	8
3.10367	9
3.10733	10
3.11100	10
3.11467	11
3.11833	12
3.12200	13
3.12567	13
3.12933	14
3.13300	15
3.13667	15
3.14033	16
3.14400	17
3.14767	17
3.15133	18
3.15500	18
3.15867	18
3.16233	19
3.16600	19
3.16967	19
3.17333	19
3.17700	19
3.18067	20
3.18433	20
3.18800	20
3.19167	20
3.19533	20
3.19900	20
3.20267	20
3.20633	20
3.21000	20
3.21367	20
3.21733	20
3.22100	20
3.22467	20
3.22833	20
3.23200	20
3.23567	20
3.23933	20
3.24300	21
3.24667	21
3.25033	21
3.25400	21
3.25767	22
3.26133	22
3.26500	23
3.26867	23
3.27233	24
3.27600	24
3.27967	25
3.28333	25
3.28700	25
3.29067	26
3.29433	26
3.29800	26
3.30167	26
3.30533	26
3.30900	26
3.31267	27
3.31633	27
3.32000	27
3.32367	28
3.32733	28
3.33100	28
3.33467	28
3.33833	28
3.34200	29
3.34567	29
3.34933	29
3.35300	30
3.35667	30
3.36033	30
3.36400	30
3.36767	30
3.37133	30
3.37500	30
3.37867	30
3.38233	30
3.38600	30
3.38967	30
3.39333	30
3.39700	30
3.40067	30
3.40433	30
3.40800	30
3.41167	30
3.41533	29
3.41900	29
3.42267	29
3.42633	29
3.43000	28
3.43367	28
3.43733	28
3.44100	28
3.44467	28
3.44833	28
3.45200	28
3.45567	28
3.45933	28
3.46300	28
3.46667	27
3.47033	27
3.47400	27
3.47767	27
3.48133	27
3.48500	26
3.48867	26
3.49233	26
3.49600	26
3.49967	27
3.50333	27
3.50700	27
3.51067	27
3.51433	27
3.51800	27
3.52167	27
3.52533	27
3.52900	27
3.53267	27
3.53633	27
3.54000	27
3.54367	27
3.54733	27
3.55100	27
3.55467	27
3.55833	27
3.56200	27
3.56567	27
3.56933	27
3.57300	27
3.57667	27
3.58033	27
3.58400	27
3.58767	26
3.59133	26
3.59500	26
3.59867	26
3.60233	26
3.60600	25
3.60967	25
3.61333	25
3.61700	25
3.62067	25
3.62433	25
3.62800	25
3.63167	25
3.63533	25
3.63900	25
3.64267	26
3.64633	26
3.65000	26
3.65367	26
3.65733	26
3.66100	26
3.66467	26
3.66833	26
3.67200	26
3.67567	26
3.67933	26
3.68300	26
3.68667	26
3.69033	26
3.69400	26
3.69767	26
3.70133	25
3.70500	25
3.70867	25
3.71233	25
3.71600	25
3.71967	25
3.72333	25
3.72700	25
3.73067	25
3.73433	26
3.73800	26
3.74167	26
3.74533	27
3.74900	27
3.75267	27
3.75633	27
3.76000	27
3.76367	27
3.76733	27
3.77100	27
3.77467	27
3.77833	27
3.78200	27
3.78567	27
3.78933	27
3.79300	28
3.79667	28
3.80033	28
3.80400	28
3.80767	28
3.81133	28
3.81500	28
3.81867	28
3.82233	28
3.82600	28
3.82967	28
3.83333	28
3.83700	28
3.84067	28
3.84433	28
3.84800	28
3.85167	28
3.85533	28
3.85900	28
3.86267	28
3.86633	28
3.87000	28
3.87367	28
3.87733	28
3.88100	27
3.88467	27
3.88833	27
3.89200	28
3.89567	28
3.89933	27
3.90300	27
3.90667	27
3.91033	27
3.91400	27
3.91767	27
3.92133	27
3.92500	27
3.92867	27
3.93233	27
3.93600	27
3.93967	27
3.94333	26
3.94700	26
3.95067	26
3.95433	26
3.95800	26
3.96167	26
3.96533	26
3.96900	26
3.97267	26
3.97633	26
3.98000	27
3.98367	27
3.98733	27
3.99100	27
3.99467	27
3.99833	27

[Chromatogram (Ch3)]
Interval(msec)	220
# of Points	1091
Start Time(min)	0.002
End Time(min)	3.998
R.Time (min)	Intensity
0.00167	1
0.00533	1
0.00900	0
0.01267	-2
0.01633	-5
0.02000	-6
0.02367	-8
0.02733	-9
0.03100	-7
0.03467	-4
0.03833	-4
0.04200	-3
0.04567	-1
0.04933	-0
0.05300	-1
0.05667	-1
0.06033	-3
0.06400	-2
0.06767	1
0.07133	2
0.07500	3
0.07867	3
0.08233	2
0.08600	1
0.08967	1
0.09333	-0
0.09700	1
0.10067	1
0.10433	3
0.10800	3
0.11167	5
0.11533	9
0.11900	10
0.12267	7
0.12633	6
0.13000	5
0.13367	6
0.13733	7
0.14100	7
0.14467	6
0.14833	4
0.15200	4
0.15567	3
0.15933	2
0.16300	2
0.16667	4
0.17033	5
0.17400	8
0.17767	8
0.18133	9
0.18500	11
0.18867	12
0.19233	10
0.19600	8
0.19967	8
0.20333	9
0.20700	10
0.21067	10
0.21433	11
0.21800	14
0.22167	14
0.22533	14
0.22900	15
0.23267	17
0.23633	18
0.24000	17
0.24367	16
0.24733	17
0.25100	18
0.25467	19
0.25833	17
0.26200	17
0.26567	15
0.26933	12
0.27300	11
0.27667	9
0.28033	7
0.28400	6
0.28767	8
0.29133	12
0.29500	15
0.29867	17
0.30233	16
0.30600	13
0.30967	11
0.31333	10
0.31700	11
0.32067	14
0.32433	18
0.32800	18
0.33167	16
0.33533	16
0.33900	17
0.34267	18
0.34633	20
0.35000	18
0.35367	17
0.35733	16
0.36100	16
0.36467	17
0.36833	17
0.37200	17
0.37567	16
0.37933	15
0.38300	15
0.38667	15
0.39033	17
0.39400	18
0.39767	18
0.40133	19
0.40500	19
0.40867	19
0.41233	19
0.41600	19
0.41967	19
0.42333	19
0.42700	19
0.43067	19
0.43433	20
0.43800	22
0.44167	23
0.44533	22
0.44900	19
0.45267	17
0.45633	15
0.46000	15
0.46367	14
0.46733	16
0.47100	19
0.47467	19
0.47833	19
0.48200	19
0.48567	19
0.48933	20
0.49300	20
0.49667	20
0.50033	20
0.50400	19
0.50767	20
0.51133	22
0.51500	23
0.51867	24
0.52233	26
0.52600	26
0.52967	23
0.53333	22
0.53700	21
0.54067	21
0.54433	22
0.54800	23
0.55167	25
0.55533	27
0.55900	27
0.56267	28
0.56633	26
0.57000	24
0.57367	24
0.57733	24
0.58100	24
0.58467	25
0.58833	27
0.59200	25
0.59567	24
0.59933	24
0.60300	26
0.60667	27
0.61033	25
0.61400	22
0.61767	23
0.62133	23
0.62500	23
0.62867	24
0.63233	24
0.63600	25
0.63967	25
0.64333	26
0.64700	27
0.65067	27
0.65433	26
0.65800	24
0.66167	23
0.66533	24
0.66900	24
0.67267	27
0.67633	27
0.68000	27
0.68367	29
0.68733	31
0.69100	29
0.69467	30
0.69833	31
0.70200	31
0.70567	28
0.70933	24
0.71300	23
0.71667	22
0.72033	22
0.72400	21
0.72767	24
0.73133	26
0.73500	28
0.73867	30
0.74233	32
0.74600	31
0.74967	29
0.75333	28
0.75700	29
0.76067	29
0.76433	29
0.76800	28
0.77167	28
0.77533	29
0.77900	32
0.78267	36
0.78633	37
0.79000	37
0.79367	34
0.79733	31
0.80100	29
0.80467	27
0.80833	26
0.81200	23
0.81567	23
0.81933	24
0.82300	25
0.82667	26
0.83033	25
0.83400	26
0.83767	27
0.84133	31
0.84500	33
0.84867	33
0.85233	34
0.85600	35
0.85967	35
0.86333	35
0.86700	32
0.87067	29
0.87433	28
0.87800	26
0.88167	26
0.88533	28
0.88900	29
0.89267	30
0.89633	31
0.90000	32
0.90367	31
0.90733	31
0.91100	31
0.91467	30
0.91833	30
0.92200	31
0.92567	31
0.92933	31
0.93300	31
0.93667	33
0.94033	32
0.94400	31
0.94767	30
0.95133	30
0.95500	30
0.95867	32
0.96233	34
0.96600	34
0.96967	36
0.97333	36
0.97700	37
0.98067	35
0.98433	34
0.98800	34
0.99167	32
0.99533	33
0.99900	32
1.00267	31
1.00633	29
1.01000	29
1.01367	29
1.01733	29
1.02100	29
1.02467	31
1.02833	34
1.03200	37
1.03567	36
1.03933	35
1.04300	35
1.04667	34
1.05033	33
1.05400	32
1.05767	31
1.06133	32
1.06500	32
1.06867	31
1.07233	31
1.07600	33
1.07967	34
1.08333	31
1.08700	27
1.09067	27
1.09433	27
1.09800	27
1.10167	29
1.10533	34
1.10900	36
1.11267	36
1.11633	37
1.12000	35
1.12367	33
1.12733	33
1.13100	35
1.13467	33
1.13833	32
1.14200	32
1.14567	31
1.14933	32
1.15300	32
1.15667	33
1.16033	32
1.16400	32
1.16767	34
1.17133	33
1.17500	32
1.17867	33
1.18233	33
1.18600	33
1.18967	32
1.19333	30
1.19700	29
1.20067	29
1.20433	29
1.20800	30
1.21167	31
1.21533	30
1.21900	28
1.22267	30
1.22633	33
1.23000	32
1.23367	33
1.23733	34
1.24100	36
1.24467	35
1.24833	33
1.25200	31
1.25567	30
1.25933	29
1.26300	28
1.26667	30
1.27033	32
1.27400	33
1.27767	32
1.28133	31
1.28500	30
1.28867	29
1.29233	29
1.29600	30
1.29967	27
1.30333	25
1.30700	26
1.31067	28
1.31433	29
1.31800	31
1.32167	33
1.32533	34
1.32900	34
1.33267	34
1.33633	31
1.34000	31
1.34367	32
1.34733	31
1.35100	31
1.35467	30
1.35833	30
1.36200	33
1.36567	36
1.36933	37
1.37300	38
1.37667	36
1.38033	35
1.38400	33
1.38767	32
1.39133	33
1.39500	31
1.39867	28
1.40233	27
1.40600	28
1.40967	30
1.41333	29
1.41700	30
1.42067	33
1.42433	35
1.42800	37
1.43167	39
1.43533	38
1.43900	38
1.44267	37
1.44633	38
1.45000	38
1.45367	36
1.45733	34
1.46100	31
1.46467	31
1.46833	32
1.47200	33
1.47567	34
1.47933	34
1.48300	36
1.48667	38
1.49033	38
1.49400	36
1.49767	33
1.50133	32
1.50500	35
1.50867	36
1.51233	35
1.51600	34
1.51967	32
1.52333	32
1.52700	31
1.53067	30
1.53433	30
1.53800	32
1.54167	33
1.54533	35
1.54900	35
1.55267	34
1.55633	34
1.56000	31
1.56367	29
1.56733	28
1.57100	27
1.57467	27
1.57833	28
1.58200	27
1.58567	26
1.58933	27
1.59300	30
1.59667	30
1.60033	30
1.60400	30
1.60767	30
1.61133	30
1.61500	30
1.61867	32
1.62233	32
1.62600	30
1.62967	30
1.63333	31
1.63700	31
1.64067	32
1.64433	32
1.64800	33
1.65167	35
1.65533	35
1.65900	36
1.66267	38
1.66633	38
1.67000	38
1.67367	39
1.67733	40
1.68100	41
1.68467	42
1.68833	44
1.69200	45
1.69567	45
1.69933	41
1.70300	39
1.70667	39
1.71033	40
1.71400	42
1.71767	43
1.72133	44
1.72500	43
1.72867	43
1.73233	44
1.73600	44
1.73967	44
1.74333	45
1.74700	48
1.75067	47
1.75433	45
1.75800	43
1.76167	43
1.76533	43
1.76900	43
1.77267	44
1.77633	47
1.78000	49
1.78367	50
1.78733	50
1.79100	49
1.79467	50
1.79833	53
1.80200	55
1.80567	57
1.80933	60
1.81300	60
1.81667	59
1.82033	59
1.82400	61
1.82767	62
1.83133	61
1.83500	62
1.83867	64
1.84233	66
1.84600	67
1.84967	67
1.85333	66
1.85700	65
1.86067	64
1.86433	65
1.86800	65
1.87167	64
1.87533	64
1.87900	65
1.88267	67
1.88633	67
1.89000	68
1.89367	69
1.89733	68
1.90100	69
1.90467	70
1.90833	70
1.91200	67
1.91567	65
1.91933	64
1.92300	63
1.92667	62
1.93033	64
1.93400	64
1.93767	64
1.94133	68
1.94500	73
1.94867	75
1.95233	75
1.95600	77
1.95967	77
1.96333	78
1.96700	78
1.97067	77
1.97433	77
1.97800	76
1.98167	75
1.98533	77
1.98900	77
1.99267	77
1.99633	77
2.00000	79
2.00367	82
2.00733	82
2.01100	81
2.01467	81
2.01833	82
2.02200	84
2.02567	86
2.02933	88
2.03300	89
2.03667	89
2.04033	86
2.04400	84
2.04767	84
2.05133	85
2.05500	87
2.05867	90
2.06233	93
2.06600	94
2.06967	94
2.07333	94
2.07700	95
2.08067	94
2.08433	95
2.08800	96
2.09167	95
2.09533	95
2.09900	96
2.10267	98
2.10633	101
2.11000	104
2.11367	104
2.11733	105
2.12100	104
2.12467	102
2.12833	102
2.13200	102
2.13567	101
2.13933	99
2.14300	99
2.14667	100
2.15033	101
2.15400	102
2.15767	106
2.16133	107
2.16500	107
2.16867	105
2.17233	104
2.17600	104
2.17967	105
2.18333	107
2.18700	109
2.19067	111
2.19433	113
2.19800	114
2.20167	116
2.20533	114
2.20900	113
2.21267	112
2.21633	112
2.22000	113
2.22367	116
2.22733	119
2.23100	122
2.23467	124
2.23833	124
2.24200	123
2.24567	124
2.24933	125
2.25300	124
2.25667	125
2.26033	125
2.26400	126
2.26767	126
2.27133	123
2.27500	120
2.27867	119
2.28233	120
2.28600	125
2.28967	129
2.29333	129
2.29700	128
2.30067	126
2.30433	126
2.30800	130
2.31167	133
2.31533	136
2.31900	138
2.32267	137
2.32633	134
2.33000	135
2.33367	137
2.33733	137
2.34100	138
2.34467	139
2.34833	139
2.35200	139
2.35567	140
2.35933	141
2.36300	143
2.36667	143
2.37033	144
2.37400	146
2.37767	147
2.38133	147
2.38500	146
2.38867	146
2.39233	149
2.39600	151
2.39967	151
2.40333	149
2.40700	148
2.41067	147
2.41433	149
2.41800	150
2.42167	152
2.42533	153
2.42900	154
2.43267	157
2.43633	159
2.44000	162
2.44367	169
2.44733	190
2.45100	212
2.45467	232
2.45833	245
2.46200	246
2.46567	245
2.46933	243
2.47300	241
2.47667	238
2.48033	234
2.48400	228
2.48767	223
2.49133	219
2.49500	211
2.49867	204
2.50233	200
2.50600	198
2.50967	198
2.51333	199
2.51700	200
2.52067	200
2.52433	201
2.52800	201
2.53167	199
2.53533	196
2.53900	193
2.54267	188
2.54633	183
2.55000	179
2.55367	177
2.55733	177
2.56100	175
2.56467	173
2.56833	172
2.57200	173
2.57567	173
2.57933	170
2.58300	166
2.58667	164
2.59033	164
2.59400	162
2.59767	161
2.60133	158
2.60500	151
2.60867	137
2.61233	120
2.61600	97
2.61967	70
2.62333	41
2.62700	11
2.63067	-17
2.63433	-43
2.63800	-65
2.64167	-82
2.64533	-94
2.64900	-105
2.65267	-117
2.65633	-125
2.66000	-123
2.66367	-111
2.66733	-90
2.67100	-62
2.67467	-28
2.67833	12
2.68200	54
2.68567	96
2.68933	131
2.69300	160
2.69667	183
2.70033	204
2.70400	228
2.70767	253
2.71133	278
2.71500	308
2.71867	338
2.72233	367
2.72600	394
2.72967	421
2.73333	448
2.73700	472
2.74067	495
2.74433	516
2.74800	534
2.75167	550
2.75533	564
2.75900	574
2.76267	584
2.76633	595
2.77000	606
2.77367	618
2.77733	629
2.78100	638
2.78467	643
2.78833	647
2.79200	651
2.79567	655
2.79933	661
2.80300	664
2.80667	667
2.81033	670
2.81400	672
2.81767	674
2.82133	677
2.82500	680
2.82867	691
2.83233	720
2.83600	782
2.83967	898
2.84333	1100
2.84700	1408
2.85067	1834
2.85433	2375
2.85800	3009
2.86167	3695
2.86533	4379
2.86900	5011
2.87267	5541
2.87633	5927
2.88000	6150
2.88367	6205
2.88733	6106
2.89100	5884
2.89467	5576
2.89833	5210
2.90200	4811
2.90567	4403
2.90933	4005
2.91300	3627
2.91667	3271
2.92033	2946
2.92400	2655
2.92767	2396
2.93133	2166
2.93500	1963
2.93867	1783
2.94233	1624
2.94600	1488
2.94967	1370
2.95333	1267
2.95700	1180
2.96067	1105
2.96433	1038
2.96800	979
2.97167	930
2.97533	887
2.97900	850
2.98267	819
2.98633	790
2.99000	767
2.99367	748
2.99733	731
3.00100	717
3.00467	703
3.00833	692
3.01200	683
3.01567	673
3.01933	665
3.02300	658
3.02667	651
3.03033	645
3.03400	640
3.03767	637
3.04133	631
3.04500	626
3.04867	623
3.05233	621
3.05600	618
3.05967	616
3.06333	613
3.06700	609
3.07067	607
3.07433	608
3.07800	610
3.08167	609
3.08533	606
3.08900	604
3.09267	603
3.09633	602
3.10000	600
3.10367	598
3.10733	597
3.11100	595
3.11467	594
3.11833	592
3.12200	591
3.12567	591
3.12933	591
3.13300	592
3.13667	592
3.14033	590
3.14400	588
3.14767	586
3.15133	583
3.15500	581
3.15867	579
3.16233	578
3.16600	578
3.16967	579
3.17333	580
3.17700	582
3.18067	582
3.18433	581
3.18800	580
3.19167	580
3.19533	579
3.19900	579
3.20267	581
3.20633	581
3.21000	581
3.21367	581
3.21733	580
3.22100	579
3.22467	575
3.22833	574
3.23200	575
3.23567	574
3.23933	573
3.24300	573
3.24667	571
3.25033	569
3.25400	567
3.25767	566
3.26133	563
3.26500	559
3.26867	554
3.27233	550
3.27600	548
3.27967	546
3.28333	546
3.28700	548
3.29067	545
3.29433	542
3.29800	538
3.30167	533
3.30533	528
3.30900	524
3.31267	522
3.31633	520
3.32000	516
3.32367	511
3.32733	506
3.33100	504
3.33467	503
3.33833	502
3.34200	502
3.34567	501
3.34933	500
3.35300	496
3.35667	494
3.36033	491
3.36400	488
3.36767	484
3.37133	479
3.37500	474
3.37867	471
3.38233	469
3.38600	468
3.38967	466
3.39333	464
3.39700	462
3.40067	458
3.40433	456
3.40800	455
3.41167	453
3.41533	452
3.41900	450
3.42267	449
3.42633	448
3.43000	447
3.43367	445
3.43733	443
3.44100	442
3.44467	438
3.44833	433
3.45200	429
3.45567	425
3.45933	424
3.46300	425
3.46667	425
3.47033	421
3.47400	418
3.47767	415
3.48133	413
3.48500	412
3.48867	410
3.49233	409
3.49600	407
3.49967	405
3.50333	403
3.50700	401
3.51067	397
3.51433	397
3.51800	397
3.52167	396
3.52533	395
3.52900	392
3.53267	391
3.53633	391
3.54000	390
3.54367	389
3.54733	387
3.55100	385
3.55467	381
3.55833	375
3.56200	369
3.56567	364
3.56933	363
3.57300	363
3.57667	363
3.58033	361
3.58400	359
3.58767	355
3.59133	354
3.59500	353
3.59867	353
3.60233	353
3.60600	352
3.60967	350
3.61333	348
3.61700	347
3.62067	346
3.62433	345
3.62800	345
3.63167	346
3.63533	345
3.63900	342
3.64267	339
3.64633	339
3.65000	341
3.65367	341
3.65733	340
3.66100	337
3.66467	331
3.66833	326
3.67200	323
3.67567	324
3.67933	327
3.68300	326
3.68667	323
3.69033	322
3.69400	320
3.69767	317
3.70133	314
3.70500	313
3.70867	312
3.71233	312
3.71600	313
3.71967	312
3.72333	312
3.72700	313
3.73067	313
3.73433	313
3.73800	311
3.74167	307
3.74533	306
3.74900	305
3.75267	302
3.75633	299
3.76000	296
3.76367	294
3.76733	292
3.77100	292
3.77467	293
3.77833	293
3.78200	292
3.78567	290
3.78933	286
3.79300	285
3.79667	284
3.80033	282
3.80400	281
3.80767	280
3.81133	281
3.81500	282
3.81867	282
3.82233	279
3.82600	278
3.82967	277
3.83333	274
3.83700	272
3.84067	274
3.84433	274
3.84800	274
3.85167	275
3.85533	273
3.85900	271
3.86267	270
3.86633	270
3.87000	272
3.87367	272
3.87733	271
3.88100	269
3.88467	267
3.88833	266
3.89200	266
3.89567	264
3.89933	262
3.90300	263
3.90667	263
3.91033	262
3.91400	260
3.91767	260
3.92133	260
3.92500	258
3.92867	255
3.93233	252
3.93600	249
3.93967	248
3.94333	248
3.94700	248
3.95067	246
3.95433	246
3.95800	248
3.96167	249
3.96533	248
3.96900	249
3.97267	247
3.97633	246
3.98000	248
3.98367	247
3.98733	246
3.99100	246
3.99467	246
3.99833	245

[Status Trace (Column Oven Temperature)]
Interval(msec)	1000
# of Points	240
Start Time(min)	0.013
End Time(min)	3.997
Intensity Units	
Intensity Multiplier	1
R.Time (min)	Intensity
0.01345	35.01
0.03012	35.01
0.04678	35.00
0.06345	35.00
0.08012	34.99
0.09678	34.99
0.11345	34.99
0.13012	35.00
0.14678	35.01
0.16345	35.02
0.18012	35.03
0.19678	35.03
0.21345	35.03
0.23012	35.02
0.24678	35.02
0.26345	35.02
0.28012	35.02
0.29678	35.03
0.31345	35.04
0.33012	35.05
0.34678	35.05
0.36345	35.03
0.38012	35.02
0.39678	35.00
0.41345	35.00
0.43012	34.99
0.44678	34.97
0.46345	34.95
0.48012	34.95
0.49678	34.96
0.51345	34.97
0.53012	34.98
0.54678	34.98
0.56345	34.97
0.58012	34.98
0.59678	34.99
0.61345	34.99
0.63012	34.97
0.64678	34.97
0.66345	34.98
0.68012	34.99
0.69678	35.00
0.71345	35.01
0.73012	35.01
0.74678	35.01
0.76345	35.00
0.78012	35.00
0.79678	34.99
0.81345	34.98
0.83012	34.99
0.84678	34.98
0.86345	34.97
0.88012	34.98
0.89678	35.00
0.91345	35.01
0.93012	35.02
0.94678	35.00
0.96345	35.00
0.98012	35.00
0.99678	34.99
1.01345	35.00
1.03012	35.01
1.04678	35.01
1.06345	35.01
1.08012	35.01
1.09678	35.01
1.11345	35.01
1.13012	34.99
1.14678	34.98
1.16345	34.97
1.18012	34.96
1.19678	34.97
1.21345	34.98
1.23012	34.97
1.24678	34.98
1.26345	34.98
1.28012	34.99
1.29678	34.99
1.31345	34.99
1.33012	34.98
1.34678	35.00
1.36345	35.00
1.38012	35.00
1.39678	34.99
1.41345	34.98
1.43012	34.98
1.44678	34.99
1.46345	35.00
1.48012	35.00
1.49678	35.01
1.51345	35.02
1.53012	35.01
1.54678	35.01
1.56345	34.99
1.58012	34.99
1.59678	35.00
1.61345	35.08
1.63012	35.22
1.64678	35.42
1.66345	35.70
1.68012	36.06
1.69678	36.43
1.71345	36.77
1.73012	37.11
1.74678	37.44
1.76345	37.79
1.78012	38.11
1.79678	38.43
1.81345	38.77
1.83012	39.09
1.84678	39.42
1.86345	39.76
1.88012	40.11
1.89678	40.43
1.91345	40.74
1.93012	41.07
1.94678	41.39
1.96345	41.73
1.98012	42.05
1.99678	42.37
2.01345	42.70
2.03012	43.03
2.04678	43.34
2.06345	43.66
2.08012	44.00
2.09678	44.31
2.11345	44.63
2.13012	44.98
2.14678	45.30
2.16345	45.64
2.18012	45.95
2.19678	46.30
2.21345	46.63
2.23012	46.97
2.24678	47.27
2.26345	47.62
2.28012	47.93
2.29678	48.28
2.31345	48.61
2.33012	48.94
2.34678	49.26
2.36345	49.51
2.38012	49.64
2.39678	49.68
2.41345	49.67
2.43012	49.68
2.44678	49.67
2.46345	49.68
2.48012	49.68
2.49678	49.69
2.51345	49.70
2.53012	49.72
2.54678	49.72
2.56345	49.75
2.58012	49.76
2.59678	49.78
2.61345	49.82
2.63012	49.82
2.64678	49.83
2.66345	49.84
2.68012	49.85
2.69678	49.88
2.71345	49.88
2.73012	49.86
2.74678	49.85
2.76345	49.85
2.78012	49.86
2.79678	49.88
2.81345	49.89
2.83012	49.90
2.84678	49.89
2.86345	49.90
2.88012	49.91
2.89678	49.91
2.91345	49.93
2.93012	49.95
2.94678	49.98
2.96345	49.98
2.98012	49.98
2.99678	49.98
3.01345	50.00
3.03012	50.01
3.04678	50.03
3.06345	50.04
3.08012	50.04
3.09678	50.06
3.11345	50.07
3.13012	50.07
3.14678	50.07
3.16345	50.07
3.18012	50.08
3.19678	50.08
3.21345	50.10
3.23012	50.12
3.24678	50.13
3.26345	50.11
3.28012	50.11
3.29678	50.10
3.31345	50.08
3.33012	50.06
3.34678	50.04
3.36345	50.02
3.38012	50.00
3.39678	50.00
3.41345	49.99
3.43012	49.97
3.44678	49.97
3.46345	49.97
3.48012	49.98
3.49678	49.98
3.51345	49.98
3.53012	49.99
3.54678	49.99
3.56345	49.99
3.58012	50.00
3.59678	50.01
3.61345	50.03
3.63012	50.03
3.64678	50.03
3.66345	50.04
3.68012	50.04
3.69678	50.06
3.71345	50.07
3.73012	50.07
3.74678	50.06
3.76345	50.06
3.78012	50.05
3.79678	50.05
3.81345	50.05
3.83012	50.04
3.84678	50.04
3.86345	50.03
3.88012	50.04
3.89678	50.03
3.91345	50.03
3.93012	50.04
3.94678	50.04
3.96345	50.04
3.98012	50.04
3.99678	50.04

[Status Trace (Injection Unit Temperature)]
Interval(msec)	1000
# of Points	240
Start Time(min)	0.013
End Time(min)	3.997
Intensity Units	
Intensity Multiplier	1
R.Time (min)	Intensity
0.01345	99.99
0.03012	99.98
0.04678	99.98
0.06345	99.98
0.08012	99.98
0.09678	99.98
0.11345	99.98
0.13012	99.98
0.14678	99.98
0.16345	99.98
0.18012	99.98
0.19678	99.98
0.21345	99.98
0.23012	99.98
0.24678	99.98
0.26345	99.98
0.28012	99.98
0.29678	99.99
0.31345	99.98
0.33012	99.98
0.34678	99.99
0.36345	99.98
0.38012	99.98
0.39678	99.98
0.41345	99.98
0.43012	99.98
0.44678	99.98
0.46345	99.98
0.48012	99.98
0.49678	99.99
0.51345	99.98
0.53012	99.98
0.54678	99.99
0.56345	99.98
0.58012	99.98
0.59678	99.99
0.61345	99.99
0.63012	99.99
0.64678	99.99
0.66345	99.99
0.68012	99.99
0.69678	99.99
0.71345	99.98
0.73012	99.99
0.74678	99.98
0.76345	99.99
0.78012	99.99
0.79678	99.99
0.81345	99.99
0.83012	99.99
0.84678	99.99
0.86345	99.99
0.88012	99.99
0.89678	99.99
0.91345	99.99
0.93012	99.99
0.94678	99.99
0.96345	99.99
0.98012	99.99
0.99678	99.99
1.01345	99.99
1.03012	99.99
1.04678	99.99
1.06345	99.99
1.08012	99.99
1.09678	99.99
1.11345	99.99
1.13012	99.99
1.14678	99.99
1.16345	99.99
1.18012	99.99
1.19678	99.99
1.21345	99.99
1.23012	99.99
1.24678	99.99
1.26345	99.99
1.28012	99.99
1.29678	99.99
1.31345	99.99
1.33012	99.99
1.34678	99.99
1.36345	99.99
1.38012	99.99
1.39678	99.99
1.41345	99.99
1.43012	100.00
1.44678	99.99
1.46345	99.99
1.48012	99.99
1.49678	99.99
1.51345	99.99
1.53012	99.99
1.54678	99.99
1.56345	99.99
1.58012	99.99
1.59678	99.99
1.61345	99.99
1.63012	99.99
1.64678	99.99
1.66345	99.99
1.68012	99.99
1.69678	99.99
1.71345	99.99
1.73012	99.99
1.74678	99.99
1.76345	99.99
1.78012	99.99
1.79678	99.98
1.81345	99.99
1.83012	99.99
1.84678	99.99
1.86345	99.99
1.88012	99.98
1.89678	99.98
1.91345	99.98
1.93012	99.98
1.94678	99.98
1.96345	99.98
1.98012	99.98
1.99678	99.97
2.01345	99.98
2.03012	99.98
2.04678	99.98
2.06345	99.97
2.08012	99.97
2.09678	99.98
2.11345	99.97
2.13012	99.98
2.14678	99.98
2.16345	99.98
2.18012	99.98
2.19678	99.97
2.21345	99.98
2.23012	99.97
2.24678	99.98
2.26345	99.97
2.28012	99.97
2.29678	99.98
2.31345	99.98
2.33012	99.98
2.34678	99.97
2.36345	99.97
2.38012	99.98
2.39678	99.98
2.41345	99.98
2.43012	99.98
2.44678	99.98
2.46345	99.98
2.48012	99.98
2.49678	99.98
2.51345	99.98
2.53012	99.98
2.54678	99.98
2.56345	99.99
2.58012	99.98
2.59678	99.98
2.61345	99.98
2.63012	99.99
2.64678	99.99
2.66345	99.99
2.68012	99.99
2.69678	99.99
2.71345	99.99
2.73012	99.99
2.74678	100.00
2.76345	99.99
2.78012	100.00
2.79678	100.00
2.81345	100.00
2.83012	99.99
2.84678	100.00
2.86345	100.00
2.88012	100.00
2.89678	100.00
2.91345	100.00
2.93012	100.01
2.94678	100.01
2.96345	100.01
2.98012	100.01
2.99678	100.01
3.01345	100.01
3.03012	100.01
3.04678	100.02
3.06345	100.01
3.08012	100.01
3.09678	100.02
3.11345	100.02
3.13012	100.02
3.14678	100.02
3.16345	100.02
3.18012	100.02
3.19678	100.02
3.21345	100.02
3.23012	100.02
3.24678	100.03
3.26345	100.03
3.28012	100.03
3.29678	100.03
3.31345	100.03
3.33012	100.03
3.34678	100.03
3.36345	100.03
3.38012	100.03
3.39678	100.03
3.41345	100.04
3.43012	100.04
3.44678	100.04
3.46345	100.04
3.48012	100.04
3.49678	100.04
3.51345	100.04
3.53012	100.04
3.54678	100.04
3.56345	100.04
3.58012	100.05
3.59678	100.05
3.61345	100.04
3.63012	100.05
3.64678	100.05
3.66345	100.05
3.68012	100.05
3.69678	100.05
3.71345	100.05
3.73012	100.05
3.74678	100.05
3.76345	100.05
3.78012	100.05
3.79678	100.05
3.81345	100.06
3.83012	100.05
3.84678	100.05
3.86345	100.06
3.88012	100.05
3.89678	100.06
3.91345	100.06
3.93012	100.05
3.94678	100.05
3.96345	100.05
3.98012	100.06
3.99678	100.06

[Status Trace (Carrier Gas Pressure)]
Interval(msec)	1000
# of Points	240
Start Time(min)	0.013
End Time(min)	3.997
Intensity Units	
Intensity Multiplier	1
R.Time (min)	Intensity
0.01345	57.95
0.03012	55.25
0.04678	57.86
0.06345	59.75
0.08012	58.83
0.09678	57.98
0.11345	57.99
0.13012	58.01
0.14678	58.01
0.16345	58.00
0.18012	58.00
0.19678	58.00
0.21345	58.00
0.23012	58.00
0.24678	58.00
0.26345	58.00
0.28012	58.00
0.29678	58.00
0.31345	58.00
0.33012	58.00
0.34678	58.00
0.36345	58.00
0.38012	58.00
0.39678	58.00
0.41345	58.00
0.43012	58.00
0.44678	58.00
0.46345	58.00
0.48012	58.00
0.49678	58.00
0.51345	58.00
0.53012	58.00
0.54678	58.00
0.56345	58.00
0.58012	58.00
0.59678	58.00
0.61345	58.00
0.63012	58.00
0.64678	58.00
0.66345	58.00
0.68012	58.00
0.69678	58.00
0.71345	58.00
0.73012	58.00
0.74678	58.00
0.76345	58.00
0.78012	58.00
0.79678	58.00
0.81345	58.00
0.83012	58.00
0.84678	58.00
0.86345	58.00
0.88012	58.00
0.89678	58.00
0.91345	58.00
0.93012	58.00
0.94678	58.00
0.96345	58.00
0.98012	58.00
0.99678	58.00
1.01345	58.00
1.03012	58.00
1.04678	58.00
1.06345	58.00
1.08012	58.00
1.09678	58.00
1.11345	58.00
1.13012	58.00
1.14678	58.00
1.16345	58.00
1.18012	58.00
1.19678	58.00
1.21345	58.00
1.23012	58.00
1.24678	58.00
1.26345	58.00
1.28012	58.00
1.29678	58.00
1.31345	58.00
1.33012	58.00
1.34678	58.00
1.36345	58.00
1.38012	58.00
1.39678	58.00
1.41345	58.00
1.43012	58.00
1.44678	58.00
1.46345	58.00
1.48012	58.00
1.49678	58.00
1.51345	58.00
1.53012	58.00
1.54678	58.00
1.56345	58.00
1.58012	58.00
1.59678	58.00
1.61345	58.00
1.63012	58.01
1.64678	58.00
1.66345	58.00
1.68012	58.01
1.69678	58.00
1.71345	58.00
1.73012	58.00
1.74678	58.00
1.76345	58.00
1.78012	58.00
1.79678	58.00
1.81345	58.00
1.83012	58.00
1.84678	58.00
1.86345	58.00
1.88012	58.00
1.89678	58.00
1.91345	58.00
1.93012	58.00
1.94678	58.00
1.96345	58.00
1.98012	58.00
1.99678	58.00
2.01345	58.00
2.03012	58.00
2.04678	58.00
2.06345	58.00
2.08012	58.00
2.09678	58.00
2.11345	58.00
2.13012	58.00
2.14678	58.00
2.16345	58.00
2.18012	58.00
2.19678	58.00
2.21345	58.00
2.23012	58.00
2.24678	58.00
2.26345	58.00
2.28012	58.00
2.29678	58.00
2.31345	58.00
2.33012	58.00
2.34678	58.00
2.36345	58.00
2.38012	57.99
2.39678	57.99
2.41345	58.00
2.43012	58.00
2.44678	58.00
2.46345	58.00
2.48012	58.00
2.49678	58.00
2.51345	57.99
2.53012	57.99
2.54678	58.00
2.56345	58.00
2.58012	58.00
2.59678	58.00
2.61345	58.00
2.63012	58.00
2.64678	58.00
2.66345	58.00
2.68012	58.00
2.69678	58.00
2.71345	58.00
2.73012	58.00
2.74678	58.00
2.76345	58.00
2.78012	58.00
2.79678	58.00
2.81345	58.00
2.83012	58.00
2.84678	58.00
2.86345	58.00
2.88012	58.00
2.89678	58.00
2.91345	58.00
2.93012	58.00
2.94678	58.00
2.96345	58.00
2.98012	58.00
2.99678	58.00
3.01345	58.00
3.03012	58.00
3.04678	58.00
3.06345	58.00
3.08012	58.00
3.09678	58.00
3.11345	58.00
3.13012	58.00
3.14678	58.00
3.16345	58.00
3.18012	58.00
3.19678	58.00
3.21345	58.00
3.23012	58.00
3.24678	58.00
3.26345	58.00
3.28012	58.00
3.29678	58.00
3.31345	58.00
3.33012	58.00
3.34678	58.00
3.36345	58.00
3.38012	58.00
3.39678	58.00
3.41345	58.00
3.43012	58.00
3.44678	58.00
3.46345	58.00
3.48012	58.00
3.49678	58.00
3.51345	58.00
3.53012	58.00
3.54678	58.00
3.56345	58.00
3.58012	58.00
3.59678	58.00
3.61345	58.00
3.63012	58.00
3.64678	58.00
3.66345	58.00
3.68012	58.00
3.69678	58.00
3.71345	58.00
3.73012	58.00
3.74678	58.00
3.76345	58.00
3.78012	58.00
3.79678	58.00
3.81345	58.00
3.83012	58.00
3.84678	58.00
3.86345	58.00
3.88012	58.00
3.89678	58.00
3.91345	58.00
3.93012	58.00
3.94678	58.00
3.96345	58.00
3.98012	58.00
3.99678	58.00

[Status Trace (Carrier Gas Flow)]
Interval(msec)	1000
# of Points	240
Start Time(min)	0.013
End Time(min)	3.997
Intensity Units	
Intensity Multiplier	1
R.Time (min)	Intensity
0.01345	34.65
0.03012	34.54
0.04678	34.54
0.06345	34.53
0.08012	34.50
0.09678	34.52
0.11345	34.52
0.13012	34.52
0.14678	34.52
0.16345	34.52
0.18012	34.52
0.19678	34.52
0.21345	34.52
0.23012	34.52
0.24678	34.52
0.26345	34.52
0.28012	34.52
0.29678	34.52
0.31345	34.52
0.33012	34.52
0.34678	34.52
0.36345	34.52
0.38012	34.52
0.39678	34.52
0.41345	34.52
0.43012	34.52
0.44678	34.52
0.46345	34.52
0.48012	34.52
0.49678	34.52
0.51345	34.52
0.53012	34.52
0.54678	34.52
0.56345	34.52
0.58012	34.52
0.59678	34.52
0.61345	34.52
0.63012	34.52
0.64678	34.52
0.66345	34.52
0.68012	34.52
0.69678	34.52
0.71345	34.52
0.73012	34.52
0.74678	34.52
0.76345	34.52
0.78012	34.52
0.79678	34.52
0.81345	34.52
0.83012	34.52
0.84678	34.52
0.86345	34.52
0.88012	34.52
0.89678	34.52
0.91345	34.52
0.93012	34.52
0.94678	34.52
0.96345	34.52
0.98012	34.52
0.99678	34.52
1.01345	34.52
1.03012	34.52
1.04678	34.52
1.06345	34.52
1.08012	34.52
1.09678	34.52
1.11345	34.52
1.13012	34.52
1.14678	34.52
1.16345	34.52
1.18012	34.52
1.19678	34.52
1.21345	34.52
1.23012	34.52
1.24678	34.52
1.26345	34.52
1.28012	34.52
1.29678	34.52
1.31345	34.52
1.33012	34.52
1.34678	34.52
1.36345	34.52
1.38012	34.52
1.39678	34.52
1.41345	34.52
1.43012	34.52
1.44678	34.52
1.46345	34.52
1.48012	34.52
1.49678	34.52
1.51345	34.52
1.53012	34.52
1.54678	34.52
1.56345	34.52
1.58012	34.52
1.59678	34.52
1.61345	34.52
1.63012	34.52
1.64678	34.52
1.66345	34.52
1.68012	34.52
1.69678	34.52
1.71345	34.52
1.73012	34.52
1.74678	34.52
1.76345	34.52
1.78012	34.52
1.79678	34.52
1.81345	34.52
1.83012	34.52
1.84678	34.52
1.86345	34.52
1.88012	34.52
1.89678	34.52
1.91345	34.52
1.93012	34.52
1.94678	34.52
1.96345	34.52
1.98012	34.52
1.99678	34.52
2.01345	34.52
2.03012	34.52
2.04678	34.52
2.06345	34.52
2.08012	34.52
2.09678	34.52
2.11345	34.52
2.13012	34.52
2.14678	34.52
2.16345	34.52
2.18012	34.52
2.19678	34.52
2.21345	34.52
2.23012	34.52
2.24678	34.52
2.26345	34.52
2.28012	34.52
2.29678	34.52
2.31345	34.52
2.33012	34.52
2.34678	34.52
2.36345	34.52
2.38012	34.52
2.39678	34.52
2.41345	34.52
2.43012	34.52
2.44678	34.52
2.46345	34.52
2.48012	34.52
2.49678	34.52
2.51345	34.51
2.53012	34.52
2.54678	34.52
2.56345	34.52
2.58012	34.52
2.59678	34.52
2.61345	34.52
2.63012	34.52
2.64678	34.52
2.66345	34.52
2.68012	34.52
2.69678	34.52
2.71345	34.52
2.73012	34.52
2.74678	34.52
2.76345	34.52
2.78012	34.52
2.79678	34.52
2.81345	34.52
2.83012	34.52
2.84678	34.52
2.86345	34.52
2.88012	34.52
2.89678	34.52
2.91345	34.52
2.93012	34.52
2.94678	34.52
2.96345	34.52
2.98012	34.52
2.99678	34.52
3.01345	34.52
3.03012	34.52
3.04678	34.52
3.06345	34.52
3.08012	34.52
3.09678	34.52
3.11345	34.52
3.13012	34.52
3.14678	34.52
3.16345	34.51
3.18012	34.52
3.19678	34.51
3.21345	34.52
3.23012	34.52
3.24678	34.52
3.26345	34.52
3.28012	34.52
3.29678	34.52
3.31345	34.52
3.33012	34.52
3.34678	34.52
3.36345	34.52
3.38012	34.52
3.39678	34.52
3.41345	34.52
3.43012	34.52
3.44678	34.52
3.46345	34.52
3.48012	34.52
3.49678	34.52
3.51345	34.52
3.53012	34.52
3.54678	34.52
3.56345	34.52
3.58012	34.52
3.59678	34.52
3.61345	34.52
3.63012	34.52
3.64678	34.52
3.66345	34.52
3.68012	34.52
3.69678	34.52
3.71345	34.52
3.73012	34.52
3.74678	34.52
3.76345	34.52
3.78012	34.52
3.79678	34.52
3.81345	34.52
3.83012	34.52
3.84678	34.52
3.86345	34.52
3.88012	34.52
3.89678	34.52
3.91345	34.52
3.93012	34.52
3.94678	34.52
3.96345	34.52
3.98012	34.52
3.99678	34.52

[Status Trace (Column Flow)]
Interval(msec)	1000
# of Points	240
Start Time(min)	0.013
End Time(min)	3.997
Intensity Units	
Intensity Multiplier	1
R.Time (min)	Intensity
0.01345	5.50
0.03012	5.19
0.04678	5.49
0.06345	5.71
0.08012	5.60
0.09678	5.50
0.11345	5.51
0.13012	5.51
0.14678	5.51
0.16345	5.51
0.18012	5.51
0.19678	5.51
0.21345	5.50
0.23012	5.51
0.24678	5.51
0.26345	5.51
0.28012	5.51
0.29678	5.50
0.31345	5.50
0.33012	5.50
0.34678	5.50
0.36345	5.50
0.38012	5.50
0.39678	5.51
0.41345	5.51
0.43012	5.51
0.44678	5.51
0.46345	5.51
0.48012	5.51
0.49678	5.51
0.51345	5.51
0.53012	5.51
0.54678	5.51
0.56345	5.51
0.58012	5.51
0.59678	5.51
0.61345	5.51
0.63012	5.51
0.64678	5.51
0.66345	5.51
0.68012	5.51
0.69678	5.51
0.71345	5.51
0.73012	5.51
0.74678	5.51
0.76345	5.51
0.78012	5.51
0.79678	5.51
0.81345	5.51
0.83012	5.51
0.84678	5.51
0.86345	5.51
0.88012	5.51
0.89678	5.51
0.91345	5.51
0.93012	5.51
0.94678	5.51
0.96345	5.51
0.98012	5.51
0.99678	5.51
1.01345	5.51
1.03012	5.51
1.04678	5.51
1.06345	5.51
1.08012	5.51
1.09678	5.51
1.11345	5.51
1.13012	5.51
1.14678	5.51
1.16345	5.51
1.18012	5.51
1.19678	5.51
1.21345	5.51
1.23012	5.51
1.24678	5.51
1.26345	5.51
1.28012	5.51
1.29678	5.51
1.31345	5.51
1.33012	5.51
1.34678	5.51
1.36345	5.51
1.38012	5.51
1.39678	5.51
1.41345	5.51
1.43012	5.51
1.44678	5.51
1.46345	5.51
1.48012	5.51
1.49678	5.51
1.51345	5.51
1.53012	5.51
1.54678	5.51
1.56345	5.51
1.58012	5.51
1.59678	5.51
1.61345	5.50
1.63012	5.50
1.64678	5.49
1.66345	5.48
1.68012	5.47
1.69678	5.46
1.71345	5.45
1.73012	5.44
1.74678	5.43
1.76345	5.42
1.78012	5.41
1.79678	5.40
1.81345	5.39
1.83012	5.38
1.84678	5.37
1.86345	5.36
1.88012	5.35
1.89678	5.34
1.91345	5.33
1.93012	5.32
1.94678	5.31
1.96345	5.30
1.98012	5.29
1.99678	5.28
2.01345	5.27
2.03012	5.26
2.04678	5.25
2.06345	5.24
2.08012	5.23
2.09678	5.22
2.11345	5.22
2.13012	5.21
2.14678	5.20
2.16345	5.19
2.18012	5.18
2.19678	5.17
2.21345	5.16
2.23012	5.15
2.24678	5.14
2.26345	5.13
2.28012	5.12
2.29678	5.11
2.31345	5.10
2.33012	5.09
2.34678	5.08
2.36345	5.08
2.38012	5.07
2.39678	5.07
2.41345	5.07
2.43012	5.07
2.44678	5.07
2.46345	5.07
2.48012	5.07
2.49678	5.07
2.51345	5.07
2.53012	5.07
2.54678	5.07
2.56345	5.07
2.58012	5.07
2.59678	5.07
2.61345	5.07
2.63012	5.07
2.64678	5.07
2.66345	5.07
2.68012	5.07
2.69678	5.07
2.71345	5.07
2.73012	5.07
2.74678	5.07
2.76345	5.07
2.78012	5.07
2.79678	5.07
2.81345	5.07
2.83012	5.07
2.84678	5.07
2.86345	5.07
2.88012	5.07
2.89678	5.07
2.91345	5.07
2.93012	5.07
2.94678	5.06
2.96345	5.06
2.98012	5.06
2.99678	5.06
3.01345	5.06
3.03012	5.06
3.04678	5.06
3.06345	5.06
3.08012	5.06
3.09678	5.06
3.11345	5.06
3.13012	5.06
3.14678	5.06
3.16345	5.06
3.18012	5.06
3.19678	5.06
3.21345	5.06
3.23012	5.06
3.24678	5.06
3.26345	5.06
3.28012	5.06
3.29678	5.06
3.31345	5.06
3.33012	5.06
3.34678	5.06
3.36345	5.06
3.38012	5.06
3.39678	5.06
3.41345	5.06
3.43012	5.06
3.44678	5.06
3.46345	5.06
3.48012	5.06
3.49678	5.06
3.51345	5.06
3.53012	5.06
3.54678	5.06
3.56345	5.06
3.58012	5.06
3.59678	5.06
3.61345	5.06
3.63012	5.06
3.64678	5.06
3.66345	5.06
3.68012	5.06
3.69678	5.06
3.71345	5.06
3.73012	5.06
3.74678	5.06
3.76345	5.06
3.78012	5.06
3.79678	5.06
3.81345	5.06
3.83012	5.06
3.84678	5.06
3.86345	5.06
3.88012	5.06
3.89678	5.06
3.91345	5.06
3.93012	5.06
3.94678	5.06
3.96345	5.06
3.98012	5.06
3.99678	5.06

[Status Trace (Linear Velocity)]
Interval(msec)	1000
# of Points	240
Start Time(min)	0.013
End Time(min)	3.997
Intensity Units	
Intensity Multiplier	1
R.Time (min)	Intensity
0.01345	38.98
0.03012	37.21
0.04678	38.92
0.06345	40.16
0.08012	39.56
0.09678	39.00
0.11345	39.01
0.13012	39.02
0.14678	39.02
0.16345	39.01
0.18012	39.01
0.19678	39.01
0.21345	39.01
0.23012	39.01
0.24678	39.01
0.26345	39.01
0.28012	39.01
0.29678	39.01
0.31345	39.01
0.33012	39.01
0.34678	39.01
0.36345	39.01
0.38012	39.01
0.39678	39.01
0.41345	39.01
0.43012	39.02
0.44678	39.02
0.46345	39.02
0.48012	39.02
0.49678	39.02
0.51345	39.02
0.53012	39.02
0.54678	39.01
0.56345	39.02
0.58012	39.02
0.59678	39.01
0.61345	39.01
0.63012	39.02
0.64678	39.02
0.66345	39.02
0.68012	39.01
0.69678	39.01
0.71345	39.01
0.73012	39.01
0.74678	39.01
0.76345	39.01
0.78012	39.01
0.79678	39.01
0.81345	39.01
0.83012	39.01
0.84678	39.01
0.86345	39.02
0.88012	39.02
0.89678	39.01
0.91345	39.01
0.93012	39.01
0.94678	39.01
0.96345	39.01
0.98012	39.01
0.99678	39.01
1.01345	39.01
1.03012	39.01
1.04678	39.01
1.06345	39.01
1.08012	39.01
1.09678	39.01
1.11345	39.01
1.13012	39.01
1.14678	39.01
1.16345	39.02
1.18012	39.02
1.19678	39.02
1.21345	39.02
1.23012	39.02
1.24678	39.02
1.26345	39.01
1.28012	39.01
1.29678	39.01
1.31345	39.01
1.33012	39.01
1.34678	39.01
1.36345	39.01
1.38012	39.01
1.39678	39.01
1.41345	39.01
1.43012	39.02
1.44678	39.01
1.46345	39.01
1.48012	39.01
1.49678	39.01
1.51345	39.01
1.53012	39.01
1.54678	39.01
1.56345	39.01
1.58012	39.01
1.59678	39.01
1.61345	39.01
1.63012	39.00
1.64678	38.98
1.66345	38.95
1.68012	38.92
1.69678	38.88
1.71345	38.84
1.73012	38.81
1.74678	38.78
1.76345	38.75
1.78012	38.72
1.79678	38.69
1.81345	38.66
1.83012	38.62
1.84678	38.59
1.86345	38.56
1.88012	38.53
1.89678	38.50
1.91345	38.47
1.93012	38.44
1.94678	38.41
1.96345	38.38
1.98012	38.35
1.99678	38.32
2.01345	38.29
2.03012	38.26
2.04678	38.23
2.06345	38.20
2.08012	38.17
2.09678	38.14
2.11345	38.11
2.13012	38.08
2.14678	38.05
2.16345	38.02
2.18012	37.99
2.19678	37.96
2.21345	37.93
2.23012	37.90
2.24678	37.87
2.26345	37.84
2.28012	37.81
2.29678	37.78
2.31345	37.75
2.33012	37.72
2.34678	37.69
2.36345	37.67
2.38012	37.66
2.39678	37.65
2.41345	37.66
2.43012	37.66
2.44678	37.66
2.46345	37.66
2.48012	37.66
2.49678	37.66
2.51345	37.65
2.53012	37.65
2.54678	37.65
2.56345	37.65
2.58012	37.65
2.59678	37.65
2.61345	37.65
2.63012	37.64
2.64678	37.64
2.66345	37.64
2.68012	37.64
2.69678	37.64
2.71345	37.64
2.73012	37.64
2.74678	37.64
2.76345	37.64
2.78012	37.64
2.79678	37.64
2.81345	37.64
2.83012	37.64
2.84678	37.64
2.86345	37.64
2.88012	37.64
2.89678	37.64
2.91345	37.64
2.93012	37.63
2.94678	37.63
2.96345	37.63
2.98012	37.63
2.99678	37.63
3.01345	37.63
3.03012	37.63
3.04678	37.63
3.06345	37.63
3.08012	37.63
3.09678	37.62
3.11345	37.62
3.13012	37.62
3.14678	37.62
3.16345	37.62
3.18012	37.62
3.19678	37.62
3.21345	37.62
3.23012	37.62
3.24678	37.62
3.26345	37.62
3.28012	37.62
3.29678	37.62
3.31345	37.62
3.33012	37.62
3.34678	37.63
3.36345	37.63
3.38012	37.63
3.39678	37.63
3.41345	37.63
3.43012	37.63
3.44678	37.63
3.46345	37.63
3.48012	37.63
3.49678	37.63
3.51345	37.63
3.53012	37.63
3.54678	37.63
3.56345	37.63
3.58012	37.63
3.59678	37.63
3.61345	37.63
3.63012	37.63
3.64678	37.63
3.66345	37.63
3.68012	37.62
3.69678	37.62
3.71345	37.62
3.73012	37.62
3.74678	37.62
3.76345	37.62
3.78012	37.62
3.79678	37.62
3.81345	37.62
3.83012	37.63
3.84678	37.63
3.86345	37.63
3.88012	37.63
3.89678	37.63
3.91345	37.63
3.93012	37.63
3.94678	37.63
3.96345	37.63
3.98012	37.63
3.99678	37.63

