[Header]
Application Name	LabSolutions
Version	5.110
Data File Name	C:\Users\User\Desktop\GC Analyses\Jack\UIC Prairie Sampling\9.2.22\220902_052.gcd
Output Date	10/28/2022
Output Time	1:23:54 PM

[File Information]
Type	Data File
Generated	10/26/2022 1:21:28 PM
Generated by	System Administrator
Modified	10/26/2022 1:25:56 PM
Modified by	System Administrator

[Sample Information]
Operator Name	System Administrator
Acquired	10/26/2022 1:21:56 PM
Sample Type	1:Standard
Level	1
Sample Name	220902_UICPrairie
Sample ID	220902_UICPrairie
ISTD Amount1	1
ISTD Amount2	1
ISTD Amount3	1
ISTD Amount4	1
ISTD Amount5	1
ISTD Amount6	1
ISTD Amount7	1
ISTD Amount8	1
ISTD Amount9	1
ISTD Amount10	1
ISTD Amount11	1
ISTD Amount12	1
ISTD Amount13	1
ISTD Amount14	1
ISTD Amount15	1
ISTD Amount16	1
ISTD Amount17	1
ISTD Amount18	1
ISTD Amount19	1
ISTD Amount20	1
ISTD Amount21	1
ISTD Amount22	1
ISTD Amount23	1
ISTD Amount24	1
ISTD Amount25	1
ISTD Amount26	1
ISTD Amount27	1
ISTD Amount28	1
ISTD Amount29	1
ISTD Amount30	1
ISTD Amount31	1
ISTD Amount32	1
Sample Amount	1
Dilution Factor	1
Vial#	1
Injection Volume	1
Injection Count	1
Bar Code	

[Original Files]
Data File	C:\Users\User\Desktop\GC Analyses\Jack\UIC Prairie Sampling\9.2.22\220902_052.gcd
Method File	C:\LabSolutions\Data\GHG_4min_2022\ghg3_togas_w_acet_4 min_new_int.gcm
Batch File	
Report Format File	c:\LabSolutions\System\DEFAULT.lsr

[File Description]


[Configuration]
Instrument Name	C0B7VH3-Instrument1
Instrument #	1
Line #	1
# of Detectors	3
Detector ID	DET#1	DET#2	DET#3
Detector Name	FID	PTCD	ECD
# of Channels	1	1	1

[Peak Table(Ch1)]
# of Peaks	3
Peak#	R.Time	I.Time	F.Time	Area	Height	A/H	Conc.	Mark	ID#	Name	k'	Plate #	Plate Ht.	Tailing	Resolution	Sep.Factor	Area Ratio	Height Ratio	Conc. %	Norm Conc.
1	1.476	1.435	1.538	13070	5856	2.232	100.000	   	1	CO	0.000	8537	17.570	1.278	0.000	0.000	0	0	16.667	16.667
2	1.571	1.538	1.644	4472	2189	2.043	100.000	 V 	2	CH4	0.065	11236	13.350	0.000	1.548	0.000	0	0	16.667	16.667
3	1.996	1.952	2.312	1741957	846984	2.057	400.000	   	3	CO2	0.353	17821	8.417	1.317	7.142	5.462	0	0	66.667	66.667

[Peak Table(Ch2)]
# of Peaks	0

[Peak Table(Ch3)]
# of Peaks	3
Peak#	R.Time	I.Time	F.Time	Area	Height	A/H	Conc.	Mark	ID#	Name	k'	Plate #	Plate Ht.	Tailing	Resolution	Sep.Factor	Area Ratio	Height Ratio	Conc. %	Norm Conc.
1	2.576	2.440	2.660	6797	763	8.909	0.000	   			0.000	2143	69.992	0.000	0.000	0.000	0	0	0.000	0.000
2	2.748	2.660	2.821	3610	403	8.950	0.134	 V 	1	N2O	0.067	163	919.191	0.000	0.318	0.000	0	0	13.408	13.408
3	2.884	2.821	3.217	23313	5393	4.323	0.866	 V 	1	N2O	0.120	12337	12.159	0.000	0.281	1.787	0	0	86.592	86.592

[Compound Results(Ch1)]
# of IDs	6
ID#	Name	R.Time	Area	Height	Conc.	Curve	3rd	2nd	1st	Constant	Area Ratio	Height Ratio	Conc. %	Norm Conc.
1	CO	1.476	13070	5856	100.000	Linear	0.000000e+00	0.000000e+00	1.307042e+002	0.000000e+00	0	0	16.667	16.667
2	CH4	1.571	4472	2189	100.000	Linear	0.000000e+00	0.000000e+00	4.471704e+001	0.000000e+00	0	0	16.667	16.667
3	CO2	1.996	1741957	846984	400.000	Linear	0.000000e+00	0.000000e+00	4.354892e+003	0.000000e+00	0	0	66.667	66.667
4	Ethylene	0.000	0	0	0.000	Linear	0.000000e+00	0.000000e+00	0.000000e+00	0.000000e+00	0	0	0.000	0.000
5	Acetylene	0.000	0	0	0.000	Linear	0.000000e+00	0.000000e+00	0.000000e+00	0.000000e+00	0	0	0.000	0.000
6	Ethane	0.000	0	0	0.000	Linear	0.000000e+00	0.000000e+00	0.000000e+00	0.000000e+00	0	0	0.000	0.000

[Compound Results(Ch2)]
# of IDs	5
ID#	Name	R.Time	Area	Height	Conc.	Curve	3rd	2nd	1st	Constant	Area Ratio	Height Ratio	Conc. %	Norm Conc.
1	Hydrogen	0.000	0	0	0.000	Linear	0.000000e+00	0.000000e+00	0.000000e+00	0.000000e+00	0	0	0.000	0.000
2	Oxygen	0.000	0	0	0.000	Linear	0.000000e+00	0.000000e+00	0.000000e+00	0.000000e+00	0	0	0.000	0.000
3	Nitrogen	0.000	0	0	0.000	Linear	0.000000e+00	0.000000e+00	0.000000e+00	0.000000e+00	0	0	0.000	0.000
4	Methane	0.000	0	0	0.000	Linear	0.000000e+00	0.000000e+00	0.000000e+00	0.000000e+00	0	0	0.000	0.000
5	Carbon Monoxide	0.000	0	0	0.000	Linear	0.000000e+00	0.000000e+00	0.000000e+00	0.000000e+00	0	0	0.000	0.000

[Compound Results(Ch3)]
# of IDs	2
ID#	Name	R.Time	Area	Height	Conc.	Curve	3rd	2nd	1st	Constant	Area Ratio	Height Ratio	Conc. %	Norm Conc.
1	N2O	2.884	26923	5796	1.000	Linear	0.000000e+00	0.000000e+00	2.692290e+004	0.000000e+00	0	0	100.000	100.000
2	SF6	0.000	0	0	0.000	Linear	0.000000e+00	0.000000e+00	0.000000e+00	0.000000e+00	0	0	0.000	0.000

[Group Results(Ch1)]
# of Groups	0

[Group Results(Ch2)]
# of Groups	0

[Group Results(Ch3)]
# of Groups	0

[Chromatogram (Ch1)]
Interval(msec)	220
# of Points	1091
Start Time(min)	0.002
End Time(min)	3.998
R.Time (min)	Intensity
0.00167	1
0.00533	3
0.00900	6
0.01267	6
0.01633	5
0.02000	3
0.02367	3
0.02733	2
0.03100	2
0.03467	1
0.03833	2
0.04200	6
0.04567	7
0.04933	3
0.05300	-1
0.05667	-3
0.06033	-2
0.06400	-5
0.06767	-8
0.07133	-11
0.07500	-13
0.07867	-14
0.08233	-12
0.08600	-5
0.08967	1
0.09333	5
0.09700	3
0.10067	-5
0.10433	-14
0.10800	-19
0.11167	-21
0.11533	-21
0.11900	-19
0.12267	-17
0.12633	-17
0.13000	-20
0.13367	-25
0.13733	-30
0.14100	-34
0.14467	-36
0.14833	-33
0.15200	-23
0.15567	-14
0.15933	-7
0.16300	-6
0.16667	-8
0.17033	-11
0.17400	-11
0.17767	-11
0.18133	-13
0.18500	-17
0.18867	-20
0.19233	-20
0.19600	-15
0.19967	-11
0.20333	-12
0.20700	-15
0.21067	-17
0.21433	-17
0.21800	-13
0.22167	-11
0.22533	-11
0.22900	-13
0.23267	-13
0.23633	-11
0.24000	-11
0.24367	-14
0.24733	-15
0.25100	-15
0.25467	-11
0.25833	-8
0.26200	-7
0.26567	-8
0.26933	-6
0.27300	-8
0.27667	-14
0.28033	-17
0.28400	-17
0.28767	-17
0.29133	-18
0.29500	-20
0.29867	-20
0.30233	-17
0.30600	-11
0.30967	-1
0.31333	2
0.31700	-0
0.32067	-2
0.32433	-1
0.32800	-1
0.33167	-2
0.33533	-5
0.33900	-11
0.34267	-18
0.34633	-21
0.35000	-20
0.35367	-19
0.35733	-15
0.36100	-7
0.36467	2
0.36833	12
0.37200	17
0.37567	15
0.37933	5
0.38300	-11
0.38667	-29
0.39033	-40
0.39400	-44
0.39767	-47
0.40133	-49
0.40500	-50
0.40867	-48
0.41233	-41
0.41600	-34
0.41967	-30
0.42333	-28
0.42700	-30
0.43067	-37
0.43433	-45
0.43800	-50
0.44167	-50
0.44533	-45
0.44900	-40
0.45267	-34
0.45633	-32
0.46000	-30
0.46367	-26
0.46733	-21
0.47100	-16
0.47467	-14
0.47833	-11
0.48200	-9
0.48567	-9
0.48933	-9
0.49300	-9
0.49667	-7
0.50033	-5
0.50400	-5
0.50767	-6
0.51133	-7
0.51500	-9
0.51867	-11
0.52233	-15
0.52600	-15
0.52967	-13
0.53333	-11
0.53700	-10
0.54067	-12
0.54433	-15
0.54800	-17
0.55167	-19
0.55533	-20
0.55900	-21
0.56267	-19
0.56633	-18
0.57000	-20
0.57367	-23
0.57733	-23
0.58100	-20
0.58467	-18
0.58833	-20
0.59200	-23
0.59567	-24
0.59933	-24
0.60300	-25
0.60667	-28
0.61033	-28
0.61400	-26
0.61767	-26
0.62133	-25
0.62500	-21
0.62867	-13
0.63233	-5
0.63600	-1
0.63967	-4
0.64333	-12
0.64700	-21
0.65067	-26
0.65433	-30
0.65800	-30
0.66167	-26
0.66533	-15
0.66900	-4
0.67267	4
0.67633	2
0.68000	-9
0.68367	-21
0.68733	-31
0.69100	-37
0.69467	-42
0.69833	-51
0.70200	-57
0.70567	-62
0.70933	-66
0.71300	-65
0.71667	-61
0.72033	-57
0.72400	-52
0.72767	-49
0.73133	-44
0.73500	-38
0.73867	-31
0.74233	-28
0.74600	-25
0.74967	-25
0.75333	-27
0.75700	-28
0.76067	-27
0.76433	-26
0.76800	-25
0.77167	-25
0.77533	-25
0.77900	-24
0.78267	-22
0.78633	-21
0.79000	-20
0.79367	-16
0.79733	-10
0.80100	-6
0.80467	-10
0.80833	-19
0.81200	-27
0.81567	-30
0.81933	-30
0.82300	-28
0.82667	-25
0.83033	-22
0.83400	-20
0.83767	-21
0.84133	-25
0.84500	-31
0.84867	-36
0.85233	-39
0.85600	-39
0.85967	-36
0.86333	-31
0.86700	-26
0.87067	-24
0.87433	-25
0.87800	-28
0.88167	-32
0.88533	-33
0.88900	-30
0.89267	-27
0.89633	-24
0.90000	-22
0.90367	-22
0.90733	-24
0.91100	-30
0.91467	-35
0.91833	-37
0.92200	-34
0.92567	-30
0.92933	-24
0.93300	-20
0.93667	-21
0.94033	-23
0.94400	-26
0.94767	-27
0.95133	-27
0.95500	-27
0.95867	-30
0.96233	-32
0.96600	-33
0.96967	-33
0.97333	-32
0.97700	-29
0.98067	-29
0.98433	-25
0.98800	-17
0.99167	-9
0.99533	-4
0.99900	-5
1.00267	-10
1.00633	-20
1.01000	-29
1.01367	-35
1.01733	-36
1.02100	-32
1.02467	-27
1.02833	-25
1.03200	-25
1.03567	-28
1.03933	-32
1.04300	-34
1.04667	-32
1.05033	-28
1.05400	-22
1.05767	-17
1.06133	-14
1.06500	-13
1.06867	-14
1.07233	-18
1.07600	-23
1.07967	-29
1.08333	-35
1.08700	-40
1.09067	-40
1.09433	-36
1.09800	-33
1.10167	-31
1.10533	-29
1.10900	-27
1.11267	-28
1.11633	-32
1.12000	-36
1.12367	-40
1.12733	-39
1.13100	-32
1.13467	-26
1.13833	-24
1.14200	-26
1.14567	-31
1.14933	-33
1.15300	-32
1.15667	-30
1.16033	-29
1.16400	-30
1.16767	-32
1.17133	-33
1.17500	-32
1.17867	-28
1.18233	-24
1.18600	-28
1.18967	-39
1.19333	-52
1.19700	-59
1.20067	-62
1.20433	-65
1.20800	-65
1.21167	-61
1.21533	-55
1.21900	-48
1.22267	-46
1.22633	-44
1.23000	-42
1.23367	-42
1.23733	-43
1.24100	-45
1.24467	-46
1.24833	-49
1.25200	-51
1.25567	-49
1.25933	-44
1.26300	-38
1.26667	-34
1.27033	-32
1.27400	-30
1.27767	-29
1.28133	-29
1.28500	-32
1.28867	-36
1.29233	-40
1.29600	-43
1.29967	-44
1.30333	-44
1.30700	-45
1.31067	-45
1.31433	-43
1.31800	-43
1.32167	-44
1.32533	-44
1.32900	-42
1.33267	-40
1.33633	-39
1.34000	-38
1.34367	-39
1.34733	-39
1.35100	-42
1.35467	-45
1.35833	-43
1.36200	-38
1.36567	-35
1.36933	-36
1.37300	-37
1.37667	-36
1.38033	-36
1.38400	-37
1.38767	-39
1.39133	-42
1.39500	-45
1.39867	-50
1.40233	-54
1.40600	-54
1.40967	-51
1.41333	-47
1.41700	-42
1.42067	-39
1.42433	-38
1.42800	-38
1.43167	-37
1.43533	-35
1.43900	-21
1.44267	55
1.44633	270
1.45000	662
1.45367	1291
1.45733	2199
1.46100	3252
1.46467	4245
1.46833	5039
1.47200	5575
1.47567	5817
1.47933	5725
1.48300	5292
1.48667	4584
1.49033	3740
1.49400	2909
1.49767	2184
1.50133	1600
1.50500	1153
1.50867	822
1.51233	584
1.51600	415
1.51967	295
1.52333	211
1.52700	157
1.53067	119
1.53433	91
1.53800	76
1.54167	100
1.54533	217
1.54900	477
1.55267	857
1.55633	1273
1.56000	1650
1.56367	1939
1.56733	2112
1.57100	2139
1.57467	1999
1.57833	1718
1.58200	1365
1.58567	1016
1.58933	717
1.59300	487
1.59667	321
1.60033	209
1.60400	137
1.60767	91
1.61133	62
1.61500	43
1.61867	27
1.62233	13
1.62600	-2
1.62967	-18
1.63333	-32
1.63700	-43
1.64067	-50
1.64433	-57
1.64800	-61
1.65167	-60
1.65533	-59
1.65900	-57
1.66267	-53
1.66633	-47
1.67000	-44
1.67367	-43
1.67733	-44
1.68100	-47
1.68467	-50
1.68833	-50
1.69200	-44
1.69567	-38
1.69933	-37
1.70300	-41
1.70667	-47
1.71033	-52
1.71400	-56
1.71767	-60
1.72133	-61
1.72500	-59
1.72867	-56
1.73233	-54
1.73600	-53
1.73967	-52
1.74333	-54
1.74700	-55
1.75067	-53
1.75433	-50
1.75800	-46
1.76167	-44
1.76533	-44
1.76900	-42
1.77267	-42
1.77633	-41
1.78000	-38
1.78367	-38
1.78733	-39
1.79100	-40
1.79467	-42
1.79833	-45
1.80200	-48
1.80567	-50
1.80933	-51
1.81300	-51
1.81667	-49
1.82033	-46
1.82400	-45
1.82767	-42
1.83133	-38
1.83500	-32
1.83867	-26
1.84233	-22
1.84600	-22
1.84967	-26
1.85333	-31
1.85700	-33
1.86067	-34
1.86433	-35
1.86800	-35
1.87167	-34
1.87533	-31
1.87900	-25
1.88267	-21
1.88633	-21
1.89000	-25
1.89367	-32
1.89733	-37
1.90100	-41
1.90467	-41
1.90833	-41
1.91200	-41
1.91567	-37
1.91933	-30
1.92300	-23
1.92667	-18
1.93033	-14
1.93400	-12
1.93767	-14
1.94133	-19
1.94500	-24
1.94867	-27
1.95233	-18
1.95600	67
1.95967	618
1.96333	3339
1.96700	13480
1.97067	42294
1.97433	105639
1.97800	214205
1.98167	362026
1.98533	525866
1.98900	676634
1.99267	789229
1.99633	846999
2.00000	842933
2.00367	780849
2.00733	675457
2.01100	548425
2.01467	421363
2.01833	309551
2.02200	219891
2.02567	152686
2.02933	104666
2.03300	71465
2.03667	48991
2.04033	33961
2.04400	23950
2.04767	17268
2.05133	12776
2.05500	9715
2.05867	7591
2.06233	6087
2.06600	4999
2.06967	4194
2.07333	3586
2.07700	3117
2.08067	2744
2.08433	2442
2.08800	2195
2.09167	1986
2.09533	1810
2.09900	1659
2.10267	1528
2.10633	1418
2.11000	1325
2.11367	1245
2.11733	1173
2.12100	1106
2.12467	1043
2.12833	982
2.13200	924
2.13567	872
2.13933	829
2.14300	795
2.14667	767
2.15033	741
2.15400	717
2.15767	694
2.16133	670
2.16500	648
2.16867	629
2.17233	614
2.17600	595
2.17967	574
2.18333	550
2.18700	529
2.19067	507
2.19433	488
2.19800	470
2.20167	455
2.20533	443
2.20900	434
2.21267	427
2.21633	419
2.22000	411
2.22367	404
2.22733	396
2.23100	383
2.23467	370
2.23833	358
2.24200	352
2.24567	348
2.24933	342
2.25300	335
2.25667	331
2.26033	326
2.26400	319
2.26767	311
2.27133	306
2.27500	304
2.27867	304
2.28233	298
2.28600	285
2.28967	272
2.29333	263
2.29700	258
2.30067	256
2.30433	254
2.30800	253
2.31167	254
2.31533	258
2.31900	261
2.32267	265
2.32633	265
2.33000	260
2.33367	251
2.33733	243
2.34100	239
2.34467	238
2.34833	241
2.35200	246
2.35567	250
2.35933	250
2.36300	248
2.36667	240
2.37033	231
2.37400	225
2.37767	222
2.38133	218
2.38500	214
2.38867	212
2.39233	214
2.39600	217
2.39967	220
2.40333	221
2.40700	220
2.41067	218
2.41433	215
2.41800	215
2.42167	217
2.42533	219
2.42900	222
2.43267	222
2.43633	219
2.44000	214
2.44367	209
2.44733	206
2.45100	205
2.45467	206
2.45833	209
2.46200	212
2.46567	213
2.46933	210
2.47300	206
2.47667	202
2.48033	198
2.48400	195
2.48767	194
2.49133	191
2.49500	186
2.49867	183
2.50233	183
2.50600	184
2.50967	186
2.51333	185
2.51700	184
2.52067	182
2.52433	186
2.52800	194
2.53167	203
2.53533	210
2.53900	212
2.54267	212
2.54633	210
2.55000	207
2.55367	203
2.55733	198
2.56100	194
2.56467	189
2.56833	187
2.57200	187
2.57567	189
2.57933	189
2.58300	183
2.58667	173
2.59033	163
2.59400	159
2.59767	161
2.60133	165
2.60500	166
2.60867	166
2.61233	167
2.61600	171
2.61967	177
2.62333	184
2.62700	190
2.63067	191
2.63433	187
2.63800	180
2.64167	173
2.64533	169
2.64900	168
2.65267	171
2.65633	175
2.66000	177
2.66367	179
2.66733	183
2.67100	186
2.67467	187
2.67833	182
2.68200	174
2.68567	168
2.68933	163
2.69300	162
2.69667	161
2.70033	158
2.70400	157
2.70767	157
2.71133	154
2.71500	153
2.71867	156
2.72233	164
2.72600	175
2.72967	184
2.73333	188
2.73700	191
2.74067	191
2.74433	190
2.74800	188
2.75167	185
2.75533	185
2.75900	187
2.76267	189
2.76633	189
2.77000	185
2.77367	179
2.77733	171
2.78100	165
2.78467	161
2.78833	160
2.79200	159
2.79567	164
2.79933	170
2.80300	173
2.80667	172
2.81033	169
2.81400	165
2.81767	158
2.82133	152
2.82500	148
2.82867	149
2.83233	152
2.83600	158
2.83967	168
2.84333	177
2.84700	183
2.85067	187
2.85433	186
2.85800	183
2.86167	181
2.86533	186
2.86900	192
2.87267	193
2.87633	190
2.88000	187
2.88367	186
2.88733	188
2.89100	190
2.89467	189
2.89833	189
2.90200	189
2.90567	193
2.90933	199
2.91300	205
2.91667	204
2.92033	196
2.92400	184
2.92767	173
2.93133	168
2.93500	166
2.93867	167
2.94233	169
2.94600	172
2.94967	175
2.95333	179
2.95700	179
2.96067	176
2.96433	174
2.96800	170
2.97167	165
2.97533	161
2.97900	160
2.98267	160
2.98633	164
2.99000	170
2.99367	178
2.99733	187
3.00100	196
3.00467	199
3.00833	194
3.01200	187
3.01567	179
3.01933	175
3.02300	174
3.02667	180
3.03033	188
3.03400	193
3.03767	191
3.04133	187
3.04500	183
3.04867	182
3.05233	185
3.05600	194
3.05967	202
3.06333	207
3.06700	204
3.07067	197
3.07433	188
3.07800	181
3.08167	176
3.08533	170
3.08900	166
3.09267	165
3.09633	167
3.10000	170
3.10367	172
3.10733	175
3.11100	180
3.11467	186
3.11833	186
3.12200	180
3.12567	174
3.12933	172
3.13300	172
3.13667	172
3.14033	170
3.14400	169
3.14767	169
3.15133	173
3.15500	177
3.15867	181
3.16233	182
3.16600	183
3.16967	183
3.17333	184
3.17700	183
3.18067	181
3.18433	179
3.18800	179
3.19167	178
3.19533	176
3.19900	175
3.20267	175
3.20633	176
3.21000	177
3.21367	181
3.21733	182
3.22100	181
3.22467	181
3.22833	181
3.23200	180
3.23567	179
3.23933	179
3.24300	180
3.24667	180
3.25033	178
3.25400	176
3.25767	174
3.26133	173
3.26500	172
3.26867	172
3.27233	173
3.27600	174
3.27967	175
3.28333	175
3.28700	172
3.29067	167
3.29433	161
3.29800	159
3.30167	160
3.30533	163
3.30900	164
3.31267	165
3.31633	166
3.32000	170
3.32367	176
3.32733	177
3.33100	173
3.33467	167
3.33833	161
3.34200	156
3.34567	156
3.34933	161
3.35300	170
3.35667	177
3.36033	180
3.36400	184
3.36767	187
3.37133	188
3.37500	186
3.37867	183
3.38233	181
3.38600	182
3.38967	181
3.39333	178
3.39700	175
3.40067	171
3.40433	169
3.40800	166
3.41167	163
3.41533	165
3.41900	169
3.42267	171
3.42633	170
3.43000	171
3.43367	170
3.43733	169
3.44100	168
3.44467	166
3.44833	166
3.45200	166
3.45567	165
3.45933	160
3.46300	155
3.46667	154
3.47033	155
3.47400	155
3.47767	156
3.48133	157
3.48500	159
3.48867	165
3.49233	171
3.49600	175
3.49967	179
3.50333	179
3.50700	177
3.51067	173
3.51433	171
3.51800	171
3.52167	172
3.52533	171
3.52900	168
3.53267	167
3.53633	168
3.54000	170
3.54367	170
3.54733	169
3.55100	166
3.55467	164
3.55833	166
3.56200	169
3.56567	172
3.56933	173
3.57300	171
3.57667	165
3.58033	160
3.58400	158
3.58767	159
3.59133	162
3.59500	165
3.59867	164
3.60233	162
3.60600	158
3.60967	157
3.61333	156
3.61700	157
3.62067	158
3.62433	161
3.62800	166
3.63167	169
3.63533	166
3.63900	161
3.64267	157
3.64633	153
3.65000	152
3.65367	155
3.65733	163
3.66100	171
3.66467	174
3.66833	171
3.67200	163
3.67567	158
3.67933	154
3.68300	151
3.68667	150
3.69033	149
3.69400	150
3.69767	153
3.70133	156
3.70500	154
3.70867	148
3.71233	142
3.71600	140
3.71967	145
3.72333	156
3.72700	166
3.73067	169
3.73433	168
3.73800	166
3.74167	165
3.74533	165
3.74900	167
3.75267	169
3.75633	171
3.76000	170
3.76367	166
3.76733	163
3.77100	165
3.77467	171
3.77833	178
3.78200	181
3.78567	180
3.78933	177
3.79300	174
3.79667	173
3.80033	175
3.80400	175
3.80767	173
3.81133	168
3.81500	158
3.81867	144
3.82233	130
3.82600	124
3.82967	125
3.83333	130
3.83700	135
3.84067	139
3.84433	141
3.84800	142
3.85167	141
3.85533	144
3.85900	152
3.86267	157
3.86633	156
3.87000	154
3.87367	152
3.87733	151
3.88100	153
3.88467	156
3.88833	159
3.89200	161
3.89567	161
3.89933	158
3.90300	155
3.90667	153
3.91033	152
3.91400	153
3.91767	158
3.92133	163
3.92500	163
3.92867	162
3.93233	163
3.93600	166
3.93967	168
3.94333	169
3.94700	167
3.95067	166
3.95433	166
3.95800	165
3.96167	163
3.96533	159
3.96900	154
3.97267	150
3.97633	149
3.98000	149
3.98367	149
3.98733	147
3.99100	146
3.99467	143
3.99833	144

[Chromatogram (Ch2)]
Interval(msec)	220
# of Points	1091
Start Time(min)	0.002
End Time(min)	3.998
R.Time (min)	Intensity
0.00167	1
0.00533	1
0.00900	1
0.01267	1
0.01633	0
0.02000	-0
0.02367	-0
0.02733	-1
0.03100	-1
0.03467	-1
0.03833	-2
0.04200	-2
0.04567	-2
0.04933	-2
0.05300	-2
0.05667	-2
0.06033	-2
0.06400	-2
0.06767	-2
0.07133	-2
0.07500	-2
0.07867	-2
0.08233	-2
0.08600	-2
0.08967	-2
0.09333	-2
0.09700	-1
0.10067	-1
0.10433	-1
0.10800	-1
0.11167	-1
0.11533	-1
0.11900	-1
0.12267	-1
0.12633	-1
0.13000	-0
0.13367	-0
0.13733	-0
0.14100	-0
0.14467	0
0.14833	0
0.15200	0
0.15567	0
0.15933	0
0.16300	1
0.16667	1
0.17033	1
0.17400	2
0.17767	2
0.18133	2
0.18500	3
0.18867	3
0.19233	3
0.19600	3
0.19967	4
0.20333	4
0.20700	4
0.21067	5
0.21433	5
0.21800	5
0.22167	5
0.22533	5
0.22900	5
0.23267	5
0.23633	5
0.24000	4
0.24367	4
0.24733	4
0.25100	4
0.25467	4
0.25833	4
0.26200	4
0.26567	4
0.26933	4
0.27300	4
0.27667	5
0.28033	5
0.28400	5
0.28767	4
0.29133	4
0.29500	4
0.29867	4
0.30233	3
0.30600	3
0.30967	3
0.31333	2
0.31700	2
0.32067	1
0.32433	1
0.32800	0
0.33167	-0
0.33533	-0
0.33900	-0
0.34267	-1
0.34633	-1
0.35000	-0
0.35367	-0
0.35733	0
0.36100	0
0.36467	0
0.36833	0
0.37200	1
0.37567	1
0.37933	1
0.38300	1
0.38667	1
0.39033	1
0.39400	2
0.39767	2
0.40133	2
0.40500	2
0.40867	2
0.41233	2
0.41600	2
0.41967	2
0.42333	1
0.42700	1
0.43067	1
0.43433	0
0.43800	0
0.44167	-0
0.44533	-0
0.44900	-0
0.45267	0
0.45633	0
0.46000	0
0.46367	1
0.46733	1
0.47100	1
0.47467	1
0.47833	1
0.48200	1
0.48567	1
0.48933	1
0.49300	1
0.49667	1
0.50033	1
0.50400	0
0.50767	0
0.51133	0
0.51500	0
0.51867	0
0.52233	1
0.52600	1
0.52967	1
0.53333	1
0.53700	0
0.54067	0
0.54433	0
0.54800	0
0.55167	0
0.55533	0
0.55900	0
0.56267	0
0.56633	0
0.57000	0
0.57367	0
0.57733	0
0.58100	-0
0.58467	-0
0.58833	-0
0.59200	-1
0.59567	-1
0.59933	-2
0.60300	-2
0.60667	-2
0.61033	-3
0.61400	-3
0.61767	-3
0.62133	-4
0.62500	-4
0.62867	-4
0.63233	-4
0.63600	-4
0.63967	-4
0.64333	-4
0.64700	-3
0.65067	-3
0.65433	-3
0.65800	-3
0.66167	-3
0.66533	-3
0.66900	-3
0.67267	-3
0.67633	-3
0.68000	-3
0.68367	-3
0.68733	-3
0.69100	-2
0.69467	-2
0.69833	-2
0.70200	-2
0.70567	-2
0.70933	-2
0.71300	-2
0.71667	-2
0.72033	-2
0.72400	-2
0.72767	-2
0.73133	-2
0.73500	-2
0.73867	-1
0.74233	-1
0.74600	-0
0.74967	0
0.75333	1
0.75700	1
0.76067	1
0.76433	1
0.76800	2
0.77167	2
0.77533	1
0.77900	1
0.78267	1
0.78633	1
0.79000	0
0.79367	-0
0.79733	-1
0.80100	-1
0.80467	-1
0.80833	-1
0.81200	-1
0.81567	-1
0.81933	-1
0.82300	-1
0.82667	-0
0.83033	-0
0.83400	0
0.83767	1
0.84133	1
0.84500	1
0.84867	1
0.85233	2
0.85600	2
0.85967	2
0.86333	2
0.86700	2
0.87067	2
0.87433	1
0.87800	1
0.88167	1
0.88533	1
0.88900	1
0.89267	1
0.89633	0
0.90000	0
0.90367	0
0.90733	-0
0.91100	-0
0.91467	-0
0.91833	-0
0.92200	-0
0.92567	-1
0.92933	-1
0.93300	-1
0.93667	-1
0.94033	-1
0.94400	-1
0.94767	-1
0.95133	-1
0.95500	-0
0.95867	-0
0.96233	-0
0.96600	0
0.96967	0
0.97333	0
0.97700	-0
0.98067	-0
0.98433	-0
0.98800	-1
0.99167	-1
0.99533	-1
0.99900	-1
1.00267	-1
1.00633	-1
1.01000	-2
1.01367	-2
1.01733	-2
1.02100	-2
1.02467	-3
1.02833	-3
1.03200	-4
1.03567	-4
1.03933	-4
1.04300	-4
1.04667	-4
1.05033	-4
1.05400	-4
1.05767	-3
1.06133	-3
1.06500	-3
1.06867	-2
1.07233	-2
1.07600	-2
1.07967	-1
1.08333	-1
1.08700	-1
1.09067	-0
1.09433	-0
1.09800	0
1.10167	0
1.10533	0
1.10900	0
1.11267	0
1.11633	0
1.12000	0
1.12367	0
1.12733	0
1.13100	0
1.13467	0
1.13833	0
1.14200	0
1.14567	0
1.14933	-0
1.15300	-0
1.15667	-0
1.16033	-0
1.16400	-0
1.16767	-0
1.17133	-1
1.17500	-1
1.17867	-1
1.18233	-1
1.18600	-1
1.18967	-0
1.19333	-0
1.19700	-0
1.20067	-0
1.20433	-0
1.20800	-0
1.21167	-0
1.21533	-0
1.21900	-0
1.22267	-0
1.22633	-1
1.23000	-1
1.23367	-1
1.23733	-2
1.24100	-2
1.24467	-3
1.24833	-4
1.25200	-5
1.25567	-5
1.25933	-5
1.26300	-5
1.26667	-5
1.27033	-5
1.27400	-5
1.27767	-5
1.28133	-4
1.28500	-4
1.28867	-4
1.29233	-3
1.29600	-3
1.29967	-3
1.30333	-3
1.30700	-3
1.31067	-3
1.31433	-3
1.31800	-3
1.32167	-3
1.32533	-2
1.32900	-2
1.33267	-2
1.33633	-2
1.34000	-2
1.34367	-1
1.34733	-1
1.35100	-0
1.35467	0
1.35833	0
1.36200	1
1.36567	1
1.36933	1
1.37300	1
1.37667	1
1.38033	1
1.38400	1
1.38767	1
1.39133	1
1.39500	1
1.39867	1
1.40233	2
1.40600	2
1.40967	2
1.41333	2
1.41700	2
1.42067	2
1.42433	2
1.42800	2
1.43167	1
1.43533	1
1.43900	1
1.44267	1
1.44633	0
1.45000	-0
1.45367	-0
1.45733	-1
1.46100	-1
1.46467	-2
1.46833	-2
1.47200	-2
1.47567	-2
1.47933	-3
1.48300	-3
1.48667	-3
1.49033	-3
1.49400	-3
1.49767	-3
1.50133	-3
1.50500	-3
1.50867	-3
1.51233	-2
1.51600	-2
1.51967	-2
1.52333	-2
1.52700	-2
1.53067	-2
1.53433	-2
1.53800	-2
1.54167	-3
1.54533	-3
1.54900	-2
1.55267	-2
1.55633	-2
1.56000	-2
1.56367	-1
1.56733	-1
1.57100	-1
1.57467	-1
1.57833	-1
1.58200	-2
1.58567	-2
1.58933	-2
1.59300	-2
1.59667	-3
1.60033	-3
1.60400	-4
1.60767	-6
1.61133	-8
1.61500	-10
1.61867	-12
1.62233	-15
1.62600	-18
1.62967	-21
1.63333	-25
1.63700	-28
1.64067	-32
1.64433	-36
1.64800	-40
1.65167	-43
1.65533	-47
1.65900	-51
1.66267	-55
1.66633	-59
1.67000	-64
1.67367	-69
1.67733	-74
1.68100	-79
1.68467	-84
1.68833	-88
1.69200	-93
1.69567	-97
1.69933	-100
1.70300	-103
1.70667	-105
1.71033	-107
1.71400	-109
1.71767	-110
1.72133	-110
1.72500	-111
1.72867	-112
1.73233	-112
1.73600	-112
1.73967	-112
1.74333	-112
1.74700	-112
1.75067	-112
1.75433	-112
1.75800	-112
1.76167	-112
1.76533	-113
1.76900	-113
1.77267	-114
1.77633	-115
1.78000	-117
1.78367	-118
1.78733	-119
1.79100	-120
1.79467	-120
1.79833	-120
1.80200	-121
1.80567	-121
1.80933	-121
1.81300	-121
1.81667	-121
1.82033	-121
1.82400	-121
1.82767	-121
1.83133	-121
1.83500	-122
1.83867	-122
1.84233	-122
1.84600	-122
1.84967	-121
1.85333	-121
1.85700	-120
1.86067	-120
1.86433	-119
1.86800	-119
1.87167	-119
1.87533	-119
1.87900	-119
1.88267	-119
1.88633	-119
1.89000	-119
1.89367	-120
1.89733	-120
1.90100	-120
1.90467	-120
1.90833	-120
1.91200	-120
1.91567	-120
1.91933	-120
1.92300	-120
1.92667	-120
1.93033	-120
1.93400	-120
1.93767	-119
1.94133	-119
1.94500	-119
1.94867	-119
1.95233	-119
1.95600	-119
1.95967	-119
1.96333	-119
1.96700	-118
1.97067	-118
1.97433	-118
1.97800	-117
1.98167	-117
1.98533	-116
1.98900	-116
1.99267	-115
1.99633	-114
2.00000	-114
2.00367	-113
2.00733	-113
2.01100	-112
2.01467	-112
2.01833	-112
2.02200	-111
2.02567	-111
2.02933	-110
2.03300	-110
2.03667	-109
2.04033	-109
2.04400	-109
2.04767	-109
2.05133	-109
2.05500	-108
2.05867	-108
2.06233	-108
2.06600	-108
2.06967	-108
2.07333	-109
2.07700	-109
2.08067	-109
2.08433	-108
2.08800	-107
2.09167	-107
2.09533	-106
2.09900	-106
2.10267	-106
2.10633	-106
2.11000	-106
2.11367	-106
2.11733	-105
2.12100	-105
2.12467	-105
2.12833	-104
2.13200	-104
2.13567	-103
2.13933	-103
2.14300	-103
2.14667	-104
2.15033	-104
2.15400	-104
2.15767	-104
2.16133	-104
2.16500	-103
2.16867	-101
2.17233	-100
2.17600	-99
2.17967	-98
2.18333	-97
2.18700	-96
2.19067	-96
2.19433	-96
2.19800	-96
2.20167	-97
2.20533	-97
2.20900	-96
2.21267	-96
2.21633	-95
2.22000	-95
2.22367	-94
2.22733	-93
2.23100	-93
2.23467	-92
2.23833	-92
2.24200	-92
2.24567	-93
2.24933	-93
2.25300	-94
2.25667	-94
2.26033	-94
2.26400	-93
2.26767	-93
2.27133	-92
2.27500	-91
2.27867	-91
2.28233	-90
2.28600	-90
2.28967	-90
2.29333	-89
2.29700	-90
2.30067	-90
2.30433	-90
2.30800	-90
2.31167	-89
2.31533	-89
2.31900	-88
2.32267	-87
2.32633	-87
2.33000	-86
2.33367	-86
2.33733	-86
2.34100	-86
2.34467	-86
2.34833	-85
2.35200	-85
2.35567	-84
2.35933	-83
2.36300	-83
2.36667	-82
2.37033	-80
2.37400	-78
2.37767	-76
2.38133	-73
2.38500	-70
2.38867	-66
2.39233	-62
2.39600	-57
2.39967	-53
2.40333	-48
2.40700	-43
2.41067	-39
2.41433	-35
2.41800	-31
2.42167	-28
2.42533	-25
2.42900	-22
2.43267	-19
2.43633	-17
2.44000	-15
2.44367	-13
2.44733	-11
2.45100	-9
2.45467	-7
2.45833	-5
2.46200	-4
2.46567	-3
2.46933	-2
2.47300	-1
2.47667	0
2.48033	1
2.48400	2
2.48767	4
2.49133	5
2.49500	5
2.49867	6
2.50233	6
2.50600	7
2.50967	7
2.51333	8
2.51700	9
2.52067	9
2.52433	10
2.52800	10
2.53167	11
2.53533	11
2.53900	11
2.54267	12
2.54633	12
2.55000	13
2.55367	13
2.55733	14
2.56100	15
2.56467	15
2.56833	16
2.57200	16
2.57567	15
2.57933	15
2.58300	15
2.58667	14
2.59033	14
2.59400	14
2.59767	14
2.60133	14
2.60500	14
2.60867	14
2.61233	14
2.61600	14
2.61967	14
2.62333	15
2.62700	15
2.63067	15
2.63433	16
2.63800	17
2.64167	17
2.64533	18
2.64900	18
2.65267	19
2.65633	19
2.66000	19
2.66367	19
2.66733	19
2.67100	20
2.67467	20
2.67833	20
2.68200	21
2.68567	21
2.68933	22
2.69300	22
2.69667	23
2.70033	24
2.70400	24
2.70767	24
2.71133	24
2.71500	24
2.71867	24
2.72233	23
2.72600	23
2.72967	23
2.73333	23
2.73700	23
2.74067	23
2.74433	23
2.74800	24
2.75167	24
2.75533	24
2.75900	24
2.76267	24
2.76633	24
2.77000	25
2.77367	25
2.77733	25
2.78100	25
2.78467	25
2.78833	26
2.79200	26
2.79567	26
2.79933	26
2.80300	26
2.80667	25
2.81033	25
2.81400	25
2.81767	25
2.82133	25
2.82500	25
2.82867	25
2.83233	25
2.83600	25
2.83967	25
2.84333	25
2.84700	24
2.85067	22
2.85433	19
2.85800	13
2.86167	5
2.86533	-6
2.86900	-21
2.87267	-39
2.87633	-62
2.88000	-88
2.88367	-119
2.88733	-153
2.89100	-191
2.89467	-231
2.89833	-275
2.90200	-320
2.90567	-368
2.90933	-416
2.91300	-466
2.91667	-516
2.92033	-566
2.92400	-617
2.92767	-667
2.93133	-716
2.93500	-765
2.93867	-815
2.94233	-867
2.94600	-926
2.94967	-988
2.95333	-1042
2.95700	-1079
2.96067	-1091
2.96433	-1077
2.96800	-1038
2.97167	-981
2.97533	-912
2.97900	-835
2.98267	-755
2.98633	-675
2.99000	-598
2.99367	-526
2.99733	-460
3.00100	-400
3.00467	-346
3.00833	-297
3.01200	-255
3.01567	-218
3.01933	-185
3.02300	-157
3.02667	-132
3.03033	-111
3.03400	-93
3.03767	-78
3.04133	-65
3.04500	-54
3.04867	-45
3.05233	-37
3.05600	-30
3.05967	-24
3.06333	-19
3.06700	-14
3.07067	-10
3.07433	-7
3.07800	-4
3.08167	-1
3.08533	1
3.08900	3
3.09267	4
3.09633	6
3.10000	8
3.10367	9
3.10733	10
3.11100	11
3.11467	12
3.11833	13
3.12200	14
3.12567	15
3.12933	15
3.13300	16
3.13667	16
3.14033	17
3.14400	17
3.14767	17
3.15133	18
3.15500	18
3.15867	19
3.16233	19
3.16600	19
3.16967	19
3.17333	20
3.17700	20
3.18067	20
3.18433	20
3.18800	20
3.19167	20
3.19533	20
3.19900	20
3.20267	20
3.20633	21
3.21000	21
3.21367	20
3.21733	20
3.22100	21
3.22467	21
3.22833	21
3.23200	21
3.23567	21
3.23933	21
3.24300	21
3.24667	22
3.25033	22
3.25400	22
3.25767	22
3.26133	22
3.26500	23
3.26867	23
3.27233	23
3.27600	24
3.27967	24
3.28333	24
3.28700	24
3.29067	24
3.29433	24
3.29800	25
3.30167	25
3.30533	25
3.30900	25
3.31267	25
3.31633	25
3.32000	25
3.32367	26
3.32733	26
3.33100	26
3.33467	26
3.33833	27
3.34200	27
3.34567	27
3.34933	27
3.35300	27
3.35667	27
3.36033	27
3.36400	27
3.36767	27
3.37133	27
3.37500	27
3.37867	27
3.38233	27
3.38600	27
3.38967	27
3.39333	27
3.39700	27
3.40067	27
3.40433	27
3.40800	27
3.41167	27
3.41533	27
3.41900	26
3.42267	26
3.42633	27
3.43000	27
3.43367	27
3.43733	27
3.44100	27
3.44467	27
3.44833	27
3.45200	27
3.45567	28
3.45933	28
3.46300	28
3.46667	28
3.47033	28
3.47400	28
3.47767	28
3.48133	28
3.48500	28
3.48867	28
3.49233	28
3.49600	28
3.49967	28
3.50333	28
3.50700	28
3.51067	28
3.51433	28
3.51800	28
3.52167	28
3.52533	28
3.52900	28
3.53267	28
3.53633	28
3.54000	28
3.54367	28
3.54733	28
3.55100	28
3.55467	28
3.55833	28
3.56200	28
3.56567	28
3.56933	28
3.57300	28
3.57667	28
3.58033	28
3.58400	28
3.58767	28
3.59133	27
3.59500	27
3.59867	27
3.60233	27
3.60600	27
3.60967	26
3.61333	26
3.61700	26
3.62067	26
3.62433	26
3.62800	26
3.63167	26
3.63533	25
3.63900	25
3.64267	25
3.64633	25
3.65000	25
3.65367	25
3.65733	25
3.66100	25
3.66467	25
3.66833	25
3.67200	25
3.67567	25
3.67933	25
3.68300	26
3.68667	26
3.69033	26
3.69400	26
3.69767	25
3.70133	25
3.70500	25
3.70867	25
3.71233	25
3.71600	25
3.71967	25
3.72333	25
3.72700	25
3.73067	25
3.73433	25
3.73800	25
3.74167	25
3.74533	25
3.74900	25
3.75267	26
3.75633	26
3.76000	26
3.76367	26
3.76733	26
3.77100	26
3.77467	26
3.77833	26
3.78200	26
3.78567	26
3.78933	26
3.79300	25
3.79667	25
3.80033	25
3.80400	25
3.80767	25
3.81133	25
3.81500	25
3.81867	25
3.82233	25
3.82600	25
3.82967	25
3.83333	25
3.83700	25
3.84067	25
3.84433	25
3.84800	25
3.85167	25
3.85533	25
3.85900	26
3.86267	26
3.86633	26
3.87000	26
3.87367	27
3.87733	27
3.88100	27
3.88467	27
3.88833	27
3.89200	27
3.89567	27
3.89933	27
3.90300	27
3.90667	26
3.91033	26
3.91400	26
3.91767	26
3.92133	26
3.92500	26
3.92867	26
3.93233	26
3.93600	26
3.93967	26
3.94333	25
3.94700	25
3.95067	26
3.95433	26
3.95800	26
3.96167	26
3.96533	27
3.96900	27
3.97267	27
3.97633	26
3.98000	26
3.98367	26
3.98733	26
3.99100	26
3.99467	26
3.99833	26

[Chromatogram (Ch3)]
Interval(msec)	220
# of Points	1091
Start Time(min)	0.002
End Time(min)	3.998
R.Time (min)	Intensity
0.00167	0
0.00533	-0
0.00900	-1
0.01267	-3
0.01633	-6
0.02000	-5
0.02367	-2
0.02733	-1
0.03100	-1
0.03467	-0
0.03833	-0
0.04200	-0
0.04567	0
0.04933	3
0.05300	4
0.05667	4
0.06033	2
0.06400	3
0.06767	4
0.07133	4
0.07500	2
0.07867	1
0.08233	1
0.08600	1
0.08967	1
0.09333	0
0.09700	-1
0.10067	1
0.10433	5
0.10800	8
0.11167	10
0.11533	9
0.11900	7
0.12267	4
0.12633	4
0.13000	5
0.13367	7
0.13733	7
0.14100	5
0.14467	5
0.14833	5
0.15200	5
0.15567	5
0.15933	6
0.16300	8
0.16667	10
0.17033	10
0.17400	10
0.17767	11
0.18133	9
0.18500	9
0.18867	8
0.19233	8
0.19600	7
0.19967	8
0.20333	8
0.20700	8
0.21067	7
0.21433	10
0.21800	11
0.22167	11
0.22533	12
0.22900	11
0.23267	10
0.23633	8
0.24000	6
0.24367	4
0.24733	5
0.25100	6
0.25467	7
0.25833	8
0.26200	9
0.26567	9
0.26933	10
0.27300	12
0.27667	15
0.28033	16
0.28400	17
0.28767	16
0.29133	15
0.29500	12
0.29867	10
0.30233	9
0.30600	11
0.30967	11
0.31333	11
0.31700	13
0.32067	12
0.32433	12
0.32800	12
0.33167	11
0.33533	10
0.33900	11
0.34267	9
0.34633	8
0.35000	10
0.35367	9
0.35733	9
0.36100	10
0.36467	11
0.36833	9
0.37200	8
0.37567	9
0.37933	12
0.38300	14
0.38667	14
0.39033	12
0.39400	10
0.39767	8
0.40133	8
0.40500	9
0.40867	13
0.41233	15
0.41600	14
0.41967	14
0.42333	15
0.42700	15
0.43067	15
0.43433	14
0.43800	15
0.44167	15
0.44533	16
0.44900	14
0.45267	10
0.45633	10
0.46000	12
0.46367	14
0.46733	18
0.47100	18
0.47467	17
0.47833	18
0.48200	18
0.48567	18
0.48933	19
0.49300	18
0.49667	15
0.50033	12
0.50400	11
0.50767	13
0.51133	15
0.51500	17
0.51867	18
0.52233	21
0.52600	20
0.52967	20
0.53333	20
0.53700	21
0.54067	20
0.54433	19
0.54800	17
0.55167	16
0.55533	17
0.55900	18
0.56267	17
0.56633	16
0.57000	17
0.57367	18
0.57733	18
0.58100	16
0.58467	18
0.58833	18
0.59200	18
0.59567	19
0.59933	19
0.60300	18
0.60667	17
0.61033	17
0.61400	15
0.61767	16
0.62133	16
0.62500	15
0.62867	15
0.63233	17
0.63600	18
0.63967	18
0.64333	17
0.64700	17
0.65067	17
0.65433	17
0.65800	17
0.66167	17
0.66533	18
0.66900	17
0.67267	17
0.67633	15
0.68000	16
0.68367	19
0.68733	20
0.69100	20
0.69467	19
0.69833	19
0.70200	19
0.70567	18
0.70933	18
0.71300	17
0.71667	18
0.72033	18
0.72400	17
0.72767	17
0.73133	18
0.73500	19
0.73867	20
0.74233	19
0.74600	19
0.74967	19
0.75333	21
0.75700	22
0.76067	21
0.76433	20
0.76800	18
0.77167	15
0.77533	14
0.77900	16
0.78267	17
0.78633	16
0.79000	17
0.79367	19
0.79733	20
0.80100	22
0.80467	21
0.80833	20
0.81200	20
0.81567	20
0.81933	18
0.82300	17
0.82667	14
0.83033	14
0.83400	14
0.83767	13
0.84133	15
0.84500	18
0.84867	19
0.85233	17
0.85600	17
0.85967	16
0.86333	15
0.86700	15
0.87067	17
0.87433	19
0.87800	19
0.88167	18
0.88533	18
0.88900	17
0.89267	16
0.89633	17
0.90000	20
0.90367	20
0.90733	20
0.91100	20
0.91467	20
0.91833	18
0.92200	18
0.92567	19
0.92933	21
0.93300	22
0.93667	21
0.94033	22
0.94400	23
0.94767	23
0.95133	25
0.95500	27
0.95867	29
0.96233	27
0.96600	25
0.96967	22
0.97333	21
0.97700	19
0.98067	19
0.98433	19
0.98800	22
0.99167	24
0.99533	24
0.99900	23
1.00267	24
1.00633	23
1.01000	22
1.01367	23
1.01733	22
1.02100	23
1.02467	24
1.02833	25
1.03200	24
1.03567	24
1.03933	26
1.04300	28
1.04667	26
1.05033	24
1.05400	23
1.05767	22
1.06133	22
1.06500	23
1.06867	23
1.07233	23
1.07600	21
1.07967	19
1.08333	19
1.08700	21
1.09067	22
1.09433	23
1.09800	23
1.10167	23
1.10533	24
1.10900	25
1.11267	25
1.11633	24
1.12000	23
1.12367	23
1.12733	23
1.13100	23
1.13467	23
1.13833	20
1.14200	17
1.14567	16
1.14933	19
1.15300	22
1.15667	25
1.16033	26
1.16400	26
1.16767	24
1.17133	22
1.17500	21
1.17867	21
1.18233	22
1.18600	23
1.18967	24
1.19333	25
1.19700	24
1.20067	22
1.20433	19
1.20800	18
1.21167	17
1.21533	18
1.21900	18
1.22267	19
1.22633	23
1.23000	24
1.23367	24
1.23733	22
1.24100	21
1.24467	22
1.24833	21
1.25200	20
1.25567	21
1.25933	20
1.26300	21
1.26667	23
1.27033	26
1.27400	27
1.27767	26
1.28133	22
1.28500	20
1.28867	20
1.29233	21
1.29600	20
1.29967	20
1.30333	20
1.30700	21
1.31067	21
1.31433	20
1.31800	21
1.32167	21
1.32533	21
1.32900	23
1.33267	23
1.33633	25
1.34000	24
1.34367	22
1.34733	20
1.35100	19
1.35467	18
1.35833	18
1.36200	18
1.36567	19
1.36933	18
1.37300	17
1.37667	18
1.38033	18
1.38400	19
1.38767	20
1.39133	22
1.39500	23
1.39867	22
1.40233	20
1.40600	18
1.40967	17
1.41333	18
1.41700	18
1.42067	18
1.42433	16
1.42800	14
1.43167	14
1.43533	15
1.43900	14
1.44267	15
1.44633	15
1.45000	16
1.45367	16
1.45733	16
1.46100	16
1.46467	17
1.46833	18
1.47200	18
1.47567	16
1.47933	16
1.48300	16
1.48667	17
1.49033	15
1.49400	16
1.49767	18
1.50133	19
1.50500	19
1.50867	19
1.51233	18
1.51600	18
1.51967	16
1.52333	13
1.52700	12
1.53067	13
1.53433	17
1.53800	18
1.54167	18
1.54533	17
1.54900	15
1.55267	14
1.55633	14
1.56000	13
1.56367	14
1.56733	15
1.57100	17
1.57467	19
1.57833	18
1.58200	20
1.58567	22
1.58933	19
1.59300	18
1.59667	17
1.60033	17
1.60400	18
1.60767	18
1.61133	18
1.61500	18
1.61867	19
1.62233	20
1.62600	20
1.62967	20
1.63333	22
1.63700	24
1.64067	25
1.64433	25
1.64800	25
1.65167	24
1.65533	21
1.65900	20
1.66267	22
1.66633	25
1.67000	26
1.67367	25
1.67733	25
1.68100	25
1.68467	25
1.68833	26
1.69200	26
1.69567	27
1.69933	28
1.70300	29
1.70667	32
1.71033	34
1.71400	36
1.71767	37
1.72133	36
1.72500	36
1.72867	36
1.73233	34
1.73600	32
1.73967	31
1.74333	30
1.74700	30
1.75067	31
1.75433	33
1.75800	37
1.76167	39
1.76533	39
1.76900	38
1.77267	36
1.77633	34
1.78000	34
1.78367	36
1.78733	39
1.79100	40
1.79467	41
1.79833	43
1.80200	44
1.80567	45
1.80933	45
1.81300	46
1.81667	48
1.82033	49
1.82400	51
1.82767	52
1.83133	50
1.83500	47
1.83867	45
1.84233	45
1.84600	45
1.84967	48
1.85333	49
1.85700	48
1.86067	47
1.86433	46
1.86800	46
1.87167	48
1.87533	47
1.87900	48
1.88267	49
1.88633	50
1.89000	50
1.89367	49
1.89733	50
1.90100	50
1.90467	50
1.90833	50
1.91200	48
1.91567	48
1.91933	50
1.92300	54
1.92667	55
1.93033	56
1.93400	56
1.93767	57
1.94133	57
1.94500	56
1.94867	56
1.95233	57
1.95600	59
1.95967	60
1.96333	59
1.96700	59
1.97067	59
1.97433	59
1.97800	60
1.98167	61
1.98533	62
1.98900	65
1.99267	68
1.99633	67
2.00000	67
2.00367	67
2.00733	65
2.01100	66
2.01467	69
2.01833	71
2.02200	72
2.02567	73
2.02933	73
2.03300	72
2.03667	74
2.04033	77
2.04400	79
2.04767	83
2.05133	84
2.05500	82
2.05867	82
2.06233	82
2.06600	83
2.06967	84
2.07333	84
2.07700	86
2.08067	88
2.08433	88
2.08800	88
2.09167	87
2.09533	84
2.09900	85
2.10267	89
2.10633	90
2.11000	90
2.11367	90
2.11733	89
2.12100	89
2.12467	89
2.12833	89
2.13200	92
2.13567	95
2.13933	97
2.14300	94
2.14667	92
2.15033	93
2.15400	94
2.15767	93
2.16133	94
2.16500	95
2.16867	96
2.17233	96
2.17600	97
2.17967	99
2.18333	103
2.18700	105
2.19067	106
2.19433	107
2.19800	107
2.20167	104
2.20533	105
2.20900	105
2.21267	107
2.21633	107
2.22000	107
2.22367	109
2.22733	114
2.23100	115
2.23467	115
2.23833	117
2.24200	118
2.24567	116
2.24933	116
2.25300	115
2.25667	116
2.26033	117
2.26400	117
2.26767	117
2.27133	121
2.27500	122
2.27867	123
2.28233	123
2.28600	120
2.28967	120
2.29333	122
2.29700	122
2.30067	123
2.30433	124
2.30800	126
2.31167	128
2.31533	128
2.31900	128
2.32267	127
2.32633	124
2.33000	124
2.33367	126
2.33733	129
2.34100	132
2.34467	135
2.34833	137
2.35200	136
2.35567	136
2.35933	137
2.36300	136
2.36667	136
2.37033	135
2.37400	135
2.37767	137
2.38133	141
2.38500	143
2.38867	144
2.39233	145
2.39600	144
2.39967	142
2.40333	144
2.40700	148
2.41067	149
2.41433	150
2.41800	151
2.42167	152
2.42533	152
2.42900	152
2.43267	153
2.43633	156
2.44000	158
2.44367	165
2.44733	181
2.45100	202
2.45467	228
2.45833	258
2.46200	293
2.46567	334
2.46933	381
2.47300	426
2.47667	472
2.48033	516
2.48400	559
2.48767	602
2.49133	644
2.49500	684
2.49867	721
2.50233	753
2.50600	781
2.50967	805
2.51333	827
2.51700	847
2.52067	863
2.52433	876
2.52800	887
2.53167	897
2.53533	909
2.53900	920
2.54267	929
2.54633	936
2.55000	945
2.55367	957
2.55733	966
2.56100	972
2.56467	976
2.56833	981
2.57200	988
2.57567	992
2.57933	992
2.58300	990
2.58667	987
2.59033	982
2.59400	975
2.59767	968
2.60133	957
2.60500	940
2.60867	919
2.61233	891
2.61600	857
2.61967	819
2.62333	777
2.62700	736
2.63067	697
2.63433	663
2.63800	635
2.64167	617
2.64533	603
2.64900	593
2.65267	586
2.65633	584
2.66000	586
2.66367	590
2.66733	593
2.67100	598
2.67467	605
2.67833	612
2.68200	620
2.68567	630
2.68933	638
2.69300	644
2.69667	649
2.70033	657
2.70400	664
2.70767	670
2.71133	677
2.71500	685
2.71867	692
2.72233	697
2.72600	703
2.72967	707
2.73333	708
2.73700	711
2.74067	715
2.74433	719
2.74800	722
2.75167	722
2.75533	721
2.75900	720
2.76267	720
2.76633	721
2.77000	721
2.77367	722
2.77733	723
2.78100	723
2.78467	722
2.78833	723
2.79200	723
2.79567	723
2.79933	723
2.80300	722
2.80667	720
2.81033	719
2.81400	718
2.81767	717
2.82133	719
2.82500	723
2.82867	736
2.83233	764
2.83600	822
2.83967	933
2.84333	1116
2.84700	1393
2.85067	1780
2.85433	2276
2.85800	2857
2.86167	3484
2.86533	4118
2.86900	4701
2.87267	5184
2.87633	5533
2.88000	5732
2.88367	5782
2.88733	5694
2.89100	5490
2.89467	5203
2.89833	4863
2.90200	4494
2.90567	4120
2.90933	3755
2.91300	3406
2.91667	3084
2.92033	2792
2.92400	2529
2.92767	2293
2.93133	2083
2.93500	1895
2.93867	1732
2.94233	1590
2.94600	1464
2.94967	1356
2.95333	1262
2.95700	1182
2.96067	1112
2.96433	1051
2.96800	998
2.97167	953
2.97533	913
2.97900	877
2.98267	843
2.98633	815
2.99000	794
2.99367	776
2.99733	759
3.00100	742
3.00467	728
3.00833	715
3.01200	703
3.01567	693
3.01933	685
3.02300	679
3.02667	674
3.03033	670
3.03400	663
3.03767	657
3.04133	655
3.04500	655
3.04867	655
3.05233	654
3.05600	651
3.05967	647
3.06333	645
3.06700	643
3.07067	640
3.07433	637
3.07800	636
3.08167	637
3.08533	638
3.08900	635
3.09267	633
3.09633	632
3.10000	629
3.10367	623
3.10733	619
3.11100	618
3.11467	617
3.11833	616
3.12200	613
3.12567	612
3.12933	610
3.13300	608
3.13667	607
3.14033	605
3.14400	602
3.14767	600
3.15133	596
3.15500	594
3.15867	591
3.16233	591
3.16600	589
3.16967	587
3.17333	586
3.17700	584
3.18067	583
3.18433	580
3.18800	576
3.19167	574
3.19533	571
3.19900	569
3.20267	567
3.20633	565
3.21000	566
3.21367	565
3.21733	564
3.22100	560
3.22467	557
3.22833	558
3.23200	558
3.23567	555
3.23933	553
3.24300	550
3.24667	547
3.25033	546
3.25400	546
3.25767	546
3.26133	543
3.26500	539
3.26867	535
3.27233	531
3.27600	530
3.27967	528
3.28333	524
3.28700	520
3.29067	517
3.29433	515
3.29800	514
3.30167	512
3.30533	509
3.30900	508
3.31267	506
3.31633	502
3.32000	498
3.32367	496
3.32733	491
3.33100	487
3.33467	485
3.33833	485
3.34200	488
3.34567	488
3.34933	484
3.35300	481
3.35667	480
3.36033	476
3.36400	472
3.36767	468
3.37133	464
3.37500	463
3.37867	461
3.38233	457
3.38600	454
3.38967	453
3.39333	455
3.39700	454
3.40067	452
3.40433	449
3.40800	446
3.41167	442
3.41533	439
3.41900	437
3.42267	434
3.42633	432
3.43000	430
3.43367	430
3.43733	428
3.44100	423
3.44467	419
3.44833	416
3.45200	413
3.45567	410
3.45933	409
3.46300	409
3.46667	406
3.47033	405
3.47400	403
3.47767	401
3.48133	398
3.48500	394
3.48867	389
3.49233	386
3.49600	383
3.49967	380
3.50333	379
3.50700	377
3.51067	377
3.51433	379
3.51800	379
3.52167	377
3.52533	375
3.52900	373
3.53267	370
3.53633	368
3.54000	367
3.54367	366
3.54733	367
3.55100	366
3.55467	364
3.55833	361
3.56200	358
3.56567	357
3.56933	356
3.57300	357
3.57667	355
3.58033	352
3.58400	349
3.58767	347
3.59133	345
3.59500	344
3.59867	345
3.60233	345
3.60600	344
3.60967	343
3.61333	341
3.61700	340
3.62067	339
3.62433	337
3.62800	337
3.63167	334
3.63533	332
3.63900	330
3.64267	331
3.64633	330
3.65000	326
3.65367	325
3.65733	323
3.66100	319
3.66467	317
3.66833	315
3.67200	313
3.67567	310
3.67933	308
3.68300	309
3.68667	309
3.69033	309
3.69400	306
3.69767	301
3.70133	299
3.70500	300
3.70867	300
3.71233	300
3.71600	301
3.71967	303
3.72333	304
3.72700	305
3.73067	304
3.73433	302
3.73800	301
3.74167	299
3.74533	296
3.74900	294
3.75267	292
3.75633	289
3.76000	287
3.76367	287
3.76733	285
3.77100	284
3.77467	284
3.77833	284
3.78200	284
3.78567	285
3.78933	287
3.79300	287
3.79667	286
3.80033	286
3.80400	287
3.80767	286
3.81133	284
3.81500	281
3.81867	279
3.82233	277
3.82600	275
3.82967	274
3.83333	274
3.83700	275
3.84067	273
3.84433	270
3.84800	269
3.85167	269
3.85533	269
3.85900	268
3.86267	268
3.86633	264
3.87000	263
3.87367	262
3.87733	260
3.88100	259
3.88467	258
3.88833	259
3.89200	262
3.89567	263
3.89933	262
3.90300	260
3.90667	259
3.91033	258
3.91400	256
3.91767	254
3.92133	248
3.92500	246
3.92867	247
3.93233	248
3.93600	248
3.93967	247
3.94333	244
3.94700	243
3.95067	243
3.95433	245
3.95800	246
3.96167	246
3.96533	246
3.96900	245
3.97267	242
3.97633	240
3.98000	241
3.98367	243
3.98733	243
3.99100	242
3.99467	241
3.99833	239

[Status Trace (Column Oven Temperature)]
Interval(msec)	1000
# of Points	240
Start Time(min)	0.006
End Time(min)	3.990
Intensity Units	
Intensity Multiplier	1
R.Time (min)	Intensity
0.00645	35.00
0.02312	35.02
0.03978	35.04
0.05645	35.04
0.07312	35.04
0.08978	35.05
0.10645	35.05
0.12312	35.05
0.13978	35.05
0.15645	35.04
0.17312	35.04
0.18978	35.02
0.20645	35.00
0.22312	34.98
0.23978	34.97
0.25645	34.96
0.27312	34.96
0.28978	34.96
0.30645	34.96
0.32312	34.96
0.33978	34.97
0.35645	34.96
0.37312	34.96
0.38978	34.95
0.40645	34.96
0.42312	34.96
0.43978	34.96
0.45645	34.96
0.47312	34.96
0.48978	34.97
0.50645	34.97
0.52312	34.95
0.53978	34.95
0.55645	34.95
0.57312	34.96
0.58978	34.97
0.60645	34.98
0.62312	35.01
0.63978	35.01
0.65645	35.02
0.67312	35.02
0.68978	35.01
0.70645	35.03
0.72312	35.04
0.73978	35.02
0.75645	35.01
0.77312	35.00
0.78978	35.01
0.80645	35.02
0.82312	35.02
0.83978	35.00
0.85645	34.99
0.87312	34.99
0.88978	34.98
0.90645	34.98
0.92312	34.98
0.93978	34.98
0.95645	34.99
0.97312	34.99
0.98978	35.00
1.00645	35.00
1.02312	35.01
1.03978	35.02
1.05645	35.01
1.07312	35.00
1.08978	34.99
1.10645	34.98
1.12312	34.98
1.13978	34.98
1.15645	34.98
1.17312	34.98
1.18978	34.98
1.20645	34.99
1.22312	34.99
1.23978	35.00
1.25645	35.02
1.27312	35.02
1.28978	35.03
1.30645	35.02
1.32312	35.02
1.33978	35.02
1.35645	35.01
1.37312	35.00
1.38978	34.99
1.40645	34.98
1.42312	34.98
1.43978	34.97
1.45645	34.98
1.47312	34.99
1.48978	35.00
1.50645	34.99
1.52312	35.00
1.53978	35.00
1.55645	35.00
1.57312	34.99
1.58978	35.00
1.60645	35.05
1.62312	35.17
1.63978	35.35
1.65645	35.60
1.67312	35.94
1.68978	36.32
1.70645	36.68
1.72312	37.01
1.73978	37.31
1.75645	37.62
1.77312	37.96
1.78978	38.30
1.80645	38.63
1.82312	38.97
1.83978	39.31
1.85645	39.62
1.87312	39.94
1.88978	40.28
1.90645	40.61
1.92312	40.94
1.93978	41.27
1.95645	41.61
1.97312	41.94
1.98978	42.26
2.00645	42.59
2.02312	42.92
2.03978	43.24
2.05645	43.57
2.07312	43.91
2.08978	44.22
2.10645	44.57
2.12312	44.89
2.13978	45.22
2.15645	45.56
2.17312	45.86
2.18978	46.17
2.20645	46.51
2.22312	46.84
2.23978	47.16
2.25645	47.49
2.27312	47.82
2.28978	48.12
2.30645	48.48
2.32312	48.80
2.33978	49.12
2.35645	49.40
2.37312	49.58
2.38978	49.67
2.40645	49.66
2.42312	49.68
2.43978	49.68
2.45645	49.69
2.47312	49.71
2.48978	49.73
2.50645	49.74
2.52312	49.76
2.53978	49.77
2.55645	49.77
2.57312	49.78
2.58978	49.80
2.60645	49.82
2.62312	49.83
2.63978	49.84
2.65645	49.85
2.67312	49.87
2.68978	49.84
2.70645	49.84
2.72312	49.87
2.73978	49.87
2.75645	49.87
2.77312	49.87
2.78978	49.87
2.80645	49.87
2.82312	49.87
2.83978	49.88
2.85645	49.89
2.87312	49.92
2.88978	49.93
2.90645	49.94
2.92312	49.96
2.93978	49.97
2.95645	49.97
2.97312	49.98
2.98978	50.00
3.00645	50.01
3.02312	50.02
3.03978	50.04
3.05645	50.06
3.07312	50.07
3.08978	50.07
3.10645	50.08
3.12312	50.07
3.13978	50.08
3.15645	50.08
3.17312	50.08
3.18978	50.09
3.20645	50.09
3.22312	50.10
3.23978	50.11
3.25645	50.11
3.27312	50.10
3.28978	50.10
3.30645	50.10
3.32312	50.08
3.33978	50.07
3.35645	50.06
3.37312	50.06
3.38978	50.06
3.40645	50.06
3.42312	50.07
3.43978	50.06
3.45645	50.05
3.47312	50.04
3.48978	50.03
3.50645	50.03
3.52312	50.02
3.53978	50.02
3.55645	50.02
3.57312	50.02
3.58978	50.03
3.60645	50.03
3.62312	50.03
3.63978	50.04
3.65645	50.05
3.67312	50.05
3.68978	50.05
3.70645	50.06
3.72312	50.06
3.73978	50.06
3.75645	50.07
3.77312	50.06
3.78978	50.07
3.80645	50.07
3.82312	50.08
3.83978	50.08
3.85645	50.08
3.87312	50.07
3.88978	50.06
3.90645	50.07
3.92312	50.07
3.93978	50.08
3.95645	50.07
3.97312	50.07
3.98978	50.06

[Status Trace (Injection Unit Temperature)]
Interval(msec)	1000
# of Points	240
Start Time(min)	0.006
End Time(min)	3.990
Intensity Units	
Intensity Multiplier	1
R.Time (min)	Intensity
0.00645	99.99
0.02312	99.98
0.03978	99.99
0.05645	99.99
0.07312	99.99
0.08978	99.98
0.10645	99.98
0.12312	99.99
0.13978	99.99
0.15645	99.98
0.17312	99.99
0.18978	99.99
0.20645	99.99
0.22312	99.99
0.23978	99.99
0.25645	99.99
0.27312	99.99
0.28978	99.99
0.30645	99.99
0.32312	99.98
0.33978	99.99
0.35645	99.99
0.37312	99.99
0.38978	99.99
0.40645	99.99
0.42312	99.99
0.43978	99.99
0.45645	99.99
0.47312	99.99
0.48978	99.99
0.50645	99.99
0.52312	99.98
0.53978	100.00
0.55645	99.99
0.57312	99.99
0.58978	99.99
0.60645	99.99
0.62312	99.99
0.63978	99.99
0.65645	99.99
0.67312	99.99
0.68978	99.99
0.70645	99.99
0.72312	99.99
0.73978	99.99
0.75645	99.99
0.77312	99.99
0.78978	99.99
0.80645	99.99
0.82312	99.99
0.83978	99.98
0.85645	99.99
0.87312	99.99
0.88978	99.99
0.90645	99.99
0.92312	99.99
0.93978	99.99
0.95645	99.98
0.97312	99.99
0.98978	99.99
1.00645	99.99
1.02312	99.98
1.03978	99.99
1.05645	99.99
1.07312	99.99
1.08978	99.99
1.10645	99.99
1.12312	99.99
1.13978	99.99
1.15645	99.98
1.17312	99.99
1.18978	99.99
1.20645	99.99
1.22312	99.99
1.23978	99.99
1.25645	99.99
1.27312	99.99
1.28978	99.99
1.30645	99.99
1.32312	99.99
1.33978	99.99
1.35645	99.99
1.37312	99.99
1.38978	99.98
1.40645	99.99
1.42312	99.99
1.43978	99.99
1.45645	99.99
1.47312	99.99
1.48978	99.98
1.50645	99.98
1.52312	99.99
1.53978	99.99
1.55645	99.99
1.57312	99.99
1.58978	99.99
1.60645	99.99
1.62312	99.99
1.63978	99.99
1.65645	99.99
1.67312	99.99
1.68978	99.99
1.70645	99.99
1.72312	99.99
1.73978	99.99
1.75645	99.99
1.77312	99.99
1.78978	99.99
1.80645	99.99
1.82312	99.99
1.83978	99.99
1.85645	99.99
1.87312	99.98
1.88978	99.99
1.90645	99.99
1.92312	99.98
1.93978	99.98
1.95645	99.98
1.97312	99.99
1.98978	99.98
2.00645	99.98
2.02312	99.98
2.03978	99.98
2.05645	99.97
2.07312	99.97
2.08978	99.97
2.10645	99.97
2.12312	99.98
2.13978	99.98
2.15645	99.97
2.17312	99.98
2.18978	99.97
2.20645	99.97
2.22312	99.97
2.23978	99.97
2.25645	99.98
2.27312	99.97
2.28978	99.97
2.30645	99.97
2.32312	99.97
2.33978	99.97
2.35645	99.97
2.37312	99.97
2.38978	99.97
2.40645	99.97
2.42312	99.97
2.43978	99.97
2.45645	99.97
2.47312	99.97
2.48978	99.97
2.50645	99.97
2.52312	99.98
2.53978	99.98
2.55645	99.98
2.57312	99.98
2.58978	99.97
2.60645	99.98
2.62312	99.98
2.63978	99.99
2.65645	99.98
2.67312	99.99
2.68978	99.98
2.70645	99.99
2.72312	99.99
2.73978	99.99
2.75645	99.99
2.77312	100.00
2.78978	100.00
2.80645	100.00
2.82312	100.00
2.83978	100.00
2.85645	100.00
2.87312	100.01
2.88978	100.01
2.90645	100.01
2.92312	100.01
2.93978	100.01
2.95645	100.02
2.97312	100.02
2.98978	100.01
3.00645	100.02
3.02312	100.02
3.03978	100.02
3.05645	100.02
3.07312	100.02
3.08978	100.03
3.10645	100.03
3.12312	100.03
3.13978	100.03
3.15645	100.03
3.17312	100.03
3.18978	100.03
3.20645	100.03
3.22312	100.03
3.23978	100.03
3.25645	100.03
3.27312	100.03
3.28978	100.04
3.30645	100.03
3.32312	100.03
3.33978	100.04
3.35645	100.04
3.37312	100.04
3.38978	100.04
3.40645	100.04
3.42312	100.04
3.43978	100.04
3.45645	100.04
3.47312	100.04
3.48978	100.04
3.50645	100.04
3.52312	100.04
3.53978	100.05
3.55645	100.05
3.57312	100.04
3.58978	100.04
3.60645	100.05
3.62312	100.04
3.63978	100.05
3.65645	100.05
3.67312	100.05
3.68978	100.04
3.70645	100.04
3.72312	100.05
3.73978	100.05
3.75645	100.05
3.77312	100.05
3.78978	100.05
3.80645	100.05
3.82312	100.05
3.83978	100.05
3.85645	100.05
3.87312	100.05
3.88978	100.05
3.90645	100.05
3.92312	100.05
3.93978	100.05
3.95645	100.04
3.97312	100.05
3.98978	100.05

[Status Trace (Carrier Gas Pressure)]
Interval(msec)	1000
# of Points	240
Start Time(min)	0.006
End Time(min)	3.990
Intensity Units	
Intensity Multiplier	1
R.Time (min)	Intensity
0.00645	58.00
0.02312	55.65
0.03978	56.86
0.05645	59.06
0.07312	59.67
0.08978	58.13
0.10645	57.97
0.12312	58.01
0.13978	58.01
0.15645	58.01
0.17312	58.00
0.18978	58.00
0.20645	58.00
0.22312	58.00
0.23978	58.00
0.25645	58.00
0.27312	58.00
0.28978	58.00
0.30645	58.00
0.32312	58.00
0.33978	58.00
0.35645	58.00
0.37312	58.00
0.38978	58.00
0.40645	58.00
0.42312	58.00
0.43978	58.00
0.45645	58.00
0.47312	58.00
0.48978	58.00
0.50645	58.00
0.52312	58.00
0.53978	58.00
0.55645	58.00
0.57312	58.00
0.58978	58.00
0.60645	58.00
0.62312	58.00
0.63978	58.00
0.65645	58.00
0.67312	58.00
0.68978	58.00
0.70645	58.00
0.72312	58.00
0.73978	58.00
0.75645	58.00
0.77312	58.00
0.78978	58.00
0.80645	58.00
0.82312	58.00
0.83978	58.00
0.85645	58.00
0.87312	58.00
0.88978	58.00
0.90645	58.00
0.92312	58.00
0.93978	58.00
0.95645	58.00
0.97312	58.00
0.98978	58.00
1.00645	58.00
1.02312	58.00
1.03978	58.00
1.05645	58.00
1.07312	58.00
1.08978	58.00
1.10645	58.00
1.12312	58.00
1.13978	58.00
1.15645	58.00
1.17312	58.00
1.18978	58.00
1.20645	58.00
1.22312	58.00
1.23978	58.00
1.25645	58.00
1.27312	58.00
1.28978	58.00
1.30645	58.00
1.32312	58.00
1.33978	58.00
1.35645	58.00
1.37312	58.00
1.38978	58.00
1.40645	58.00
1.42312	58.00
1.43978	58.00
1.45645	58.00
1.47312	58.00
1.48978	58.00
1.50645	58.00
1.52312	58.00
1.53978	58.00
1.55645	58.00
1.57312	58.00
1.58978	58.00
1.60645	58.00
1.62312	58.00
1.63978	58.01
1.65645	58.00
1.67312	58.01
1.68978	58.00
1.70645	58.00
1.72312	58.00
1.73978	58.00
1.75645	58.00
1.77312	58.00
1.78978	58.00
1.80645	58.00
1.82312	58.00
1.83978	58.00
1.85645	58.00
1.87312	58.00
1.88978	58.00
1.90645	58.00
1.92312	58.00
1.93978	58.00
1.95645	58.00
1.97312	58.00
1.98978	58.00
2.00645	58.00
2.02312	58.00
2.03978	58.00
2.05645	58.00
2.07312	58.00
2.08978	58.00
2.10645	58.00
2.12312	58.00
2.13978	58.00
2.15645	58.00
2.17312	58.00
2.18978	58.00
2.20645	58.00
2.22312	58.00
2.23978	58.00
2.25645	58.00
2.27312	58.00
2.28978	58.00
2.30645	58.00
2.32312	58.00
2.33978	58.00
2.35645	58.00
2.37312	58.00
2.38978	57.99
2.40645	57.99
2.42312	58.00
2.43978	58.00
2.45645	58.00
2.47312	58.00
2.48978	58.00
2.50645	57.99
2.52312	57.99
2.53978	58.00
2.55645	58.00
2.57312	58.00
2.58978	58.00
2.60645	58.00
2.62312	58.00
2.63978	58.00
2.65645	58.00
2.67312	58.00
2.68978	58.00
2.70645	58.00
2.72312	58.00
2.73978	58.00
2.75645	58.00
2.77312	58.00
2.78978	58.00
2.80645	58.00
2.82312	58.00
2.83978	58.00
2.85645	58.00
2.87312	58.00
2.88978	58.00
2.90645	58.00
2.92312	58.00
2.93978	58.00
2.95645	58.00
2.97312	58.00
2.98978	58.00
3.00645	58.00
3.02312	58.00
3.03978	58.00
3.05645	58.00
3.07312	58.00
3.08978	58.00
3.10645	58.00
3.12312	58.00
3.13978	58.00
3.15645	58.00
3.17312	58.00
3.18978	58.00
3.20645	58.00
3.22312	58.00
3.23978	58.00
3.25645	58.00
3.27312	58.00
3.28978	58.00
3.30645	58.00
3.32312	58.00
3.33978	58.00
3.35645	58.00
3.37312	58.00
3.38978	58.00
3.40645	58.00
3.42312	58.00
3.43978	58.00
3.45645	58.00
3.47312	58.00
3.48978	58.00
3.50645	58.00
3.52312	58.00
3.53978	58.00
3.55645	58.00
3.57312	58.00
3.58978	58.00
3.60645	58.00
3.62312	58.00
3.63978	58.00
3.65645	58.00
3.67312	58.00
3.68978	58.00
3.70645	58.00
3.72312	58.00
3.73978	58.00
3.75645	58.00
3.77312	58.00
3.78978	58.00
3.80645	58.00
3.82312	58.00
3.83978	58.00
3.85645	58.00
3.87312	58.00
3.88978	58.00
3.90645	58.00
3.92312	58.00
3.93978	58.00
3.95645	58.00
3.97312	58.00
3.98978	58.00

[Status Trace (Carrier Gas Flow)]
Interval(msec)	1000
# of Points	240
Start Time(min)	0.006
End Time(min)	3.990
Intensity Units	
Intensity Multiplier	1
R.Time (min)	Intensity
0.00645	34.52
0.02312	34.55
0.03978	34.54
0.05645	34.55
0.07312	34.48
0.08978	34.52
0.10645	34.52
0.12312	34.52
0.13978	34.52
0.15645	34.52
0.17312	34.52
0.18978	34.52
0.20645	34.52
0.22312	34.52
0.23978	34.52
0.25645	34.52
0.27312	34.52
0.28978	34.52
0.30645	34.52
0.32312	34.52
0.33978	34.52
0.35645	34.52
0.37312	34.52
0.38978	34.52
0.40645	34.52
0.42312	34.52
0.43978	34.52
0.45645	34.52
0.47312	34.52
0.48978	34.52
0.50645	34.52
0.52312	34.52
0.53978	34.52
0.55645	34.52
0.57312	34.52
0.58978	34.52
0.60645	34.52
0.62312	34.52
0.63978	34.52
0.65645	34.52
0.67312	34.52
0.68978	34.52
0.70645	34.52
0.72312	34.52
0.73978	34.52
0.75645	34.52
0.77312	34.52
0.78978	34.52
0.80645	34.52
0.82312	34.52
0.83978	34.52
0.85645	34.52
0.87312	34.52
0.88978	34.52
0.90645	34.52
0.92312	34.52
0.93978	34.52
0.95645	34.52
0.97312	34.52
0.98978	34.52
1.00645	34.52
1.02312	34.52
1.03978	34.52
1.05645	34.52
1.07312	34.52
1.08978	34.52
1.10645	34.52
1.12312	34.52
1.13978	34.52
1.15645	34.52
1.17312	34.52
1.18978	34.52
1.20645	34.52
1.22312	34.52
1.23978	34.52
1.25645	34.52
1.27312	34.52
1.28978	34.52
1.30645	34.52
1.32312	34.52
1.33978	34.52
1.35645	34.52
1.37312	34.52
1.38978	34.52
1.40645	34.52
1.42312	34.52
1.43978	34.52
1.45645	34.52
1.47312	34.52
1.48978	34.52
1.50645	34.52
1.52312	34.52
1.53978	34.52
1.55645	34.52
1.57312	34.52
1.58978	34.52
1.60645	34.52
1.62312	34.52
1.63978	34.52
1.65645	34.52
1.67312	34.52
1.68978	34.52
1.70645	34.52
1.72312	34.52
1.73978	34.52
1.75645	34.52
1.77312	34.52
1.78978	34.52
1.80645	34.52
1.82312	34.52
1.83978	34.52
1.85645	34.52
1.87312	34.52
1.88978	34.52
1.90645	34.51
1.92312	34.52
1.93978	34.52
1.95645	34.52
1.97312	34.52
1.98978	34.52
2.00645	34.52
2.02312	34.52
2.03978	34.52
2.05645	34.52
2.07312	34.52
2.08978	34.52
2.10645	34.52
2.12312	34.52
2.13978	34.52
2.15645	34.52
2.17312	34.52
2.18978	34.52
2.20645	34.52
2.22312	34.52
2.23978	34.52
2.25645	34.52
2.27312	34.52
2.28978	34.52
2.30645	34.52
2.32312	34.52
2.33978	34.52
2.35645	34.52
2.37312	34.52
2.38978	34.52
2.40645	34.51
2.42312	34.51
2.43978	34.52
2.45645	34.53
2.47312	34.53
2.48978	34.51
2.50645	34.41
2.52312	34.52
2.53978	34.52
2.55645	34.52
2.57312	34.52
2.58978	34.52
2.60645	34.52
2.62312	34.52
2.63978	34.52
2.65645	34.52
2.67312	34.52
2.68978	34.52
2.70645	34.52
2.72312	34.52
2.73978	34.52
2.75645	34.52
2.77312	34.52
2.78978	34.52
2.80645	34.52
2.82312	34.52
2.83978	34.52
2.85645	34.52
2.87312	34.52
2.88978	34.52
2.90645	34.52
2.92312	34.52
2.93978	34.52
2.95645	34.52
2.97312	34.52
2.98978	34.52
3.00645	34.52
3.02312	34.52
3.03978	34.52
3.05645	34.52
3.07312	34.52
3.08978	34.52
3.10645	34.52
3.12312	34.52
3.13978	34.52
3.15645	34.52
3.17312	34.52
3.18978	34.52
3.20645	34.51
3.22312	34.52
3.23978	34.51
3.25645	34.52
3.27312	34.52
3.28978	34.53
3.30645	34.52
3.32312	34.52
3.33978	34.52
3.35645	34.51
3.37312	34.52
3.38978	34.52
3.40645	34.52
3.42312	34.52
3.43978	34.52
3.45645	34.51
3.47312	34.52
3.48978	34.52
3.50645	34.52
3.52312	34.52
3.53978	34.52
3.55645	34.52
3.57312	34.52
3.58978	34.52
3.60645	34.52
3.62312	34.52
3.63978	34.52
3.65645	34.52
3.67312	34.52
3.68978	34.52
3.70645	34.52
3.72312	34.52
3.73978	34.52
3.75645	34.52
3.77312	34.52
3.78978	34.52
3.80645	34.52
3.82312	34.52
3.83978	34.52
3.85645	34.52
3.87312	34.52
3.88978	34.52
3.90645	34.52
3.92312	34.52
3.93978	34.52
3.95645	34.52
3.97312	34.52
3.98978	34.52

[Status Trace (Column Flow)]
Interval(msec)	1000
# of Points	240
Start Time(min)	0.006
End Time(min)	3.990
Intensity Units	
Intensity Multiplier	1
R.Time (min)	Intensity
0.00645	5.50
0.02312	5.23
0.03978	5.37
0.05645	5.63
0.07312	5.70
0.08978	5.52
0.10645	5.50
0.12312	5.50
0.13978	5.50
0.15645	5.50
0.17312	5.50
0.18978	5.50
0.20645	5.50
0.22312	5.51
0.23978	5.51
0.25645	5.51
0.27312	5.51
0.28978	5.51
0.30645	5.51
0.32312	5.51
0.33978	5.51
0.35645	5.51
0.37312	5.51
0.38978	5.51
0.40645	5.51
0.42312	5.51
0.43978	5.51
0.45645	5.51
0.47312	5.51
0.48978	5.51
0.50645	5.51
0.52312	5.51
0.53978	5.51
0.55645	5.51
0.57312	5.51
0.58978	5.51
0.60645	5.51
0.62312	5.50
0.63978	5.50
0.65645	5.50
0.67312	5.50
0.68978	5.50
0.70645	5.50
0.72312	5.50
0.73978	5.50
0.75645	5.50
0.77312	5.50
0.78978	5.50
0.80645	5.50
0.82312	5.50
0.83978	5.50
0.85645	5.50
0.87312	5.51
0.88978	5.51
0.90645	5.50
0.92312	5.51
0.93978	5.51
0.95645	5.51
0.97312	5.51
0.98978	5.50
1.00645	5.50
1.02312	5.50
1.03978	5.50
1.05645	5.50
1.07312	5.50
1.08978	5.51
1.10645	5.51
1.12312	5.51
1.13978	5.51
1.15645	5.51
1.17312	5.51
1.18978	5.51
1.20645	5.51
1.22312	5.51
1.23978	5.51
1.25645	5.50
1.27312	5.50
1.28978	5.50
1.30645	5.50
1.32312	5.50
1.33978	5.50
1.35645	5.50
1.37312	5.50
1.38978	5.51
1.40645	5.51
1.42312	5.51
1.43978	5.51
1.45645	5.51
1.47312	5.51
1.48978	5.50
1.50645	5.50
1.52312	5.50
1.53978	5.50
1.55645	5.50
1.57312	5.51
1.58978	5.50
1.60645	5.50
1.62312	5.50
1.63978	5.49
1.65645	5.49
1.67312	5.48
1.68978	5.46
1.70645	5.45
1.72312	5.44
1.73978	5.43
1.75645	5.42
1.77312	5.41
1.78978	5.40
1.80645	5.39
1.82312	5.38
1.83978	5.37
1.85645	5.36
1.87312	5.35
1.88978	5.34
1.90645	5.33
1.92312	5.32
1.93978	5.31
1.95645	5.30
1.97312	5.29
1.98978	5.28
2.00645	5.27
2.02312	5.26
2.03978	5.26
2.05645	5.25
2.07312	5.24
2.08978	5.23
2.10645	5.22
2.12312	5.21
2.13978	5.20
2.15645	5.19
2.17312	5.18
2.18978	5.17
2.20645	5.16
2.22312	5.15
2.23978	5.14
2.25645	5.13
2.27312	5.12
2.28978	5.12
2.30645	5.11
2.32312	5.10
2.33978	5.09
2.35645	5.08
2.37312	5.07
2.38978	5.07
2.40645	5.07
2.42312	5.07
2.43978	5.07
2.45645	5.07
2.47312	5.07
2.48978	5.07
2.50645	5.07
2.52312	5.07
2.53978	5.07
2.55645	5.07
2.57312	5.07
2.58978	5.07
2.60645	5.07
2.62312	5.07
2.63978	5.07
2.65645	5.07
2.67312	5.07
2.68978	5.07
2.70645	5.07
2.72312	5.07
2.73978	5.07
2.75645	5.07
2.77312	5.07
2.78978	5.07
2.80645	5.07
2.82312	5.07
2.83978	5.07
2.85645	5.07
2.87312	5.07
2.88978	5.06
2.90645	5.06
2.92312	5.06
2.93978	5.06
2.95645	5.06
2.97312	5.06
2.98978	5.06
3.00645	5.06
3.02312	5.06
3.03978	5.06
3.05645	5.06
3.07312	5.06
3.08978	5.06
3.10645	5.06
3.12312	5.06
3.13978	5.06
3.15645	5.06
3.17312	5.06
3.18978	5.06
3.20645	5.06
3.22312	5.06
3.23978	5.06
3.25645	5.06
3.27312	5.06
3.28978	5.06
3.30645	5.06
3.32312	5.06
3.33978	5.06
3.35645	5.06
3.37312	5.06
3.38978	5.06
3.40645	5.06
3.42312	5.06
3.43978	5.06
3.45645	5.06
3.47312	5.06
3.48978	5.06
3.50645	5.06
3.52312	5.06
3.53978	5.06
3.55645	5.06
3.57312	5.06
3.58978	5.06
3.60645	5.06
3.62312	5.06
3.63978	5.06
3.65645	5.06
3.67312	5.06
3.68978	5.06
3.70645	5.06
3.72312	5.06
3.73978	5.06
3.75645	5.06
3.77312	5.06
3.78978	5.06
3.80645	5.06
3.82312	5.06
3.83978	5.06
3.85645	5.06
3.87312	5.06
3.88978	5.06
3.90645	5.06
3.92312	5.06
3.93978	5.06
3.95645	5.06
3.97312	5.06
3.98978	5.06

[Status Trace (Linear Velocity)]
Interval(msec)	1000
# of Points	240
Start Time(min)	0.006
End Time(min)	3.990
Intensity Units	
Intensity Multiplier	1
R.Time (min)	Intensity
0.00645	39.01
0.02312	37.47
0.03978	38.26
0.05645	39.70
0.07312	40.10
0.08978	39.09
0.10645	38.99
0.12312	39.01
0.13978	39.02
0.15645	39.01
0.17312	39.01
0.18978	39.01
0.20645	39.01
0.22312	39.02
0.23978	39.02
0.25645	39.02
0.27312	39.02
0.28978	39.02
0.30645	39.02
0.32312	39.02
0.33978	39.02
0.35645	39.01
0.37312	39.02
0.38978	39.02
0.40645	39.02
0.42312	39.02
0.43978	39.02
0.45645	39.02
0.47312	39.02
0.48978	39.02
0.50645	39.02
0.52312	39.02
0.53978	39.02
0.55645	39.02
0.57312	39.02
0.58978	39.02
0.60645	39.01
0.62312	39.01
0.63978	39.01
0.65645	39.01
0.67312	39.01
0.68978	39.01
0.70645	39.01
0.72312	39.01
0.73978	39.01
0.75645	39.01
0.77312	39.01
0.78978	39.01
0.80645	39.01
0.82312	39.01
0.83978	39.01
0.85645	39.01
0.87312	39.01
0.88978	39.01
0.90645	39.01
0.92312	39.01
0.93978	39.01
0.95645	39.01
0.97312	39.01
0.98978	39.01
1.00645	39.01
1.02312	39.01
1.03978	39.01
1.05645	39.01
1.07312	39.01
1.08978	39.01
1.10645	39.01
1.12312	39.02
1.13978	39.01
1.15645	39.01
1.17312	39.01
1.18978	39.01
1.20645	39.01
1.22312	39.01
1.23978	39.01
1.25645	39.01
1.27312	39.01
1.28978	39.01
1.30645	39.01
1.32312	39.01
1.33978	39.01
1.35645	39.01
1.37312	39.01
1.38978	39.01
1.40645	39.01
1.42312	39.01
1.43978	39.02
1.45645	39.02
1.47312	39.01
1.48978	39.01
1.50645	39.01
1.52312	39.01
1.53978	39.01
1.55645	39.01
1.57312	39.01
1.58978	39.01
1.60645	39.01
1.62312	39.00
1.63978	38.98
1.65645	38.96
1.67312	38.93
1.68978	38.89
1.70645	38.85
1.72312	38.82
1.73978	38.79
1.75645	38.76
1.77312	38.73
1.78978	38.70
1.80645	38.67
1.82312	38.64
1.83978	38.60
1.85645	38.57
1.87312	38.54
1.88978	38.51
1.90645	38.48
1.92312	38.45
1.93978	38.42
1.95645	38.39
1.97312	38.36
1.98978	38.33
2.00645	38.30
2.02312	38.27
2.03978	38.24
2.05645	38.21
2.07312	38.18
2.08978	38.15
2.10645	38.12
2.12312	38.09
2.13978	38.06
2.15645	38.03
2.17312	38.00
2.18978	37.97
2.20645	37.94
2.22312	37.91
2.23978	37.88
2.25645	37.85
2.27312	37.82
2.28978	37.80
2.30645	37.76
2.32312	37.73
2.33978	37.71
2.35645	37.68
2.37312	37.66
2.38978	37.65
2.40645	37.65
2.42312	37.66
2.43978	37.66
2.45645	37.65
2.47312	37.65
2.48978	37.65
2.50645	37.65
2.52312	37.64
2.53978	37.65
2.55645	37.65
2.57312	37.65
2.58978	37.65
2.60645	37.64
2.62312	37.64
2.63978	37.64
2.65645	37.64
2.67312	37.64
2.68978	37.64
2.70645	37.64
2.72312	37.64
2.73978	37.64
2.75645	37.64
2.77312	37.64
2.78978	37.64
2.80645	37.64
2.82312	37.64
2.83978	37.64
2.85645	37.64
2.87312	37.64
2.88978	37.63
2.90645	37.63
2.92312	37.63
2.93978	37.63
2.95645	37.63
2.97312	37.63
2.98978	37.63
3.00645	37.63
3.02312	37.63
3.03978	37.63
3.05645	37.62
3.07312	37.62
3.08978	37.62
3.10645	37.62
3.12312	37.62
3.13978	37.62
3.15645	37.62
3.17312	37.62
3.18978	37.62
3.20645	37.62
3.22312	37.62
3.23978	37.62
3.25645	37.62
3.27312	37.62
3.28978	37.62
3.30645	37.62
3.32312	37.62
3.33978	37.62
3.35645	37.62
3.37312	37.62
3.38978	37.62
3.40645	37.62
3.42312	37.62
3.43978	37.62
3.45645	37.62
3.47312	37.63
3.48978	37.63
3.50645	37.63
3.52312	37.63
3.53978	37.63
3.55645	37.63
3.57312	37.63
3.58978	37.63
3.60645	37.63
3.62312	37.63
3.63978	37.63
3.65645	37.62
3.67312	37.62
3.68978	37.62
3.70645	37.62
3.72312	37.62
3.73978	37.62
3.75645	37.62
3.77312	37.62
3.78978	37.62
3.80645	37.62
3.82312	37.62
3.83978	37.62
3.85645	37.62
3.87312	37.62
3.88978	37.62
3.90645	37.62
3.92312	37.62
3.93978	37.62
3.95645	37.62
3.97312	37.62
3.98978	37.62

