[Header]
Application Name	LabSolutions
Version	5.110
Data File Name	C:\Users\User\Desktop\GC Analyses\Jack\UIC Prairie Sampling\9.2.22\220902_046.gcd
Output Date	10/28/2022
Output Time	1:23:54 PM

[File Information]
Type	Data File
Generated	10/26/2022 12:21:15 PM
Generated by	System Administrator
Modified	10/26/2022 12:26:20 PM
Modified by	System Administrator

[Sample Information]
Operator Name	System Administrator
Acquired	10/26/2022 12:22:18 PM
Sample Type	1:Standard
Level	1
Sample Name	220902_UICPrairie
Sample ID	220902_UICPrairie
ISTD Amount1	1
ISTD Amount2	1
ISTD Amount3	1
ISTD Amount4	1
ISTD Amount5	1
ISTD Amount6	1
ISTD Amount7	1
ISTD Amount8	1
ISTD Amount9	1
ISTD Amount10	1
ISTD Amount11	1
ISTD Amount12	1
ISTD Amount13	1
ISTD Amount14	1
ISTD Amount15	1
ISTD Amount16	1
ISTD Amount17	1
ISTD Amount18	1
ISTD Amount19	1
ISTD Amount20	1
ISTD Amount21	1
ISTD Amount22	1
ISTD Amount23	1
ISTD Amount24	1
ISTD Amount25	1
ISTD Amount26	1
ISTD Amount27	1
ISTD Amount28	1
ISTD Amount29	1
ISTD Amount30	1
ISTD Amount31	1
ISTD Amount32	1
Sample Amount	1
Dilution Factor	1
Vial#	1
Injection Volume	1
Injection Count	1
Bar Code	

[Original Files]
Data File	C:\Users\User\Desktop\GC Analyses\Jack\UIC Prairie Sampling\9.2.22\220902_046.gcd
Method File	C:\LabSolutions\Data\GHG_4min_2022\ghg3_togas_w_acet_4 min_new_int.gcm
Batch File	
Report Format File	c:\LabSolutions\System\DEFAULT.lsr

[File Description]


[Configuration]
Instrument Name	C0B7VH3-Instrument1
Instrument #	1
Line #	1
# of Detectors	3
Detector ID	DET#1	DET#2	DET#3
Detector Name	FID	PTCD	ECD
# of Channels	1	1	1

[Peak Table(Ch1)]
# of Peaks	3
Peak#	R.Time	I.Time	F.Time	Area	Height	A/H	Conc.	Mark	ID#	Name	k'	Plate #	Plate Ht.	Tailing	Resolution	Sep.Factor	Area Ratio	Height Ratio	Conc. %	Norm Conc.
1	1.476	1.435	1.538	11453	5040	2.272	100.000	   	1	CO	0.000	8280	18.115	1.286	0.000	0.000	0	0	16.667	16.667
2	1.571	1.538	1.644	4643	2306	2.013	100.000	 V 	2	CH4	0.065	11344	13.223	1.082	1.539	0.000	0	0	16.667	16.667
3	2.000	1.952	2.356	1639057	795487	2.060	400.000	   	3	CO2	0.355	17907	8.377	1.161	7.223	5.500	0	0	66.667	66.667

[Peak Table(Ch2)]
# of Peaks	0

[Peak Table(Ch3)]
# of Peaks	3
Peak#	R.Time	I.Time	F.Time	Area	Height	A/H	Conc.	Mark	ID#	Name	k'	Plate #	Plate Ht.	Tailing	Resolution	Sep.Factor	Area Ratio	Height Ratio	Conc. %	Norm Conc.
1	2.561	1.875	2.660	8901	824	10.796	0.000	   			0.000	1929	77.778	0.000	0.000	0.000	0	0	0.000	0.000
2	2.766	2.660	2.810	4045	481	8.410	0.104	 V 	1	N2O	0.080	37	4106.163	0.000	0.199	0.000	0	0	10.369	10.369
3	2.884	2.810	3.965	34971	5465	6.400	0.896	 V 	1	N2O	0.126	11712	12.807	0.000	0.121	1.571	0	0	89.631	89.631

[Compound Results(Ch1)]
# of IDs	6
ID#	Name	R.Time	Area	Height	Conc.	Curve	3rd	2nd	1st	Constant	Area Ratio	Height Ratio	Conc. %	Norm Conc.
1	CO	1.476	11453	5040	100.000	Linear	0.000000e+00	0.000000e+00	1.145255e+002	0.000000e+00	0	0	16.667	16.667
2	CH4	1.571	4643	2306	100.000	Linear	0.000000e+00	0.000000e+00	4.642665e+001	0.000000e+00	0	0	16.667	16.667
3	CO2	2.000	1639057	795487	400.000	Linear	0.000000e+00	0.000000e+00	4.097641e+003	0.000000e+00	0	0	66.667	66.667
4	Ethylene	0.000	0	0	0.000	Linear	0.000000e+00	0.000000e+00	0.000000e+00	0.000000e+00	0	0	0.000	0.000
5	Acetylene	0.000	0	0	0.000	Linear	0.000000e+00	0.000000e+00	0.000000e+00	0.000000e+00	0	0	0.000	0.000
6	Ethane	0.000	0	0	0.000	Linear	0.000000e+00	0.000000e+00	0.000000e+00	0.000000e+00	0	0	0.000	0.000

[Compound Results(Ch2)]
# of IDs	5
ID#	Name	R.Time	Area	Height	Conc.	Curve	3rd	2nd	1st	Constant	Area Ratio	Height Ratio	Conc. %	Norm Conc.
1	Hydrogen	0.000	0	0	0.000	Linear	0.000000e+00	0.000000e+00	0.000000e+00	0.000000e+00	0	0	0.000	0.000
2	Oxygen	0.000	0	0	0.000	Linear	0.000000e+00	0.000000e+00	0.000000e+00	0.000000e+00	0	0	0.000	0.000
3	Nitrogen	0.000	0	0	0.000	Linear	0.000000e+00	0.000000e+00	0.000000e+00	0.000000e+00	0	0	0.000	0.000
4	Methane	0.000	0	0	0.000	Linear	0.000000e+00	0.000000e+00	0.000000e+00	0.000000e+00	0	0	0.000	0.000
5	Carbon Monoxide	0.000	0	0	0.000	Linear	0.000000e+00	0.000000e+00	0.000000e+00	0.000000e+00	0	0	0.000	0.000

[Compound Results(Ch3)]
# of IDs	2
ID#	Name	R.Time	Area	Height	Conc.	Curve	3rd	2nd	1st	Constant	Area Ratio	Height Ratio	Conc. %	Norm Conc.
1	N2O	2.884	39016	5946	1.000	Linear	0.000000e+00	0.000000e+00	3.901630e+004	0.000000e+00	0	0	100.000	100.000
2	SF6	0.000	0	0	0.000	Linear	0.000000e+00	0.000000e+00	0.000000e+00	0.000000e+00	0	0	0.000	0.000

[Group Results(Ch1)]
# of Groups	0

[Group Results(Ch2)]
# of Groups	0

[Group Results(Ch3)]
# of Groups	0

[Chromatogram (Ch1)]
Interval(msec)	220
# of Points	1091
Start Time(min)	0.002
End Time(min)	3.998
R.Time (min)	Intensity
0.00167	9
0.00533	9
0.00900	10
0.01267	11
0.01633	11
0.02000	9
0.02367	9
0.02733	10
0.03100	11
0.03467	9
0.03833	2
0.04200	-4
0.04567	-7
0.04933	-11
0.05300	-13
0.05667	-15
0.06033	-15
0.06400	-12
0.06767	-6
0.07133	0
0.07500	4
0.07867	10
0.08233	20
0.08600	30
0.08967	31
0.09333	24
0.09700	17
0.10067	14
0.10433	10
0.10800	7
0.11167	6
0.11533	6
0.11900	6
0.12267	5
0.12633	1
0.13000	-5
0.13367	-8
0.13733	-8
0.14100	-6
0.14467	-5
0.14833	-3
0.15200	-1
0.15567	0
0.15933	-0
0.16300	-1
0.16667	-2
0.17033	-3
0.17400	-3
0.17767	-1
0.18133	2
0.18500	3
0.18867	1
0.19233	-1
0.19600	-4
0.19967	-9
0.20333	-12
0.20700	-15
0.21067	-18
0.21433	-18
0.21800	-14
0.22167	-7
0.22533	-3
0.22900	-2
0.23267	-2
0.23633	-2
0.24000	-2
0.24367	2
0.24733	10
0.25100	17
0.25467	17
0.25833	11
0.26200	1
0.26567	-8
0.26933	-12
0.27300	-15
0.27667	-17
0.28033	-15
0.28400	-13
0.28767	-11
0.29133	-11
0.29500	-13
0.29867	-13
0.30233	-8
0.30600	-2
0.30967	2
0.31333	4
0.31700	2
0.32067	-4
0.32433	-13
0.32800	-19
0.33167	-23
0.33533	-23
0.33900	-19
0.34267	-17
0.34633	-14
0.35000	-12
0.35367	-13
0.35733	-14
0.36100	-16
0.36467	-19
0.36833	-21
0.37200	-22
0.37567	-24
0.37933	-27
0.38300	-28
0.38667	-26
0.39033	-25
0.39400	-24
0.39767	-22
0.40133	-21
0.40500	-21
0.40867	-22
0.41233	-22
0.41600	-21
0.41967	-15
0.42333	-10
0.42700	-8
0.43067	-8
0.43433	-9
0.43800	-11
0.44167	-13
0.44533	-15
0.44900	-17
0.45267	-19
0.45633	-21
0.46000	-18
0.46367	-13
0.46733	-11
0.47100	-14
0.47467	-16
0.47833	-16
0.48200	-12
0.48567	-8
0.48933	-9
0.49300	-14
0.49667	-22
0.50033	-29
0.50400	-30
0.50767	-26
0.51133	-20
0.51500	-14
0.51867	-8
0.52233	-5
0.52600	-7
0.52967	-16
0.53333	-27
0.53700	-33
0.54067	-33
0.54433	-29
0.54800	-24
0.55167	-21
0.55533	-20
0.55900	-20
0.56267	-18
0.56633	-18
0.57000	-22
0.57367	-26
0.57733	-27
0.58100	-26
0.58467	-27
0.58833	-31
0.59200	-33
0.59567	-34
0.59933	-34
0.60300	-33
0.60667	-32
0.61033	-27
0.61400	-19
0.61767	-11
0.62133	-7
0.62500	-6
0.62867	-5
0.63233	-5
0.63600	-6
0.63967	-7
0.64333	-10
0.64700	-13
0.65067	-12
0.65433	-11
0.65800	-14
0.66167	-18
0.66533	-20
0.66900	-19
0.67267	-18
0.67633	-22
0.68000	-30
0.68367	-36
0.68733	-35
0.69100	-31
0.69467	-30
0.69833	-28
0.70200	-28
0.70567	-31
0.70933	-35
0.71300	-33
0.71667	-28
0.72033	-26
0.72400	-28
0.72767	-35
0.73133	-41
0.73500	-43
0.73867	-41
0.74233	-40
0.74600	-44
0.74967	-49
0.75333	-54
0.75700	-56
0.76067	-55
0.76433	-53
0.76800	-53
0.77167	-49
0.77533	-42
0.77900	-37
0.78267	-33
0.78633	-31
0.79000	-32
0.79367	-36
0.79733	-40
0.80100	-40
0.80467	-33
0.80833	-21
0.81200	-8
0.81567	-6
0.81933	-11
0.82300	-19
0.82667	-28
0.83033	-38
0.83400	-48
0.83767	-53
0.84133	-54
0.84500	-52
0.84867	-45
0.85233	-38
0.85600	-34
0.85967	-34
0.86333	-36
0.86700	-36
0.87067	-31
0.87433	-26
0.87800	-24
0.88167	-23
0.88533	-24
0.88900	-30
0.89267	-37
0.89633	-41
0.90000	-43
0.90367	-47
0.90733	-51
0.91100	-49
0.91467	-42
0.91833	-36
0.92200	-33
0.92567	-32
0.92933	-30
0.93300	-25
0.93667	-21
0.94033	-19
0.94400	-20
0.94767	-23
0.95133	-28
0.95500	-32
0.95867	-37
0.96233	-43
0.96600	-46
0.96967	-45
0.97333	-45
0.97700	-46
0.98067	-48
0.98433	-51
0.98800	-54
0.99167	-54
0.99533	-50
0.99900	-44
1.00267	-38
1.00633	-34
1.01000	-33
1.01367	-33
1.01733	-34
1.02100	-39
1.02467	-45
1.02833	-47
1.03200	-46
1.03567	-44
1.03933	-41
1.04300	-39
1.04667	-38
1.05033	-38
1.05400	-40
1.05767	-41
1.06133	-40
1.06500	-39
1.06867	-42
1.07233	-45
1.07600	-49
1.07967	-49
1.08333	-46
1.08700	-44
1.09067	-46
1.09433	-49
1.09800	-52
1.10167	-54
1.10533	-55
1.10900	-55
1.11267	-54
1.11633	-52
1.12000	-48
1.12367	-45
1.12733	-45
1.13100	-47
1.13467	-50
1.13833	-53
1.14200	-53
1.14567	-51
1.14933	-47
1.15300	-45
1.15667	-45
1.16033	-45
1.16400	-46
1.16767	-47
1.17133	-46
1.17500	-43
1.17867	-40
1.18233	-41
1.18600	-45
1.18967	-48
1.19333	-48
1.19700	-46
1.20067	-44
1.20433	-41
1.20800	-39
1.21167	-39
1.21533	-40
1.21900	-42
1.22267	-40
1.22633	-37
1.23000	-35
1.23367	-35
1.23733	-38
1.24100	-41
1.24467	-44
1.24833	-48
1.25200	-53
1.25567	-57
1.25933	-60
1.26300	-65
1.26667	-72
1.27033	-76
1.27400	-78
1.27767	-77
1.28133	-71
1.28500	-64
1.28867	-59
1.29233	-54
1.29600	-51
1.29967	-49
1.30333	-50
1.30700	-50
1.31067	-48
1.31433	-47
1.31800	-45
1.32167	-47
1.32533	-52
1.32900	-57
1.33267	-61
1.33633	-63
1.34000	-62
1.34367	-60
1.34733	-58
1.35100	-56
1.35467	-53
1.35833	-51
1.36200	-49
1.36567	-48
1.36933	-46
1.37300	-46
1.37667	-48
1.38033	-52
1.38400	-54
1.38767	-55
1.39133	-55
1.39500	-56
1.39867	-58
1.40233	-62
1.40600	-65
1.40967	-63
1.41333	-61
1.41700	-61
1.42067	-63
1.42433	-66
1.42800	-66
1.43167	-66
1.43533	-63
1.43900	-48
1.44267	23
1.44633	225
1.45000	587
1.45367	1146
1.45733	1924
1.46100	2814
1.46467	3648
1.46833	4314
1.47200	4766
1.47567	4972
1.47933	4903
1.48300	4551
1.48667	3965
1.49033	3255
1.49400	2542
1.49767	1910
1.50133	1398
1.50500	1008
1.50867	719
1.51233	507
1.51600	353
1.51967	245
1.52333	167
1.52700	112
1.53067	73
1.53433	46
1.53800	33
1.54167	59
1.54533	181
1.54900	450
1.55267	850
1.55633	1290
1.56000	1686
1.56367	1993
1.56733	2184
1.57100	2226
1.57467	2093
1.57833	1804
1.58200	1430
1.58567	1055
1.58933	732
1.59300	482
1.59667	303
1.60033	178
1.60400	94
1.60767	37
1.61133	-0
1.61500	-24
1.61867	-35
1.62233	-41
1.62600	-47
1.62967	-54
1.63333	-61
1.63700	-72
1.64067	-83
1.64433	-91
1.64800	-95
1.65167	-95
1.65533	-92
1.65900	-90
1.66267	-86
1.66633	-83
1.67000	-81
1.67367	-78
1.67733	-73
1.68100	-72
1.68467	-73
1.68833	-76
1.69200	-79
1.69567	-81
1.69933	-81
1.70300	-79
1.70667	-78
1.71033	-79
1.71400	-81
1.71767	-81
1.72133	-80
1.72500	-77
1.72867	-74
1.73233	-73
1.73600	-74
1.73967	-75
1.74333	-77
1.74700	-78
1.75067	-77
1.75433	-74
1.75800	-72
1.76167	-74
1.76533	-81
1.76900	-89
1.77267	-93
1.77633	-92
1.78000	-84
1.78367	-76
1.78733	-70
1.79100	-70
1.79467	-73
1.79833	-78
1.80200	-81
1.80567	-77
1.80933	-73
1.81300	-73
1.81667	-75
1.82033	-75
1.82400	-71
1.82767	-69
1.83133	-72
1.83500	-76
1.83867	-80
1.84233	-85
1.84600	-90
1.84967	-89
1.85333	-87
1.85700	-88
1.86067	-93
1.86433	-97
1.86800	-97
1.87167	-92
1.87533	-84
1.87900	-78
1.88267	-73
1.88633	-70
1.89000	-67
1.89367	-64
1.89733	-61
1.90100	-61
1.90467	-64
1.90833	-69
1.91200	-73
1.91567	-76
1.91933	-76
1.92300	-70
1.92667	-59
1.93033	-46
1.93400	-34
1.93767	-26
1.94133	-28
1.94500	-40
1.94867	-51
1.95233	-52
1.95600	17
1.95967	480
1.96333	2801
1.96700	11610
1.97067	37038
1.97433	93723
1.97800	192242
1.98167	328504
1.98533	482158
1.98900	625930
1.99267	735613
1.99633	794583
2.00000	795463
2.00367	740952
2.00733	644158
2.01100	525394
2.01467	405246
2.01833	298638
2.02200	212618
2.02567	147843
2.02933	101407
2.03300	69228
2.03667	47410
2.04033	32804
2.04400	23074
2.04767	16582
2.05133	12218
2.05500	9251
2.05867	7199
2.06233	5750
2.06600	4706
2.06967	3939
2.07333	3364
2.07700	2918
2.08067	2566
2.08433	2280
2.08800	2043
2.09167	1845
2.09533	1680
2.09900	1540
2.10267	1417
2.10633	1304
2.11000	1203
2.11367	1115
2.11733	1037
2.12100	969
2.12467	910
2.12833	858
2.13200	817
2.13567	780
2.13933	743
2.14300	706
2.14667	669
2.15033	636
2.15400	609
2.15767	585
2.16133	563
2.16500	540
2.16867	517
2.17233	495
2.17600	477
2.17967	463
2.18333	451
2.18700	440
2.19067	431
2.19433	424
2.19800	415
2.20167	401
2.20533	384
2.20900	370
2.21267	361
2.21633	353
2.22000	345
2.22367	337
2.22733	329
2.23100	323
2.23467	313
2.23833	303
2.24200	297
2.24567	293
2.24933	289
2.25300	283
2.25667	274
2.26033	265
2.26400	257
2.26767	250
2.27133	243
2.27500	234
2.27867	224
2.28233	215
2.28600	207
2.28967	204
2.29333	203
2.29700	204
2.30067	206
2.30433	211
2.30800	215
2.31167	214
2.31533	209
2.31900	203
2.32267	198
2.32633	194
2.33000	192
2.33367	190
2.33733	188
2.34100	185
2.34467	183
2.34833	180
2.35200	179
2.35567	177
2.35933	174
2.36300	169
2.36667	165
2.37033	162
2.37400	165
2.37767	172
2.38133	177
2.38500	177
2.38867	173
2.39233	168
2.39600	166
2.39967	170
2.40333	174
2.40700	172
2.41067	161
2.41433	148
2.41800	137
2.42167	127
2.42533	121
2.42900	118
2.43267	119
2.43633	121
2.44000	124
2.44367	127
2.44733	129
2.45100	131
2.45467	132
2.45833	134
2.46200	137
2.46567	138
2.46933	137
2.47300	137
2.47667	139
2.48033	138
2.48400	136
2.48767	131
2.49133	127
2.49500	127
2.49867	128
2.50233	131
2.50600	134
2.50967	133
2.51333	129
2.51700	126
2.52067	126
2.52433	129
2.52800	131
2.53167	132
2.53533	133
2.53900	134
2.54267	134
2.54633	131
2.55000	127
2.55367	125
2.55733	127
2.56100	131
2.56467	133
2.56833	131
2.57200	125
2.57567	121
2.57933	120
2.58300	122
2.58667	126
2.59033	127
2.59400	125
2.59767	119
2.60133	111
2.60500	105
2.60867	103
2.61233	103
2.61600	108
2.61967	113
2.62333	118
2.62700	120
2.63067	118
2.63433	115
2.63800	117
2.64167	126
2.64533	138
2.64900	146
2.65267	148
2.65633	144
2.66000	137
2.66367	129
2.66733	119
2.67100	111
2.67467	108
2.67833	107
2.68200	106
2.68567	105
2.68933	106
2.69300	109
2.69667	112
2.70033	116
2.70400	118
2.70767	121
2.71133	124
2.71500	128
2.71867	128
2.72233	127
2.72600	126
2.72967	123
2.73333	119
2.73700	115
2.74067	115
2.74433	119
2.74800	124
2.75167	129
2.75533	133
2.75900	134
2.76267	134
2.76633	134
2.77000	137
2.77367	140
2.77733	142
2.78100	141
2.78467	139
2.78833	140
2.79200	144
2.79567	148
2.79933	148
2.80300	143
2.80667	134
2.81033	126
2.81400	123
2.81767	124
2.82133	129
2.82500	135
2.82867	137
2.83233	136
2.83600	133
2.83967	132
2.84333	134
2.84700	138
2.85067	138
2.85433	135
2.85800	132
2.86167	129
2.86533	123
2.86900	118
2.87267	118
2.87633	124
2.88000	130
2.88367	137
2.88733	144
2.89100	146
2.89467	142
2.89833	131
2.90200	119
2.90567	109
2.90933	103
2.91300	104
2.91667	110
2.92033	117
2.92400	123
2.92767	128
2.93133	131
2.93500	134
2.93867	136
2.94233	139
2.94600	141
2.94967	143
2.95333	145
2.95700	146
2.96067	142
2.96433	132
2.96800	120
2.97167	111
2.97533	108
2.97900	111
2.98267	114
2.98633	117
2.99000	121
2.99367	124
2.99733	126
3.00100	126
3.00467	126
3.00833	127
3.01200	128
3.01567	128
3.01933	127
3.02300	124
3.02667	123
3.03033	125
3.03400	129
3.03767	134
3.04133	136
3.04500	137
3.04867	138
3.05233	138
3.05600	139
3.05967	138
3.06333	136
3.06700	135
3.07067	134
3.07433	134
3.07800	138
3.08167	143
3.08533	146
3.08900	147
3.09267	144
3.09633	137
3.10000	131
3.10367	130
3.10733	131
3.11100	132
3.11467	132
3.11833	132
3.12200	133
3.12567	133
3.12933	130
3.13300	126
3.13667	124
3.14033	122
3.14400	121
3.14767	120
3.15133	122
3.15500	123
3.15867	123
3.16233	123
3.16600	126
3.16967	133
3.17333	141
3.17700	146
3.18067	148
3.18433	148
3.18800	146
3.19167	143
3.19533	140
3.19900	138
3.20267	137
3.20633	136
3.21000	135
3.21367	135
3.21733	134
3.22100	130
3.22467	124
3.22833	120
3.23200	116
3.23567	111
3.23933	106
3.24300	104
3.24667	106
3.25033	110
3.25400	113
3.25767	118
3.26133	121
3.26500	120
3.26867	119
3.27233	121
3.27600	125
3.27967	127
3.28333	127
3.28700	125
3.29067	124
3.29433	124
3.29800	124
3.30167	127
3.30533	129
3.30900	129
3.31267	129
3.31633	130
3.32000	128
3.32367	129
3.32733	132
3.33100	134
3.33467	130
3.33833	126
3.34200	122
3.34567	118
3.34933	114
3.35300	114
3.35667	118
3.36033	124
3.36400	127
3.36767	130
3.37133	132
3.37500	131
3.37867	129
3.38233	125
3.38600	121
3.38967	118
3.39333	115
3.39700	111
3.40067	108
3.40433	108
3.40800	109
3.41167	111
3.41533	114
3.41900	116
3.42267	117
3.42633	118
3.43000	118
3.43367	117
3.43733	118
3.44100	118
3.44467	118
3.44833	120
3.45200	124
3.45567	128
3.45933	129
3.46300	128
3.46667	125
3.47033	125
3.47400	124
3.47767	122
3.48133	121
3.48500	121
3.48867	124
3.49233	125
3.49600	125
3.49967	127
3.50333	127
3.50700	124
3.51067	121
3.51433	118
3.51800	116
3.52167	118
3.52533	119
3.52900	116
3.53267	111
3.53633	104
3.54000	100
3.54367	99
3.54733	98
3.55100	96
3.55467	96
3.55833	97
3.56200	102
3.56567	110
3.56933	120
3.57300	124
3.57667	119
3.58033	110
3.58400	105
3.58767	106
3.59133	108
3.59500	112
3.59867	116
3.60233	115
3.60600	110
3.60967	107
3.61333	107
3.61700	111
3.62067	115
3.62433	118
3.62800	120
3.63167	122
3.63533	121
3.63900	119
3.64267	117
3.64633	116
3.65000	115
3.65367	112
3.65733	110
3.66100	111
3.66467	114
3.66833	117
3.67200	120
3.67567	120
3.67933	115
3.68300	111
3.68667	109
3.69033	110
3.69400	111
3.69767	112
3.70133	114
3.70500	113
3.70867	111
3.71233	110
3.71600	110
3.71967	111
3.72333	114
3.72700	120
3.73067	125
3.73433	126
3.73800	123
3.74167	115
3.74533	108
3.74900	106
3.75267	107
3.75633	110
3.76000	115
3.76367	121
3.76733	125
3.77100	127
3.77467	127
3.77833	128
3.78200	124
3.78567	117
3.78933	112
3.79300	110
3.79667	108
3.80033	106
3.80400	107
3.80767	109
3.81133	109
3.81500	106
3.81867	102
3.82233	97
3.82600	91
3.82967	89
3.83333	90
3.83700	96
3.84067	103
3.84433	110
3.84800	111
3.85167	107
3.85533	102
3.85900	101
3.86267	102
3.86633	104
3.87000	107
3.87367	114
3.87733	121
3.88100	121
3.88467	115
3.88833	108
3.89200	104
3.89567	101
3.89933	97
3.90300	95
3.90667	93
3.91033	92
3.91400	95
3.91767	100
3.92133	105
3.92500	108
3.92867	108
3.93233	105
3.93600	101
3.93967	98
3.94333	98
3.94700	99
3.95067	103
3.95433	108
3.95800	111
3.96167	110
3.96533	107
3.96900	103
3.97267	98
3.97633	93
3.98000	92
3.98367	96
3.98733	102
3.99100	108
3.99467	109
3.99833	104

[Chromatogram (Ch2)]
Interval(msec)	220
# of Points	1091
Start Time(min)	0.002
End Time(min)	3.998
R.Time (min)	Intensity
0.00167	-0
0.00533	-1
0.00900	-1
0.01267	-1
0.01633	-1
0.02000	-1
0.02367	-2
0.02733	-2
0.03100	-1
0.03467	-1
0.03833	-1
0.04200	-1
0.04567	-1
0.04933	-1
0.05300	-1
0.05667	-2
0.06033	-2
0.06400	-2
0.06767	-2
0.07133	-3
0.07500	-3
0.07867	-3
0.08233	-3
0.08600	-3
0.08967	-3
0.09333	-3
0.09700	-4
0.10067	-4
0.10433	-4
0.10800	-5
0.11167	-5
0.11533	-5
0.11900	-5
0.12267	-5
0.12633	-5
0.13000	-5
0.13367	-6
0.13733	-6
0.14100	-6
0.14467	-6
0.14833	-6
0.15200	-6
0.15567	-6
0.15933	-6
0.16300	-6
0.16667	-6
0.17033	-5
0.17400	-5
0.17767	-5
0.18133	-5
0.18500	-4
0.18867	-4
0.19233	-4
0.19600	-3
0.19967	-3
0.20333	-3
0.20700	-3
0.21067	-3
0.21433	-3
0.21800	-3
0.22167	-2
0.22533	-2
0.22900	-2
0.23267	-2
0.23633	-2
0.24000	-2
0.24367	-1
0.24733	-1
0.25100	-1
0.25467	-1
0.25833	-0
0.26200	-0
0.26567	-0
0.26933	-0
0.27300	-0
0.27667	-0
0.28033	-1
0.28400	-1
0.28767	-1
0.29133	-1
0.29500	-1
0.29867	-1
0.30233	-1
0.30600	-1
0.30967	-0
0.31333	-0
0.31700	0
0.32067	0
0.32433	0
0.32800	1
0.33167	1
0.33533	1
0.33900	1
0.34267	2
0.34633	2
0.35000	2
0.35367	2
0.35733	2
0.36100	1
0.36467	1
0.36833	1
0.37200	1
0.37567	1
0.37933	1
0.38300	1
0.38667	1
0.39033	0
0.39400	-0
0.39767	-0
0.40133	-1
0.40500	-1
0.40867	-1
0.41233	-1
0.41600	-1
0.41967	-1
0.42333	-1
0.42700	-2
0.43067	-2
0.43433	-2
0.43800	-3
0.44167	-3
0.44533	-3
0.44900	-4
0.45267	-4
0.45633	-4
0.46000	-5
0.46367	-5
0.46733	-5
0.47100	-5
0.47467	-6
0.47833	-6
0.48200	-7
0.48567	-7
0.48933	-7
0.49300	-7
0.49667	-7
0.50033	-7
0.50400	-7
0.50767	-7
0.51133	-7
0.51500	-6
0.51867	-6
0.52233	-6
0.52600	-6
0.52967	-5
0.53333	-5
0.53700	-5
0.54067	-5
0.54433	-5
0.54800	-4
0.55167	-4
0.55533	-4
0.55900	-4
0.56267	-4
0.56633	-4
0.57000	-4
0.57367	-4
0.57733	-4
0.58100	-3
0.58467	-3
0.58833	-3
0.59200	-2
0.59567	-2
0.59933	-2
0.60300	-2
0.60667	-2
0.61033	-2
0.61400	-1
0.61767	-1
0.62133	-1
0.62500	-1
0.62867	-1
0.63233	-2
0.63600	-2
0.63967	-2
0.64333	-2
0.64700	-1
0.65067	-1
0.65433	-1
0.65800	-1
0.66167	-1
0.66533	-0
0.66900	-0
0.67267	-0
0.67633	-0
0.68000	-0
0.68367	-1
0.68733	-1
0.69100	-1
0.69467	-1
0.69833	-1
0.70200	-1
0.70567	-1
0.70933	-1
0.71300	-0
0.71667	-0
0.72033	-1
0.72400	-1
0.72767	-1
0.73133	-1
0.73500	-1
0.73867	-1
0.74233	-1
0.74600	-2
0.74967	-2
0.75333	-2
0.75700	-2
0.76067	-2
0.76433	-2
0.76800	-2
0.77167	-2
0.77533	-2
0.77900	-2
0.78267	-3
0.78633	-3
0.79000	-3
0.79367	-3
0.79733	-3
0.80100	-3
0.80467	-3
0.80833	-2
0.81200	-2
0.81567	-2
0.81933	-2
0.82300	-2
0.82667	-2
0.83033	-2
0.83400	-2
0.83767	-3
0.84133	-3
0.84500	-4
0.84867	-4
0.85233	-4
0.85600	-5
0.85967	-5
0.86333	-5
0.86700	-5
0.87067	-5
0.87433	-5
0.87800	-4
0.88167	-4
0.88533	-4
0.88900	-4
0.89267	-4
0.89633	-4
0.90000	-4
0.90367	-4
0.90733	-4
0.91100	-4
0.91467	-4
0.91833	-4
0.92200	-4
0.92567	-4
0.92933	-5
0.93300	-5
0.93667	-5
0.94033	-4
0.94400	-4
0.94767	-4
0.95133	-4
0.95500	-4
0.95867	-4
0.96233	-4
0.96600	-4
0.96967	-4
0.97333	-5
0.97700	-5
0.98067	-5
0.98433	-5
0.98800	-5
0.99167	-5
0.99533	-5
0.99900	-5
1.00267	-5
1.00633	-5
1.01000	-6
1.01367	-6
1.01733	-6
1.02100	-6
1.02467	-5
1.02833	-5
1.03200	-5
1.03567	-4
1.03933	-4
1.04300	-4
1.04667	-3
1.05033	-3
1.05400	-3
1.05767	-2
1.06133	-2
1.06500	-2
1.06867	-2
1.07233	-2
1.07600	-2
1.07967	-2
1.08333	-2
1.08700	-2
1.09067	-2
1.09433	-2
1.09800	-2
1.10167	-2
1.10533	-2
1.10900	-2
1.11267	-3
1.11633	-3
1.12000	-3
1.12367	-3
1.12733	-3
1.13100	-3
1.13467	-3
1.13833	-4
1.14200	-4
1.14567	-4
1.14933	-4
1.15300	-4
1.15667	-5
1.16033	-5
1.16400	-5
1.16767	-5
1.17133	-5
1.17500	-5
1.17867	-5
1.18233	-5
1.18600	-5
1.18967	-5
1.19333	-5
1.19700	-5
1.20067	-5
1.20433	-5
1.20800	-5
1.21167	-5
1.21533	-5
1.21900	-5
1.22267	-5
1.22633	-5
1.23000	-5
1.23367	-5
1.23733	-5
1.24100	-5
1.24467	-5
1.24833	-5
1.25200	-5
1.25567	-4
1.25933	-4
1.26300	-4
1.26667	-4
1.27033	-3
1.27400	-3
1.27767	-3
1.28133	-3
1.28500	-2
1.28867	-2
1.29233	-2
1.29600	-2
1.29967	-2
1.30333	-2
1.30700	-2
1.31067	-2
1.31433	-2
1.31800	-2
1.32167	-2
1.32533	-2
1.32900	-2
1.33267	-2
1.33633	-2
1.34000	-2
1.34367	-1
1.34733	-1
1.35100	-1
1.35467	-2
1.35833	-2
1.36200	-2
1.36567	-2
1.36933	-3
1.37300	-3
1.37667	-3
1.38033	-4
1.38400	-4
1.38767	-4
1.39133	-4
1.39500	-4
1.39867	-4
1.40233	-4
1.40600	-4
1.40967	-4
1.41333	-5
1.41700	-5
1.42067	-5
1.42433	-5
1.42800	-5
1.43167	-5
1.43533	-5
1.43900	-5
1.44267	-5
1.44633	-5
1.45000	-5
1.45367	-4
1.45733	-4
1.46100	-4
1.46467	-4
1.46833	-5
1.47200	-5
1.47567	-5
1.47933	-5
1.48300	-5
1.48667	-5
1.49033	-5
1.49400	-5
1.49767	-5
1.50133	-5
1.50500	-5
1.50867	-5
1.51233	-5
1.51600	-5
1.51967	-5
1.52333	-5
1.52700	-5
1.53067	-5
1.53433	-5
1.53800	-5
1.54167	-5
1.54533	-5
1.54900	-5
1.55267	-5
1.55633	-5
1.56000	-5
1.56367	-5
1.56733	-5
1.57100	-5
1.57467	-5
1.57833	-4
1.58200	-4
1.58567	-4
1.58933	-5
1.59300	-5
1.59667	-6
1.60033	-7
1.60400	-8
1.60767	-9
1.61133	-11
1.61500	-13
1.61867	-15
1.62233	-17
1.62600	-20
1.62967	-23
1.63333	-26
1.63700	-29
1.64067	-32
1.64433	-36
1.64800	-39
1.65167	-43
1.65533	-46
1.65900	-50
1.66267	-54
1.66633	-58
1.67000	-62
1.67367	-67
1.67733	-72
1.68100	-77
1.68467	-82
1.68833	-86
1.69200	-91
1.69567	-95
1.69933	-99
1.70300	-102
1.70667	-105
1.71033	-107
1.71400	-108
1.71767	-110
1.72133	-111
1.72500	-112
1.72867	-113
1.73233	-113
1.73600	-114
1.73967	-115
1.74333	-116
1.74700	-117
1.75067	-118
1.75433	-119
1.75800	-120
1.76167	-121
1.76533	-122
1.76900	-123
1.77267	-123
1.77633	-122
1.78000	-122
1.78367	-121
1.78733	-121
1.79100	-120
1.79467	-120
1.79833	-121
1.80200	-121
1.80567	-122
1.80933	-123
1.81300	-124
1.81667	-125
1.82033	-125
1.82400	-126
1.82767	-126
1.83133	-126
1.83500	-125
1.83867	-124
1.84233	-123
1.84600	-122
1.84967	-122
1.85333	-122
1.85700	-122
1.86067	-122
1.86433	-122
1.86800	-122
1.87167	-122
1.87533	-123
1.87900	-123
1.88267	-123
1.88633	-123
1.89000	-123
1.89367	-123
1.89733	-122
1.90100	-122
1.90467	-122
1.90833	-121
1.91200	-121
1.91567	-121
1.91933	-121
1.92300	-121
1.92667	-120
1.93033	-119
1.93400	-119
1.93767	-119
1.94133	-119
1.94500	-119
1.94867	-119
1.95233	-118
1.95600	-118
1.95967	-118
1.96333	-118
1.96700	-118
1.97067	-118
1.97433	-117
1.97800	-117
1.98167	-116
1.98533	-116
1.98900	-116
1.99267	-116
1.99633	-116
2.00000	-116
2.00367	-116
2.00733	-117
2.01100	-117
2.01467	-117
2.01833	-117
2.02200	-117
2.02567	-117
2.02933	-116
2.03300	-116
2.03667	-116
2.04033	-116
2.04400	-115
2.04767	-115
2.05133	-114
2.05500	-113
2.05867	-113
2.06233	-112
2.06600	-112
2.06967	-111
2.07333	-111
2.07700	-111
2.08067	-110
2.08433	-110
2.08800	-110
2.09167	-110
2.09533	-110
2.09900	-110
2.10267	-110
2.10633	-110
2.11000	-110
2.11367	-109
2.11733	-109
2.12100	-108
2.12467	-108
2.12833	-107
2.13200	-107
2.13567	-106
2.13933	-106
2.14300	-106
2.14667	-106
2.15033	-106
2.15400	-106
2.15767	-106
2.16133	-106
2.16500	-106
2.16867	-106
2.17233	-105
2.17600	-105
2.17967	-104
2.18333	-104
2.18700	-103
2.19067	-103
2.19433	-102
2.19800	-101
2.20167	-100
2.20533	-99
2.20900	-98
2.21267	-97
2.21633	-97
2.22000	-97
2.22367	-97
2.22733	-98
2.23100	-98
2.23467	-97
2.23833	-97
2.24200	-97
2.24567	-96
2.24933	-96
2.25300	-95
2.25667	-95
2.26033	-95
2.26400	-95
2.26767	-95
2.27133	-95
2.27500	-94
2.27867	-94
2.28233	-94
2.28600	-93
2.28967	-93
2.29333	-93
2.29700	-92
2.30067	-92
2.30433	-93
2.30800	-93
2.31167	-94
2.31533	-94
2.31900	-94
2.32267	-93
2.32633	-92
2.33000	-92
2.33367	-91
2.33733	-91
2.34100	-91
2.34467	-90
2.34833	-90
2.35200	-89
2.35567	-88
2.35933	-88
2.36300	-87
2.36667	-86
2.37033	-85
2.37400	-83
2.37767	-81
2.38133	-78
2.38500	-74
2.38867	-70
2.39233	-66
2.39600	-62
2.39967	-57
2.40333	-53
2.40700	-48
2.41067	-44
2.41433	-40
2.41800	-36
2.42167	-32
2.42533	-28
2.42900	-25
2.43267	-22
2.43633	-20
2.44000	-18
2.44367	-16
2.44733	-14
2.45100	-12
2.45467	-11
2.45833	-9
2.46200	-7
2.46567	-6
2.46933	-5
2.47300	-3
2.47667	-3
2.48033	-2
2.48400	-1
2.48767	0
2.49133	1
2.49500	2
2.49867	3
2.50233	3
2.50600	4
2.50967	4
2.51333	4
2.51700	5
2.52067	6
2.52433	6
2.52800	7
2.53167	8
2.53533	8
2.53900	8
2.54267	9
2.54633	9
2.55000	10
2.55367	10
2.55733	10
2.56100	10
2.56467	11
2.56833	11
2.57200	11
2.57567	11
2.57933	11
2.58300	11
2.58667	11
2.59033	12
2.59400	12
2.59767	12
2.60133	12
2.60500	13
2.60867	13
2.61233	13
2.61600	14
2.61967	14
2.62333	14
2.62700	15
2.63067	15
2.63433	15
2.63800	15
2.64167	15
2.64533	15
2.64900	15
2.65267	15
2.65633	15
2.66000	15
2.66367	16
2.66733	16
2.67100	16
2.67467	16
2.67833	17
2.68200	17
2.68567	18
2.68933	19
2.69300	20
2.69667	20
2.70033	20
2.70400	20
2.70767	20
2.71133	20
2.71500	20
2.71867	20
2.72233	20
2.72600	20
2.72967	20
2.73333	20
2.73700	20
2.74067	21
2.74433	21
2.74800	21
2.75167	21
2.75533	22
2.75900	22
2.76267	22
2.76633	22
2.77000	22
2.77367	22
2.77733	22
2.78100	22
2.78467	22
2.78833	22
2.79200	22
2.79567	22
2.79933	22
2.80300	22
2.80667	22
2.81033	22
2.81400	21
2.81767	21
2.82133	21
2.82500	21
2.82867	21
2.83233	21
2.83600	21
2.83967	21
2.84333	21
2.84700	20
2.85067	19
2.85433	15
2.85800	10
2.86167	2
2.86533	-9
2.86900	-23
2.87267	-42
2.87633	-64
2.88000	-90
2.88367	-120
2.88733	-154
2.89100	-192
2.89467	-232
2.89833	-275
2.90200	-321
2.90567	-368
2.90933	-417
2.91300	-467
2.91667	-517
2.92033	-567
2.92400	-617
2.92767	-667
2.93133	-717
2.93500	-766
2.93867	-815
2.94233	-868
2.94600	-927
2.94967	-989
2.95333	-1045
2.95700	-1085
2.96067	-1100
2.96433	-1089
2.96800	-1053
2.97167	-997
2.97533	-929
2.97900	-852
2.98267	-771
2.98633	-692
2.99000	-614
2.99367	-541
2.99733	-474
3.00100	-412
3.00467	-357
3.00833	-307
3.01200	-264
3.01567	-226
3.01933	-192
3.02300	-163
3.02667	-138
3.03033	-117
3.03400	-98
3.03767	-82
3.04133	-68
3.04500	-56
3.04867	-46
3.05233	-38
3.05600	-30
3.05967	-24
3.06333	-19
3.06700	-15
3.07067	-11
3.07433	-8
3.07800	-6
3.08167	-4
3.08533	-2
3.08900	-0
3.09267	1
3.09633	3
3.10000	4
3.10367	5
3.10733	5
3.11100	6
3.11467	7
3.11833	8
3.12200	8
3.12567	9
3.12933	9
3.13300	10
3.13667	10
3.14033	11
3.14400	12
3.14767	12
3.15133	13
3.15500	14
3.15867	14
3.16233	15
3.16600	15
3.16967	16
3.17333	16
3.17700	17
3.18067	17
3.18433	18
3.18800	18
3.19167	19
3.19533	19
3.19900	19
3.20267	20
3.20633	20
3.21000	21
3.21367	21
3.21733	21
3.22100	22
3.22467	22
3.22833	22
3.23200	23
3.23567	23
3.23933	23
3.24300	23
3.24667	23
3.25033	23
3.25400	23
3.25767	23
3.26133	23
3.26500	24
3.26867	24
3.27233	24
3.27600	24
3.27967	24
3.28333	24
3.28700	24
3.29067	24
3.29433	24
3.29800	24
3.30167	24
3.30533	24
3.30900	24
3.31267	23
3.31633	23
3.32000	23
3.32367	23
3.32733	23
3.33100	22
3.33467	22
3.33833	22
3.34200	22
3.34567	21
3.34933	21
3.35300	21
3.35667	21
3.36033	22
3.36400	22
3.36767	22
3.37133	22
3.37500	22
3.37867	22
3.38233	23
3.38600	23
3.38967	23
3.39333	23
3.39700	23
3.40067	23
3.40433	23
3.40800	23
3.41167	23
3.41533	23
3.41900	23
3.42267	24
3.42633	24
3.43000	24
3.43367	24
3.43733	24
3.44100	24
3.44467	24
3.44833	24
3.45200	24
3.45567	24
3.45933	24
3.46300	24
3.46667	24
3.47033	24
3.47400	24
3.47767	24
3.48133	24
3.48500	24
3.48867	23
3.49233	23
3.49600	23
3.49967	23
3.50333	23
3.50700	23
3.51067	23
3.51433	23
3.51800	23
3.52167	23
3.52533	23
3.52900	23
3.53267	23
3.53633	23
3.54000	23
3.54367	23
3.54733	23
3.55100	23
3.55467	23
3.55833	23
3.56200	23
3.56567	23
3.56933	23
3.57300	23
3.57667	23
3.58033	23
3.58400	23
3.58767	22
3.59133	22
3.59500	22
3.59867	22
3.60233	22
3.60600	22
3.60967	22
3.61333	22
3.61700	22
3.62067	21
3.62433	21
3.62800	21
3.63167	22
3.63533	22
3.63900	22
3.64267	22
3.64633	22
3.65000	22
3.65367	22
3.65733	22
3.66100	22
3.66467	23
3.66833	23
3.67200	23
3.67567	23
3.67933	23
3.68300	23
3.68667	23
3.69033	23
3.69400	23
3.69767	23
3.70133	23
3.70500	23
3.70867	24
3.71233	24
3.71600	24
3.71967	24
3.72333	24
3.72700	24
3.73067	24
3.73433	24
3.73800	24
3.74167	24
3.74533	24
3.74900	24
3.75267	24
3.75633	24
3.76000	24
3.76367	24
3.76733	24
3.77100	24
3.77467	24
3.77833	24
3.78200	24
3.78567	24
3.78933	24
3.79300	24
3.79667	23
3.80033	23
3.80400	23
3.80767	23
3.81133	23
3.81500	23
3.81867	23
3.82233	23
3.82600	23
3.82967	23
3.83333	23
3.83700	23
3.84067	23
3.84433	24
3.84800	24
3.85167	24
3.85533	23
3.85900	23
3.86267	23
3.86633	23
3.87000	23
3.87367	23
3.87733	23
3.88100	23
3.88467	23
3.88833	23
3.89200	24
3.89567	24
3.89933	24
3.90300	24
3.90667	24
3.91033	24
3.91400	24
3.91767	24
3.92133	24
3.92500	24
3.92867	25
3.93233	25
3.93600	25
3.93967	25
3.94333	25
3.94700	25
3.95067	25
3.95433	26
3.95800	26
3.96167	26
3.96533	26
3.96900	26
3.97267	26
3.97633	26
3.98000	26
3.98367	26
3.98733	26
3.99100	26
3.99467	25
3.99833	25

[Chromatogram (Ch3)]
Interval(msec)	220
# of Points	1091
Start Time(min)	0.002
End Time(min)	3.998
R.Time (min)	Intensity
0.00167	1
0.00533	1
0.00900	2
0.01267	2
0.01633	-0
0.02000	-0
0.02367	-1
0.02733	-0
0.03100	2
0.03467	3
0.03833	1
0.04200	2
0.04567	3
0.04933	3
0.05300	2
0.05667	2
0.06033	1
0.06400	3
0.06767	5
0.07133	4
0.07500	4
0.07867	3
0.08233	2
0.08600	0
0.08967	-2
0.09333	-4
0.09700	-3
0.10067	2
0.10433	6
0.10800	8
0.11167	10
0.11533	11
0.11900	8
0.12267	5
0.12633	4
0.13000	5
0.13367	6
0.13733	7
0.14100	7
0.14467	7
0.14833	8
0.15200	6
0.15567	7
0.15933	6
0.16300	6
0.16667	6
0.17033	8
0.17400	10
0.17767	11
0.18133	12
0.18500	12
0.18867	11
0.19233	11
0.19600	8
0.19967	8
0.20333	9
0.20700	9
0.21067	8
0.21433	7
0.21800	9
0.22167	11
0.22533	10
0.22900	10
0.23267	9
0.23633	7
0.24000	5
0.24367	4
0.24733	4
0.25100	5
0.25467	6
0.25833	7
0.26200	6
0.26567	5
0.26933	3
0.27300	3
0.27667	4
0.28033	5
0.28400	6
0.28767	7
0.29133	9
0.29500	10
0.29867	8
0.30233	5
0.30600	2
0.30967	1
0.31333	3
0.31700	3
0.32067	6
0.32433	7
0.32800	6
0.33167	4
0.33533	4
0.33900	6
0.34267	7
0.34633	6
0.35000	4
0.35367	3
0.35733	3
0.36100	3
0.36467	4
0.36833	4
0.37200	2
0.37567	1
0.37933	3
0.38300	4
0.38667	6
0.39033	7
0.39400	7
0.39767	6
0.40133	5
0.40500	5
0.40867	5
0.41233	5
0.41600	4
0.41967	2
0.42333	2
0.42700	2
0.43067	4
0.43433	5
0.43800	4
0.44167	4
0.44533	6
0.44900	6
0.45267	6
0.45633	8
0.46000	9
0.46367	7
0.46733	6
0.47100	8
0.47467	11
0.47833	12
0.48200	12
0.48567	11
0.48933	9
0.49300	8
0.49667	8
0.50033	8
0.50400	8
0.50767	7
0.51133	4
0.51500	3
0.51867	4
0.52233	4
0.52600	6
0.52967	7
0.53333	6
0.53700	4
0.54067	4
0.54433	6
0.54800	6
0.55167	6
0.55533	7
0.55900	8
0.56267	9
0.56633	9
0.57000	8
0.57367	8
0.57733	8
0.58100	7
0.58467	6
0.58833	7
0.59200	9
0.59567	9
0.59933	9
0.60300	7
0.60667	7
0.61033	7
0.61400	8
0.61767	7
0.62133	7
0.62500	8
0.62867	8
0.63233	6
0.63600	5
0.63967	4
0.64333	4
0.64700	5
0.65067	9
0.65433	12
0.65800	13
0.66167	12
0.66533	9
0.66900	8
0.67267	8
0.67633	8
0.68000	8
0.68367	8
0.68733	9
0.69100	11
0.69467	12
0.69833	11
0.70200	8
0.70567	6
0.70933	5
0.71300	4
0.71667	6
0.72033	10
0.72400	15
0.72767	15
0.73133	14
0.73500	13
0.73867	9
0.74233	7
0.74600	6
0.74967	8
0.75333	10
0.75700	14
0.76067	15
0.76433	13
0.76800	12
0.77167	13
0.77533	13
0.77900	12
0.78267	11
0.78633	9
0.79000	8
0.79367	6
0.79733	6
0.80100	7
0.80467	7
0.80833	9
0.81200	9
0.81567	10
0.81933	11
0.82300	11
0.82667	11
0.83033	10
0.83400	10
0.83767	9
0.84133	10
0.84500	11
0.84867	11
0.85233	11
0.85600	12
0.85967	13
0.86333	13
0.86700	13
0.87067	12
0.87433	9
0.87800	6
0.88167	5
0.88533	6
0.88900	8
0.89267	11
0.89633	13
0.90000	16
0.90367	16
0.90733	15
0.91100	15
0.91467	16
0.91833	16
0.92200	15
0.92567	15
0.92933	14
0.93300	13
0.93667	15
0.94033	15
0.94400	13
0.94767	11
0.95133	10
0.95500	7
0.95867	6
0.96233	7
0.96600	10
0.96967	12
0.97333	13
0.97700	13
0.98067	12
0.98433	12
0.98800	14
0.99167	17
0.99533	18
0.99900	17
1.00267	18
1.00633	19
1.01000	18
1.01367	18
1.01733	19
1.02100	19
1.02467	20
1.02833	16
1.03200	11
1.03567	9
1.03933	8
1.04300	6
1.04667	6
1.05033	7
1.05400	8
1.05767	11
1.06133	13
1.06500	12
1.06867	11
1.07233	12
1.07600	14
1.07967	16
1.08333	17
1.08700	19
1.09067	20
1.09433	20
1.09800	18
1.10167	14
1.10533	11
1.10900	9
1.11267	7
1.11633	8
1.12000	10
1.12367	13
1.12733	15
1.13100	16
1.13467	18
1.13833	18
1.14200	17
1.14567	17
1.14933	16
1.15300	16
1.15667	18
1.16033	18
1.16400	15
1.16767	15
1.17133	15
1.17500	12
1.17867	11
1.18233	13
1.18600	12
1.18967	14
1.19333	15
1.19700	16
1.20067	18
1.20433	16
1.20800	16
1.21167	14
1.21533	14
1.21900	13
1.22267	13
1.22633	12
1.23000	13
1.23367	15
1.23733	14
1.24100	12
1.24467	13
1.24833	13
1.25200	9
1.25567	5
1.25933	6
1.26300	9
1.26667	13
1.27033	13
1.27400	11
1.27767	10
1.28133	12
1.28500	12
1.28867	9
1.29233	7
1.29600	5
1.29967	5
1.30333	7
1.30700	9
1.31067	11
1.31433	13
1.31800	12
1.32167	10
1.32533	11
1.32900	12
1.33267	14
1.33633	14
1.34000	15
1.34367	15
1.34733	15
1.35100	16
1.35467	15
1.35833	13
1.36200	10
1.36567	9
1.36933	8
1.37300	7
1.37667	9
1.38033	10
1.38400	11
1.38767	13
1.39133	16
1.39500	15
1.39867	13
1.40233	11
1.40600	11
1.40967	9
1.41333	7
1.41700	6
1.42067	5
1.42433	5
1.42800	5
1.43167	6
1.43533	7
1.43900	7
1.44267	6
1.44633	6
1.45000	7
1.45367	9
1.45733	9
1.46100	7
1.46467	9
1.46833	11
1.47200	9
1.47567	6
1.47933	3
1.48300	1
1.48667	3
1.49033	4
1.49400	3
1.49767	4
1.50133	6
1.50500	7
1.50867	9
1.51233	11
1.51600	10
1.51967	8
1.52333	6
1.52700	4
1.53067	4
1.53433	5
1.53800	6
1.54167	5
1.54533	3
1.54900	4
1.55267	7
1.55633	9
1.56000	8
1.56367	8
1.56733	7
1.57100	6
1.57467	5
1.57833	5
1.58200	5
1.58567	4
1.58933	4
1.59300	4
1.59667	3
1.60033	6
1.60400	8
1.60767	8
1.61133	7
1.61500	8
1.61867	8
1.62233	7
1.62600	9
1.62967	11
1.63333	12
1.63700	9
1.64067	9
1.64433	11
1.64800	9
1.65167	8
1.65533	8
1.65900	8
1.66267	8
1.66633	7
1.67000	10
1.67367	13
1.67733	14
1.68100	14
1.68467	13
1.68833	11
1.69200	11
1.69567	11
1.69933	13
1.70300	14
1.70667	17
1.71033	18
1.71400	18
1.71767	20
1.72133	19
1.72500	17
1.72867	16
1.73233	18
1.73600	21
1.73967	21
1.74333	22
1.74700	21
1.75067	22
1.75433	21
1.75800	20
1.76167	18
1.76533	19
1.76900	21
1.77267	21
1.77633	20
1.78000	20
1.78367	16
1.78733	14
1.79100	15
1.79467	16
1.79833	18
1.80200	22
1.80567	22
1.80933	21
1.81300	22
1.81667	24
1.82033	26
1.82400	28
1.82767	31
1.83133	34
1.83500	35
1.83867	31
1.84233	29
1.84600	28
1.84967	27
1.85333	25
1.85700	23
1.86067	22
1.86433	23
1.86800	26
1.87167	27
1.87533	30
1.87900	31
1.88267	31
1.88633	33
1.89000	35
1.89367	38
1.89733	41
1.90100	40
1.90467	36
1.90833	35
1.91200	37
1.91567	37
1.91933	37
1.92300	38
1.92667	38
1.93033	38
1.93400	37
1.93767	37
1.94133	39
1.94500	41
1.94867	39
1.95233	36
1.95600	37
1.95967	41
1.96333	43
1.96700	46
1.97067	47
1.97433	47
1.97800	47
1.98167	46
1.98533	46
1.98900	47
1.99267	50
1.99633	54
2.00000	54
2.00367	52
2.00733	52
2.01100	51
2.01467	51
2.01833	51
2.02200	50
2.02567	50
2.02933	52
2.03300	53
2.03667	54
2.04033	56
2.04400	57
2.04767	60
2.05133	62
2.05500	65
2.05867	64
2.06233	65
2.06600	64
2.06967	63
2.07333	63
2.07700	65
2.08067	66
2.08433	67
2.08800	68
2.09167	69
2.09533	68
2.09900	67
2.10267	66
2.10633	66
2.11000	69
2.11367	71
2.11733	73
2.12100	75
2.12467	77
2.12833	79
2.13200	79
2.13567	77
2.13933	75
2.14300	74
2.14667	73
2.15033	75
2.15400	78
2.15767	82
2.16133	82
2.16500	82
2.16867	83
2.17233	82
2.17600	84
2.17967	86
2.18333	87
2.18700	86
2.19067	86
2.19433	87
2.19800	88
2.20167	90
2.20533	93
2.20900	90
2.21267	88
2.21633	87
2.22000	90
2.22367	93
2.22733	95
2.23100	95
2.23467	97
2.23833	100
2.24200	102
2.24567	105
2.24933	106
2.25300	107
2.25667	108
2.26033	108
2.26400	106
2.26767	104
2.27133	102
2.27500	100
2.27867	100
2.28233	102
2.28600	103
2.28967	105
2.29333	106
2.29700	106
2.30067	109
2.30433	110
2.30800	110
2.31167	110
2.31533	111
2.31900	112
2.32267	113
2.32633	113
2.33000	114
2.33367	115
2.33733	115
2.34100	113
2.34467	113
2.34833	113
2.35200	115
2.35567	118
2.35933	121
2.36300	122
2.36667	122
2.37033	122
2.37400	123
2.37767	123
2.38133	125
2.38500	126
2.38867	128
2.39233	129
2.39600	127
2.39967	127
2.40333	127
2.40700	127
2.41067	128
2.41433	129
2.41800	130
2.42167	129
2.42533	128
2.42900	132
2.43267	135
2.43633	134
2.44000	132
2.44367	136
2.44733	152
2.45100	170
2.45467	188
2.45833	212
2.46200	245
2.46567	283
2.46933	328
2.47300	374
2.47667	420
2.48033	469
2.48400	515
2.48767	557
2.49133	600
2.49500	639
2.49867	676
2.50233	709
2.50600	738
2.50967	763
2.51333	780
2.51700	793
2.52067	807
2.52433	819
2.52800	826
2.53167	835
2.53533	844
2.53900	854
2.54267	862
2.54633	869
2.55000	873
2.55367	878
2.55733	884
2.56100	886
2.56467	884
2.56833	881
2.57200	879
2.57567	873
2.57933	865
2.58300	856
2.58667	847
2.59033	838
2.59400	830
2.59767	820
2.60133	804
2.60500	785
2.60867	761
2.61233	733
2.61600	700
2.61967	663
2.62333	623
2.62700	583
2.63067	546
2.63433	512
2.63800	482
2.64167	459
2.64533	441
2.64900	430
2.65267	425
2.65633	424
2.66000	425
2.66367	427
2.66733	432
2.67100	440
2.67467	447
2.67833	454
2.68200	462
2.68567	470
2.68933	477
2.69300	485
2.69667	492
2.70033	500
2.70400	506
2.70767	511
2.71133	515
2.71500	519
2.71867	522
2.72233	524
2.72600	527
2.72967	531
2.73333	535
2.73700	538
2.74067	542
2.74433	547
2.74800	549
2.75167	549
2.75533	549
2.75900	548
2.76267	549
2.76633	552
2.77000	551
2.77367	549
2.77733	549
2.78100	548
2.78467	547
2.78833	547
2.79200	548
2.79567	549
2.79933	550
2.80300	552
2.80667	550
2.81033	547
2.81400	549
2.81767	552
2.82133	553
2.82500	557
2.82867	566
2.83233	591
2.83600	645
2.83967	746
2.84333	918
2.84700	1182
2.85067	1554
2.85433	2031
2.85800	2595
2.86167	3214
2.86533	3841
2.86900	4423
2.87267	4914
2.87633	5272
2.88000	5480
2.88367	5541
2.88733	5462
2.89100	5274
2.89467	5000
2.89833	4668
2.90200	4305
2.90567	3934
2.90933	3570
2.91300	3226
2.91667	2907
2.92033	2615
2.92400	2348
2.92767	2109
2.93133	1897
2.93500	1711
2.93867	1549
2.94233	1409
2.94600	1287
2.94967	1181
2.95333	1087
2.95700	1006
2.96067	937
2.96433	878
2.96800	826
2.97167	780
2.97533	739
2.97900	704
2.98267	676
2.98633	651
2.99000	628
2.99367	607
2.99733	593
3.00100	582
3.00467	571
3.00833	558
3.01200	550
3.01567	543
3.01933	535
3.02300	527
3.02667	522
3.03033	517
3.03400	513
3.03767	508
3.04133	505
3.04500	504
3.04867	503
3.05233	502
3.05600	498
3.05967	495
3.06333	490
3.06700	486
3.07067	485
3.07433	484
3.07800	484
3.08167	485
3.08533	486
3.08900	486
3.09267	483
3.09633	480
3.10000	478
3.10367	477
3.10733	475
3.11100	472
3.11467	469
3.11833	467
3.12200	466
3.12567	466
3.12933	464
3.13300	461
3.13667	459
3.14033	455
3.14400	453
3.14767	451
3.15133	448
3.15500	446
3.15867	443
3.16233	442
3.16600	441
3.16967	444
3.17333	444
3.17700	444
3.18067	440
3.18433	436
3.18800	434
3.19167	432
3.19533	431
3.19900	431
3.20267	430
3.20633	432
3.21000	429
3.21367	429
3.21733	429
3.22100	428
3.22467	427
3.22833	425
3.23200	425
3.23567	424
3.23933	422
3.24300	421
3.24667	421
3.25033	421
3.25400	419
3.25767	415
3.26133	413
3.26500	412
3.26867	410
3.27233	407
3.27600	405
3.27967	404
3.28333	400
3.28700	397
3.29067	397
3.29433	397
3.29800	395
3.30167	391
3.30533	388
3.30900	387
3.31267	384
3.31633	381
3.32000	378
3.32367	375
3.32733	372
3.33100	370
3.33467	367
3.33833	362
3.34200	359
3.34567	357
3.34933	356
3.35300	355
3.35667	353
3.36033	353
3.36400	350
3.36767	348
3.37133	346
3.37500	345
3.37867	343
3.38233	340
3.38600	339
3.38967	335
3.39333	329
3.39700	325
3.40067	322
3.40433	321
3.40800	320
3.41167	320
3.41533	318
3.41900	315
3.42267	312
3.42633	310
3.43000	307
3.43367	304
3.43733	303
3.44100	301
3.44467	297
3.44833	293
3.45200	291
3.45567	289
3.45933	288
3.46300	284
3.46667	282
3.47033	282
3.47400	283
3.47767	282
3.48133	281
3.48500	279
3.48867	277
3.49233	278
3.49600	277
3.49967	277
3.50333	275
3.50700	271
3.51067	269
3.51433	267
3.51800	266
3.52167	267
3.52533	267
3.52900	264
3.53267	263
3.53633	262
3.54000	260
3.54367	258
3.54733	255
3.55100	249
3.55467	245
3.55833	244
3.56200	241
3.56567	238
3.56933	238
3.57300	238
3.57667	238
3.58033	238
3.58400	239
3.58767	237
3.59133	234
3.59500	232
3.59867	229
3.60233	228
3.60600	228
3.60967	224
3.61333	220
3.61700	217
3.62067	216
3.62433	218
3.62800	220
3.63167	217
3.63533	216
3.63900	213
3.64267	212
3.64633	212
3.65000	213
3.65367	210
3.65733	207
3.66100	207
3.66467	206
3.66833	203
3.67200	201
3.67567	199
3.67933	198
3.68300	195
3.68667	190
3.69033	189
3.69400	191
3.69767	192
3.70133	192
3.70500	192
3.70867	190
3.71233	189
3.71600	189
3.71967	190
3.72333	192
3.72700	191
3.73067	191
3.73433	189
3.73800	188
3.74167	185
3.74533	182
3.74900	182
3.75267	182
3.75633	181
3.76000	180
3.76367	176
3.76733	175
3.77100	172
3.77467	171
3.77833	171
3.78200	169
3.78567	167
3.78933	163
3.79300	162
3.79667	162
3.80033	161
3.80400	163
3.80767	164
3.81133	165
3.81500	164
3.81867	162
3.82233	162
3.82600	161
3.82967	157
3.83333	154
3.83700	152
3.84067	153
3.84433	154
3.84800	154
3.85167	154
3.85533	154
3.85900	152
3.86267	150
3.86633	149
3.87000	147
3.87367	144
3.87733	143
3.88100	143
3.88467	142
3.88833	142
3.89200	145
3.89567	146
3.89933	144
3.90300	143
3.90667	140
3.91033	137
3.91400	134
3.91767	132
3.92133	131
3.92500	130
3.92867	132
3.93233	135
3.93600	136
3.93967	137
3.94333	137
3.94700	135
3.95067	134
3.95433	134
3.95800	133
3.96167	131
3.96533	125
3.96900	122
3.97267	121
3.97633	123
3.98000	122
3.98367	121
3.98733	122
3.99100	121
3.99467	119
3.99833	119

[Status Trace (Column Oven Temperature)]
Interval(msec)	1000
# of Points	240
Start Time(min)	0.010
End Time(min)	3.994
Intensity Units	
Intensity Multiplier	1
R.Time (min)	Intensity
0.01045	34.98
0.02712	34.99
0.04378	34.99
0.06045	34.98
0.07712	35.00
0.09378	35.01
0.11045	35.03
0.12712	35.05
0.14378	35.07
0.16045	35.07
0.17712	35.07
0.19378	35.05
0.21045	35.04
0.22712	35.04
0.24378	35.04
0.26045	35.03
0.27712	35.02
0.29378	35.02
0.31045	35.00
0.32712	34.99
0.34378	34.97
0.36045	34.97
0.37712	34.95
0.39378	34.95
0.41045	34.95
0.42712	34.96
0.44378	34.97
0.46045	34.98
0.47712	35.00
0.49378	35.01
0.51045	35.01
0.52712	35.02
0.54378	35.03
0.56045	35.03
0.57712	35.03
0.59378	35.02
0.61045	35.02
0.62712	35.01
0.64378	35.00
0.66045	34.99
0.67712	34.98
0.69378	34.98
0.71045	34.97
0.72712	34.97
0.74378	34.97
0.76045	34.97
0.77712	34.97
0.79378	34.96
0.81045	34.96
0.82712	34.96
0.84378	34.97
0.86045	34.97
0.87712	34.97
0.89378	34.97
0.91045	34.99
0.92712	34.99
0.94378	34.98
0.96045	34.99
0.97712	34.99
0.99378	35.00
1.01045	35.00
1.02712	35.00
1.04378	34.99
1.06045	34.98
1.07712	34.97
1.09378	34.97
1.11045	34.97
1.12712	34.97
1.14378	34.98
1.16045	34.99
1.17712	34.99
1.19378	34.99
1.21045	35.01
1.22712	35.02
1.24378	35.01
1.26045	35.01
1.27712	35.00
1.29378	34.98
1.31045	34.98
1.32712	34.98
1.34378	34.97
1.36045	34.97
1.37712	34.97
1.39378	34.97
1.41045	34.98
1.42712	34.99
1.44378	34.99
1.46045	34.99
1.47712	35.00
1.49378	35.00
1.51045	35.00
1.52712	35.00
1.54378	35.01
1.56045	35.01
1.57712	35.00
1.59378	35.02
1.61045	35.08
1.62712	35.21
1.64378	35.40
1.66045	35.65
1.67712	35.99
1.69378	36.36
1.71045	36.70
1.72712	37.04
1.74378	37.38
1.76045	37.74
1.77712	38.05
1.79378	38.35
1.81045	38.72
1.82712	39.04
1.84378	39.36
1.86045	39.69
1.87712	40.02
1.89378	40.34
1.91045	40.68
1.92712	40.98
1.94378	41.31
1.96045	41.65
1.97712	41.97
1.99378	42.30
2.01045	42.64
2.02712	42.97
2.04378	43.30
2.06045	43.64
2.07712	43.96
2.09378	44.29
2.11045	44.62
2.12712	44.93
2.14378	45.27
2.16045	45.60
2.17712	45.94
2.19378	46.26
2.21045	46.57
2.22712	46.90
2.24378	47.22
2.26045	47.56
2.27712	47.88
2.29378	48.20
2.31045	48.55
2.32712	48.88
2.34378	49.19
2.36045	49.46
2.37712	49.65
2.39378	49.69
2.41045	49.70
2.42712	49.69
2.44378	49.71
2.46045	49.71
2.47712	49.74
2.49378	49.74
2.51045	49.76
2.52712	49.78
2.54378	49.79
2.56045	49.80
2.57712	49.81
2.59378	49.81
2.61045	49.81
2.62712	49.83
2.64378	49.84
2.66045	49.85
2.67712	49.85
2.69378	49.84
2.71045	49.86
2.72712	49.86
2.74378	49.86
2.76045	49.86
2.77712	49.86
2.79378	49.86
2.81045	49.87
2.82712	49.88
2.84378	49.89
2.86045	49.91
2.87712	49.92
2.89378	49.93
2.91045	49.95
2.92712	49.97
2.94378	49.98
2.96045	50.00
2.97712	50.02
2.99378	50.03
3.01045	50.03
3.02712	50.04
3.04378	50.03
3.06045	50.04
3.07712	50.06
3.09378	50.08
3.11045	50.10
3.12712	50.11
3.14378	50.12
3.16045	50.11
3.17712	50.10
3.19378	50.08
3.21045	50.07
3.22712	50.05
3.24378	50.04
3.26045	50.03
3.27712	50.03
3.29378	50.02
3.31045	50.02
3.32712	50.03
3.34378	50.03
3.36045	50.03
3.37712	50.03
3.39378	50.03
3.41045	50.04
3.42712	50.03
3.44378	50.03
3.46045	50.03
3.47712	50.04
3.49378	50.04
3.51045	50.04
3.52712	50.04
3.54378	50.04
3.56045	50.05
3.57712	50.06
3.59378	50.07
3.61045	50.08
3.62712	50.08
3.64378	50.09
3.66045	50.09
3.67712	50.09
3.69378	50.09
3.71045	50.08
3.72712	50.09
3.74378	50.08
3.76045	50.08
3.77712	50.08
3.79378	50.08
3.81045	50.09
3.82712	50.09
3.84378	50.09
3.86045	50.09
3.87712	50.09
3.89378	50.09
3.91045	50.10
3.92712	50.08
3.94378	50.08
3.96045	50.07
3.97712	50.06
3.99378	50.06

[Status Trace (Injection Unit Temperature)]
Interval(msec)	1000
# of Points	240
Start Time(min)	0.010
End Time(min)	3.994
Intensity Units	
Intensity Multiplier	1
R.Time (min)	Intensity
0.01045	99.98
0.02712	99.99
0.04378	99.99
0.06045	99.98
0.07712	99.99
0.09378	99.99
0.11045	99.99
0.12712	99.98
0.14378	99.99
0.16045	99.98
0.17712	99.99
0.19378	99.99
0.21045	99.99
0.22712	99.99
0.24378	99.99
0.26045	99.99
0.27712	99.99
0.29378	99.99
0.31045	99.99
0.32712	99.99
0.34378	99.99
0.36045	99.99
0.37712	99.99
0.39378	99.99
0.41045	99.99
0.42712	99.99
0.44378	99.99
0.46045	99.99
0.47712	99.99
0.49378	99.98
0.51045	99.99
0.52712	99.99
0.54378	99.99
0.56045	99.99
0.57712	99.99
0.59378	99.99
0.61045	99.98
0.62712	99.99
0.64378	99.99
0.66045	99.98
0.67712	99.99
0.69378	99.99
0.71045	99.99
0.72712	99.99
0.74378	99.99
0.76045	99.99
0.77712	99.99
0.79378	99.99
0.81045	99.99
0.82712	99.98
0.84378	99.99
0.86045	99.99
0.87712	99.98
0.89378	99.98
0.91045	99.98
0.92712	99.98
0.94378	99.99
0.96045	99.99
0.97712	99.99
0.99378	99.99
1.01045	99.98
1.02712	99.99
1.04378	99.99
1.06045	99.99
1.07712	99.98
1.09378	99.99
1.11045	99.98
1.12712	99.98
1.14378	99.99
1.16045	99.98
1.17712	99.99
1.19378	99.99
1.21045	99.99
1.22712	99.99
1.24378	99.99
1.26045	99.99
1.27712	99.99
1.29378	99.99
1.31045	99.99
1.32712	99.98
1.34378	99.99
1.36045	99.99
1.37712	100.00
1.39378	99.99
1.41045	99.99
1.42712	99.99
1.44378	99.99
1.46045	100.00
1.47712	99.99
1.49378	99.99
1.51045	99.99
1.52712	99.99
1.54378	99.99
1.56045	99.99
1.57712	99.99
1.59378	99.99
1.61045	99.99
1.62712	99.99
1.64378	99.99
1.66045	99.99
1.67712	99.99
1.69378	100.00
1.71045	99.99
1.72712	99.99
1.74378	99.99
1.76045	99.99
1.77712	99.99
1.79378	99.99
1.81045	100.00
1.82712	99.99
1.84378	99.99
1.86045	99.99
1.87712	99.99
1.89378	99.99
1.91045	99.99
1.92712	99.98
1.94378	99.99
1.96045	99.99
1.97712	99.99
1.99378	99.99
2.01045	99.99
2.02712	99.99
2.04378	99.98
2.06045	99.98
2.07712	99.98
2.09378	99.98
2.11045	99.98
2.12712	99.98
2.14378	99.98
2.16045	99.98
2.17712	99.98
2.19378	99.97
2.21045	99.98
2.22712	99.97
2.24378	99.97
2.26045	99.97
2.27712	99.97
2.29378	99.97
2.31045	99.97
2.32712	99.97
2.34378	99.97
2.36045	99.97
2.37712	99.97
2.39378	99.97
2.41045	99.97
2.42712	99.97
2.44378	99.97
2.46045	99.97
2.47712	99.97
2.49378	99.97
2.51045	99.97
2.52712	99.97
2.54378	99.97
2.56045	99.98
2.57712	99.98
2.59378	99.97
2.61045	99.98
2.62712	99.97
2.64378	99.98
2.66045	99.99
2.67712	99.98
2.69378	99.98
2.71045	99.98
2.72712	99.99
2.74378	99.99
2.76045	99.98
2.77712	99.99
2.79378	99.99
2.81045	100.00
2.82712	100.00
2.84378	100.00
2.86045	100.00
2.87712	100.00
2.89378	100.01
2.91045	100.01
2.92712	100.00
2.94378	100.01
2.96045	100.01
2.97712	100.01
2.99378	100.02
3.01045	100.02
3.02712	100.01
3.04378	100.02
3.06045	100.02
3.07712	100.02
3.09378	100.02
3.11045	100.02
3.12712	100.02
3.14378	100.02
3.16045	100.02
3.17712	100.03
3.19378	100.02
3.21045	100.03
3.22712	100.03
3.24378	100.03
3.26045	100.03
3.27712	100.03
3.29378	100.03
3.31045	100.04
3.32712	100.03
3.34378	100.04
3.36045	100.04
3.37712	100.04
3.39378	100.04
3.41045	100.04
3.42712	100.04
3.44378	100.04
3.46045	100.04
3.47712	100.04
3.49378	100.05
3.51045	100.05
3.52712	100.05
3.54378	100.05
3.56045	100.05
3.57712	100.05
3.59378	100.05
3.61045	100.05
3.62712	100.05
3.64378	100.05
3.66045	100.05
3.67712	100.06
3.69378	100.05
3.71045	100.05
3.72712	100.05
3.74378	100.05
3.76045	100.06
3.77712	100.05
3.79378	100.06
3.81045	100.05
3.82712	100.05
3.84378	100.05
3.86045	100.05
3.87712	100.05
3.89378	100.06
3.91045	100.05
3.92712	100.06
3.94378	100.05
3.96045	100.05
3.97712	100.05
3.99378	100.05

[Status Trace (Carrier Gas Pressure)]
Interval(msec)	1000
# of Points	240
Start Time(min)	0.010
End Time(min)	3.994
Intensity Units	
Intensity Multiplier	1
R.Time (min)	Intensity
0.01045	58.00
0.02712	55.04
0.04378	57.37
0.06045	59.49
0.07712	59.16
0.09378	58.03
0.11045	57.99
0.12712	58.01
0.14378	58.01
0.16045	58.01
0.17712	58.00
0.19378	58.00
0.21045	58.00
0.22712	58.00
0.24378	58.00
0.26045	58.00
0.27712	58.00
0.29378	58.00
0.31045	58.00
0.32712	58.00
0.34378	58.00
0.36045	58.00
0.37712	58.00
0.39378	58.00
0.41045	58.00
0.42712	58.00
0.44378	58.00
0.46045	58.00
0.47712	58.00
0.49378	58.00
0.51045	58.00
0.52712	58.00
0.54378	58.00
0.56045	58.00
0.57712	58.00
0.59378	58.00
0.61045	58.00
0.62712	58.00
0.64378	58.00
0.66045	58.00
0.67712	58.00
0.69378	58.00
0.71045	58.00
0.72712	58.00
0.74378	58.00
0.76045	58.00
0.77712	58.00
0.79378	58.00
0.81045	58.00
0.82712	58.00
0.84378	58.00
0.86045	58.00
0.87712	58.00
0.89378	58.00
0.91045	58.00
0.92712	58.00
0.94378	58.00
0.96045	58.00
0.97712	58.00
0.99378	58.00
1.01045	58.00
1.02712	58.00
1.04378	58.00
1.06045	58.00
1.07712	58.00
1.09378	58.00
1.11045	58.00
1.12712	58.00
1.14378	58.00
1.16045	58.00
1.17712	58.00
1.19378	58.00
1.21045	58.00
1.22712	58.00
1.24378	58.00
1.26045	58.00
1.27712	58.00
1.29378	58.00
1.31045	58.00
1.32712	58.00
1.34378	58.00
1.36045	58.00
1.37712	58.00
1.39378	58.00
1.41045	58.00
1.42712	58.00
1.44378	58.00
1.46045	58.00
1.47712	58.00
1.49378	58.00
1.51045	58.00
1.52712	58.00
1.54378	58.00
1.56045	58.00
1.57712	58.00
1.59378	58.00
1.61045	58.00
1.62712	58.00
1.64378	58.01
1.66045	58.00
1.67712	58.01
1.69378	58.00
1.71045	58.00
1.72712	58.00
1.74378	58.00
1.76045	58.00
1.77712	58.00
1.79378	58.00
1.81045	58.00
1.82712	58.00
1.84378	58.00
1.86045	58.00
1.87712	58.00
1.89378	58.00
1.91045	58.00
1.92712	58.00
1.94378	58.00
1.96045	58.00
1.97712	58.00
1.99378	58.00
2.01045	58.00
2.02712	58.00
2.04378	58.00
2.06045	58.00
2.07712	58.00
2.09378	58.00
2.11045	58.00
2.12712	58.00
2.14378	58.00
2.16045	58.00
2.17712	58.00
2.19378	58.00
2.21045	58.00
2.22712	58.00
2.24378	58.00
2.26045	58.00
2.27712	58.00
2.29378	58.00
2.31045	58.00
2.32712	58.00
2.34378	58.00
2.36045	58.00
2.37712	58.00
2.39378	57.99
2.41045	57.99
2.42712	58.00
2.44378	58.00
2.46045	58.00
2.47712	58.00
2.49378	58.00
2.51045	57.99
2.52712	57.98
2.54378	58.00
2.56045	58.00
2.57712	58.00
2.59378	58.00
2.61045	58.00
2.62712	58.00
2.64378	58.00
2.66045	58.00
2.67712	58.00
2.69378	58.00
2.71045	58.00
2.72712	58.00
2.74378	58.00
2.76045	58.00
2.77712	58.00
2.79378	58.00
2.81045	58.00
2.82712	58.00
2.84378	58.00
2.86045	58.00
2.87712	58.00
2.89378	58.00
2.91045	58.00
2.92712	58.00
2.94378	58.00
2.96045	58.00
2.97712	58.00
2.99378	58.00
3.01045	58.00
3.02712	58.00
3.04378	58.00
3.06045	58.00
3.07712	58.00
3.09378	58.00
3.11045	58.00
3.12712	58.00
3.14378	58.00
3.16045	58.00
3.17712	58.00
3.19378	58.00
3.21045	58.00
3.22712	58.00
3.24378	58.00
3.26045	58.00
3.27712	58.00
3.29378	58.00
3.31045	58.00
3.32712	58.00
3.34378	58.00
3.36045	58.00
3.37712	58.00
3.39378	58.00
3.41045	58.00
3.42712	58.00
3.44378	58.00
3.46045	58.00
3.47712	58.00
3.49378	58.00
3.51045	58.00
3.52712	58.00
3.54378	58.00
3.56045	58.00
3.57712	58.00
3.59378	58.00
3.61045	58.00
3.62712	58.00
3.64378	58.00
3.66045	58.00
3.67712	58.00
3.69378	58.00
3.71045	58.00
3.72712	58.00
3.74378	58.00
3.76045	58.00
3.77712	58.00
3.79378	58.00
3.81045	58.00
3.82712	58.00
3.84378	58.00
3.86045	58.00
3.87712	58.00
3.89378	58.00
3.91045	58.00
3.92712	58.00
3.94378	58.00
3.96045	58.00
3.97712	58.00
3.99378	58.00

[Status Trace (Carrier Gas Flow)]
Interval(msec)	1000
# of Points	240
Start Time(min)	0.010
End Time(min)	3.994
Intensity Units	
Intensity Multiplier	1
R.Time (min)	Intensity
0.01045	34.52
0.02712	34.54
0.04378	34.56
0.06045	34.54
0.07712	34.50
0.09378	34.52
0.11045	34.52
0.12712	34.52
0.14378	34.52
0.16045	34.52
0.17712	34.52
0.19378	34.52
0.21045	34.52
0.22712	34.52
0.24378	34.52
0.26045	34.52
0.27712	34.52
0.29378	34.52
0.31045	34.52
0.32712	34.52
0.34378	34.52
0.36045	34.52
0.37712	34.52
0.39378	34.52
0.41045	34.52
0.42712	34.52
0.44378	34.52
0.46045	34.51
0.47712	34.52
0.49378	34.52
0.51045	34.52
0.52712	34.52
0.54378	34.52
0.56045	34.52
0.57712	34.52
0.59378	34.52
0.61045	34.52
0.62712	34.52
0.64378	34.52
0.66045	34.52
0.67712	34.52
0.69378	34.52
0.71045	34.52
0.72712	34.52
0.74378	34.53
0.76045	34.52
0.77712	34.52
0.79378	34.52
0.81045	34.52
0.82712	34.52
0.84378	34.52
0.86045	34.52
0.87712	34.52
0.89378	34.52
0.91045	34.51
0.92712	34.52
0.94378	34.52
0.96045	34.52
0.97712	34.52
0.99378	34.52
1.01045	34.52
1.02712	34.51
1.04378	34.52
1.06045	34.52
1.07712	34.51
1.09378	34.51
1.11045	34.52
1.12712	34.52
1.14378	34.52
1.16045	34.52
1.17712	34.52
1.19378	34.52
1.21045	34.51
1.22712	34.52
1.24378	34.52
1.26045	34.52
1.27712	34.52
1.29378	34.52
1.31045	34.52
1.32712	34.52
1.34378	34.52
1.36045	34.52
1.37712	34.52
1.39378	34.51
1.41045	34.52
1.42712	34.52
1.44378	34.52
1.46045	34.52
1.47712	34.51
1.49378	34.52
1.51045	34.52
1.52712	34.51
1.54378	34.52
1.56045	34.52
1.57712	34.52
1.59378	34.52
1.61045	34.52
1.62712	34.52
1.64378	34.52
1.66045	34.52
1.67712	34.52
1.69378	34.52
1.71045	34.52
1.72712	34.52
1.74378	34.52
1.76045	34.52
1.77712	34.52
1.79378	34.52
1.81045	34.52
1.82712	34.52
1.84378	34.52
1.86045	34.52
1.87712	34.52
1.89378	34.52
1.91045	34.52
1.92712	34.52
1.94378	34.52
1.96045	34.52
1.97712	34.52
1.99378	34.52
2.01045	34.52
2.02712	34.52
2.04378	34.52
2.06045	34.52
2.07712	34.52
2.09378	34.52
2.11045	34.52
2.12712	34.52
2.14378	34.52
2.16045	34.52
2.17712	34.52
2.19378	34.52
2.21045	34.52
2.22712	34.52
2.24378	34.52
2.26045	34.52
2.27712	34.52
2.29378	34.52
2.31045	34.52
2.32712	34.52
2.34378	34.52
2.36045	34.51
2.37712	34.52
2.39378	34.52
2.41045	34.52
2.42712	34.52
2.44378	34.51
2.46045	34.52
2.47712	34.52
2.49378	34.52
2.51045	34.53
2.52712	34.52
2.54378	34.52
2.56045	34.52
2.57712	34.52
2.59378	34.52
2.61045	34.52
2.62712	34.52
2.64378	34.52
2.66045	34.52
2.67712	34.52
2.69378	34.52
2.71045	34.51
2.72712	34.52
2.74378	34.52
2.76045	34.52
2.77712	34.52
2.79378	34.52
2.81045	34.52
2.82712	34.50
2.84378	34.52
2.86045	34.51
2.87712	34.53
2.89378	34.52
2.91045	34.51
2.92712	34.53
2.94378	34.52
2.96045	34.51
2.97712	34.51
2.99378	34.52
3.01045	34.52
3.02712	34.51
3.04378	34.52
3.06045	34.52
3.07712	34.52
3.09378	34.52
3.11045	34.52
3.12712	34.52
3.14378	34.52
3.16045	34.52
3.17712	34.52
3.19378	34.52
3.21045	34.52
3.22712	34.52
3.24378	34.52
3.26045	34.52
3.27712	34.52
3.29378	34.52
3.31045	34.52
3.32712	34.52
3.34378	34.52
3.36045	34.52
3.37712	34.52
3.39378	34.52
3.41045	34.52
3.42712	34.52
3.44378	34.52
3.46045	34.52
3.47712	34.52
3.49378	34.52
3.51045	34.52
3.52712	34.52
3.54378	34.52
3.56045	34.52
3.57712	34.52
3.59378	34.52
3.61045	34.52
3.62712	34.52
3.64378	34.52
3.66045	34.52
3.67712	34.52
3.69378	34.52
3.71045	34.52
3.72712	34.52
3.74378	34.52
3.76045	34.52
3.77712	34.52
3.79378	34.52
3.81045	34.52
3.82712	34.52
3.84378	34.52
3.86045	34.52
3.87712	34.52
3.89378	34.52
3.91045	34.52
3.92712	34.52
3.94378	34.52
3.96045	34.52
3.97712	34.52
3.99378	34.50

[Status Trace (Column Flow)]
Interval(msec)	1000
# of Points	240
Start Time(min)	0.010
End Time(min)	3.994
Intensity Units	
Intensity Multiplier	1
R.Time (min)	Intensity
0.01045	5.50
0.02712	5.16
0.04378	5.43
0.06045	5.68
0.07712	5.64
0.09378	5.51
0.11045	5.50
0.12712	5.50
0.14378	5.50
0.16045	5.50
0.17712	5.50
0.19378	5.50
0.21045	5.50
0.22712	5.50
0.24378	5.50
0.26045	5.50
0.27712	5.50
0.29378	5.50
0.31045	5.50
0.32712	5.50
0.34378	5.51
0.36045	5.51
0.37712	5.51
0.39378	5.51
0.41045	5.51
0.42712	5.51
0.44378	5.51
0.46045	5.50
0.47712	5.50
0.49378	5.50
0.51045	5.50
0.52712	5.50
0.54378	5.50
0.56045	5.50
0.57712	5.50
0.59378	5.50
0.61045	5.50
0.62712	5.50
0.64378	5.50
0.66045	5.50
0.67712	5.50
0.69378	5.50
0.71045	5.51
0.72712	5.50
0.74378	5.50
0.76045	5.50
0.77712	5.50
0.79378	5.51
0.81045	5.51
0.82712	5.51
0.84378	5.51
0.86045	5.50
0.87712	5.50
0.89378	5.50
0.91045	5.50
0.92712	5.50
0.94378	5.50
0.96045	5.50
0.97712	5.50
0.99378	5.50
1.01045	5.50
1.02712	5.50
1.04378	5.50
1.06045	5.50
1.07712	5.50
1.09378	5.50
1.11045	5.51
1.12712	5.50
1.14378	5.50
1.16045	5.50
1.17712	5.50
1.19378	5.50
1.21045	5.50
1.22712	5.50
1.24378	5.50
1.26045	5.50
1.27712	5.50
1.29378	5.50
1.31045	5.50
1.32712	5.50
1.34378	5.50
1.36045	5.50
1.37712	5.50
1.39378	5.50
1.41045	5.50
1.42712	5.50
1.44378	5.50
1.46045	5.50
1.47712	5.50
1.49378	5.50
1.51045	5.50
1.52712	5.50
1.54378	5.50
1.56045	5.50
1.57712	5.50
1.59378	5.50
1.61045	5.50
1.62712	5.50
1.64378	5.49
1.66045	5.48
1.67712	5.47
1.69378	5.46
1.71045	5.45
1.72712	5.44
1.74378	5.43
1.76045	5.42
1.77712	5.41
1.79378	5.40
1.81045	5.39
1.82712	5.38
1.84378	5.37
1.86045	5.36
1.87712	5.35
1.89378	5.34
1.91045	5.33
1.92712	5.32
1.94378	5.31
1.96045	5.30
1.97712	5.29
1.99378	5.28
2.01045	5.27
2.02712	5.26
2.04378	5.25
2.06045	5.24
2.07712	5.23
2.09378	5.22
2.11045	5.21
2.12712	5.21
2.14378	5.20
2.16045	5.19
2.17712	5.18
2.19378	5.17
2.21045	5.16
2.22712	5.15
2.24378	5.14
2.26045	5.13
2.27712	5.12
2.29378	5.11
2.31045	5.10
2.32712	5.09
2.34378	5.08
2.36045	5.08
2.37712	5.07
2.39378	5.07
2.41045	5.07
2.42712	5.07
2.44378	5.07
2.46045	5.07
2.47712	5.07
2.49378	5.07
2.51045	5.07
2.52712	5.07
2.54378	5.07
2.56045	5.07
2.57712	5.07
2.59378	5.07
2.61045	5.07
2.62712	5.07
2.64378	5.07
2.66045	5.07
2.67712	5.07
2.69378	5.07
2.71045	5.07
2.72712	5.07
2.74378	5.07
2.76045	5.07
2.77712	5.07
2.79378	5.07
2.81045	5.07
2.82712	5.07
2.84378	5.07
2.86045	5.06
2.87712	5.06
2.89378	5.06
2.91045	5.06
2.92712	5.06
2.94378	5.06
2.96045	5.06
2.97712	5.06
2.99378	5.06
3.01045	5.06
3.02712	5.06
3.04378	5.06
3.06045	5.06
3.07712	5.06
3.09378	5.06
3.11045	5.06
3.12712	5.06
3.14378	5.06
3.16045	5.06
3.17712	5.06
3.19378	5.06
3.21045	5.06
3.22712	5.06
3.24378	5.06
3.26045	5.06
3.27712	5.06
3.29378	5.06
3.31045	5.06
3.32712	5.06
3.34378	5.06
3.36045	5.06
3.37712	5.06
3.39378	5.06
3.41045	5.06
3.42712	5.06
3.44378	5.06
3.46045	5.06
3.47712	5.06
3.49378	5.06
3.51045	5.06
3.52712	5.06
3.54378	5.06
3.56045	5.06
3.57712	5.06
3.59378	5.06
3.61045	5.06
3.62712	5.06
3.64378	5.06
3.66045	5.06
3.67712	5.06
3.69378	5.06
3.71045	5.06
3.72712	5.06
3.74378	5.06
3.76045	5.06
3.77712	5.06
3.79378	5.06
3.81045	5.06
3.82712	5.06
3.84378	5.06
3.86045	5.06
3.87712	5.06
3.89378	5.06
3.91045	5.06
3.92712	5.06
3.94378	5.06
3.96045	5.06
3.97712	5.06
3.99378	5.06

[Status Trace (Linear Velocity)]
Interval(msec)	1000
# of Points	240
Start Time(min)	0.010
End Time(min)	3.994
Intensity Units	
Intensity Multiplier	1
R.Time (min)	Intensity
0.01045	39.01
0.02712	37.07
0.04378	38.60
0.06045	39.99
0.07712	39.77
0.09378	39.03
0.11045	39.00
0.12712	39.02
0.14378	39.01
0.16045	39.01
0.17712	39.01
0.19378	39.01
0.21045	39.01
0.22712	39.01
0.24378	39.01
0.26045	39.01
0.27712	39.01
0.29378	39.01
0.31045	39.01
0.32712	39.02
0.34378	39.02
0.36045	39.01
0.37712	39.02
0.39378	39.02
0.41045	39.02
0.42712	39.02
0.44378	39.02
0.46045	39.01
0.47712	39.01
0.49378	39.01
0.51045	39.01
0.52712	39.01
0.54378	39.01
0.56045	39.01
0.57712	39.01
0.59378	39.01
0.61045	39.01
0.62712	39.01
0.64378	39.01
0.66045	39.01
0.67712	39.01
0.69378	39.01
0.71045	39.02
0.72712	39.02
0.74378	39.02
0.76045	39.02
0.77712	39.02
0.79378	39.02
0.81045	39.02
0.82712	39.02
0.84378	39.02
0.86045	39.02
0.87712	39.02
0.89378	39.02
0.91045	39.01
0.92712	39.01
0.94378	39.01
0.96045	39.01
0.97712	39.01
0.99378	39.01
1.01045	39.01
1.02712	39.01
1.04378	39.01
1.06045	39.01
1.07712	39.02
1.09378	39.02
1.11045	39.02
1.12712	39.02
1.14378	39.01
1.16045	39.01
1.17712	39.01
1.19378	39.01
1.21045	39.01
1.22712	39.01
1.24378	39.01
1.26045	39.01
1.27712	39.01
1.29378	39.01
1.31045	39.01
1.32712	39.01
1.34378	39.01
1.36045	39.02
1.37712	39.02
1.39378	39.02
1.41045	39.01
1.42712	39.01
1.44378	39.01
1.46045	39.01
1.47712	39.01
1.49378	39.01
1.51045	39.01
1.52712	39.01
1.54378	39.01
1.56045	39.01
1.57712	39.01
1.59378	39.01
1.61045	39.01
1.62712	38.99
1.64378	38.98
1.66045	38.95
1.67712	38.92
1.69378	38.88
1.71045	38.85
1.72712	38.82
1.74378	38.79
1.76045	38.75
1.77712	38.72
1.79378	38.69
1.81045	38.66
1.82712	38.63
1.84378	38.60
1.86045	38.57
1.87712	38.54
1.89378	38.51
1.91045	38.47
1.92712	38.45
1.94378	38.42
1.96045	38.38
1.97712	38.35
1.99378	38.32
2.01045	38.29
2.02712	38.26
2.04378	38.23
2.06045	38.20
2.07712	38.17
2.09378	38.14
2.11045	38.11
2.12712	38.08
2.14378	38.05
2.16045	38.02
2.17712	37.99
2.19378	37.96
2.21045	37.93
2.22712	37.91
2.24378	37.88
2.26045	37.85
2.27712	37.82
2.29378	37.79
2.31045	37.76
2.32712	37.73
2.34378	37.70
2.36045	37.68
2.37712	37.66
2.39378	37.65
2.41045	37.65
2.42712	37.65
2.44378	37.65
2.46045	37.65
2.47712	37.65
2.49378	37.65
2.51045	37.65
2.52712	37.64
2.54378	37.65
2.56045	37.65
2.57712	37.65
2.59378	37.64
2.61045	37.65
2.62712	37.64
2.64378	37.64
2.66045	37.64
2.67712	37.64
2.69378	37.64
2.71045	37.64
2.72712	37.64
2.74378	37.64
2.76045	37.64
2.77712	37.64
2.79378	37.64
2.81045	37.64
2.82712	37.64
2.84378	37.64
2.86045	37.64
2.87712	37.64
2.89378	37.63
2.91045	37.63
2.92712	37.63
2.94378	37.63
2.96045	37.63
2.97712	37.63
2.99378	37.63
3.01045	37.62
3.02712	37.63
3.04378	37.63
3.06045	37.63
3.07712	37.62
3.09378	37.62
3.11045	37.62
3.12712	37.62
3.14378	37.62
3.16045	37.62
3.17712	37.62
3.19378	37.62
3.21045	37.62
3.22712	37.62
3.24378	37.62
3.26045	37.63
3.27712	37.63
3.29378	37.63
3.31045	37.63
3.32712	37.63
3.34378	37.63
3.36045	37.63
3.37712	37.63
3.39378	37.63
3.41045	37.63
3.42712	37.63
3.44378	37.63
3.46045	37.63
3.47712	37.62
3.49378	37.63
3.51045	37.63
3.52712	37.63
3.54378	37.62
3.56045	37.62
3.57712	37.62
3.59378	37.62
3.61045	37.62
3.62712	37.62
3.64378	37.62
3.66045	37.62
3.67712	37.62
3.69378	37.62
3.71045	37.62
3.72712	37.62
3.74378	37.62
3.76045	37.62
3.77712	37.62
3.79378	37.62
3.81045	37.62
3.82712	37.62
3.84378	37.62
3.86045	37.62
3.87712	37.62
3.89378	37.62
3.91045	37.62
3.92712	37.62
3.94378	37.62
3.96045	37.62
3.97712	37.62
3.99378	37.62

