[Header]
Application Name	LabSolutions
Version	5.110
Data File Name	C:\Users\User\Desktop\GC Analyses\Jack\UIC Prairie Sampling\9.2.22\220902_076.gcd
Output Date	10/28/2022
Output Time	1:23:56 PM

[File Information]
Type	Data File
Generated	10/27/2022 12:56:18 PM
Generated by	System Administrator
Modified	10/27/2022 1:00:45 PM
Modified by	System Administrator

[Sample Information]
Operator Name	System Administrator
Acquired	10/27/2022 12:56:44 PM
Sample Type	1:Standard
Level	1
Sample Name	220902_UICPrairie
Sample ID	220902_UICPrairie
ISTD Amount1	1
ISTD Amount2	1
ISTD Amount3	1
ISTD Amount4	1
ISTD Amount5	1
ISTD Amount6	1
ISTD Amount7	1
ISTD Amount8	1
ISTD Amount9	1
ISTD Amount10	1
ISTD Amount11	1
ISTD Amount12	1
ISTD Amount13	1
ISTD Amount14	1
ISTD Amount15	1
ISTD Amount16	1
ISTD Amount17	1
ISTD Amount18	1
ISTD Amount19	1
ISTD Amount20	1
ISTD Amount21	1
ISTD Amount22	1
ISTD Amount23	1
ISTD Amount24	1
ISTD Amount25	1
ISTD Amount26	1
ISTD Amount27	1
ISTD Amount28	1
ISTD Amount29	1
ISTD Amount30	1
ISTD Amount31	1
ISTD Amount32	1
Sample Amount	1
Dilution Factor	1
Vial#	1
Injection Volume	1
Injection Count	1
Bar Code	

[Original Files]
Data File	C:\Users\User\Desktop\GC Analyses\Jack\UIC Prairie Sampling\9.2.22\220902_076.gcd
Method File	C:\LabSolutions\Data\GHG_4min_2022\ghg3_togas_w_acet_4 min_new_int.gcm
Batch File	
Report Format File	c:\LabSolutions\System\DEFAULT.lsr

[File Description]


[Configuration]
Instrument Name	C0B7VH3-Instrument1
Instrument #	1
Line #	1
# of Detectors	3
Detector ID	DET#1	DET#2	DET#3
Detector Name	FID	PTCD	ECD
# of Channels	1	1	1

[Peak Table(Ch1)]
# of Peaks	3
Peak#	R.Time	I.Time	F.Time	Area	Height	A/H	Conc.	Mark	ID#	Name	k'	Plate #	Plate Ht.	Tailing	Resolution	Sep.Factor	Area Ratio	Height Ratio	Conc. %	Norm Conc.
1	1.483	1.450	1.553	3288	1747	1.882	100.000	   	1	CO	0.000	10920	13.736	1.314	0.000	0.000	0	0	16.667	16.667
2	1.575	1.553	1.630	1343	890	1.509	100.000	 V 	2	CH4	0.062	19347	7.753	1.587	1.797	0.000	0	0	16.667	16.667
3	2.004	1.960	2.194	417652	244941	1.705	400.000	   	3	CO2	0.351	25288	5.932	1.423	8.967	5.680	0	0	66.667	66.667

[Peak Table(Ch2)]
# of Peaks	0

[Peak Table(Ch3)]
# of Peaks	3
Peak#	R.Time	I.Time	F.Time	Area	Height	A/H	Conc.	Mark	ID#	Name	k'	Plate #	Plate Ht.	Tailing	Resolution	Sep.Factor	Area Ratio	Height Ratio	Conc. %	Norm Conc.
1	2.561	2.444	2.671	7011	677	10.355	0.000	   			0.000	1208	124.140	0.000	0.000	0.000	0	0	0.000	0.000
2	2.715	2.671	2.836	4199	464	9.054	0.000	 V 			0.060	134	1116.952	0.000	0.250	0.000	0	0	0.000	0.000
3	2.887	2.836	3.184	9333	1920	4.860	1.000	 V 	1	N2O	0.127	12211	12.284	0.000	0.331	2.119	0	0	100.000	100.000

[Compound Results(Ch1)]
# of IDs	6
ID#	Name	R.Time	Area	Height	Conc.	Curve	3rd	2nd	1st	Constant	Area Ratio	Height Ratio	Conc. %	Norm Conc.
1	CO	1.483	3288	1747	100.000	Linear	0.000000e+00	0.000000e+00	3.287912e+001	0.000000e+00	0	0	16.667	16.667
2	CH4	1.575	1343	890	100.000	Linear	0.000000e+00	0.000000e+00	1.342626e+001	0.000000e+00	0	0	16.667	16.667
3	CO2	2.004	417652	244941	400.000	Linear	0.000000e+00	0.000000e+00	1.044129e+003	0.000000e+00	0	0	66.667	66.667
4	Ethylene	0.000	0	0	0.000	Linear	0.000000e+00	0.000000e+00	0.000000e+00	0.000000e+00	0	0	0.000	0.000
5	Acetylene	0.000	0	0	0.000	Linear	0.000000e+00	0.000000e+00	0.000000e+00	0.000000e+00	0	0	0.000	0.000
6	Ethane	0.000	0	0	0.000	Linear	0.000000e+00	0.000000e+00	0.000000e+00	0.000000e+00	0	0	0.000	0.000

[Compound Results(Ch2)]
# of IDs	5
ID#	Name	R.Time	Area	Height	Conc.	Curve	3rd	2nd	1st	Constant	Area Ratio	Height Ratio	Conc. %	Norm Conc.
1	Hydrogen	0.000	0	0	0.000	Linear	0.000000e+00	0.000000e+00	0.000000e+00	0.000000e+00	0	0	0.000	0.000
2	Oxygen	0.000	0	0	0.000	Linear	0.000000e+00	0.000000e+00	0.000000e+00	0.000000e+00	0	0	0.000	0.000
3	Nitrogen	0.000	0	0	0.000	Linear	0.000000e+00	0.000000e+00	0.000000e+00	0.000000e+00	0	0	0.000	0.000
4	Methane	0.000	0	0	0.000	Linear	0.000000e+00	0.000000e+00	0.000000e+00	0.000000e+00	0	0	0.000	0.000
5	Carbon Monoxide	0.000	0	0	0.000	Linear	0.000000e+00	0.000000e+00	0.000000e+00	0.000000e+00	0	0	0.000	0.000

[Compound Results(Ch3)]
# of IDs	2
ID#	Name	R.Time	Area	Height	Conc.	Curve	3rd	2nd	1st	Constant	Area Ratio	Height Ratio	Conc. %	Norm Conc.
1	N2O	2.887	9333	1920	1.000	Linear	0.000000e+00	0.000000e+00	9.333497e+003	0.000000e+00	0	0	100.000	100.000
2	SF6	0.000	0	0	0.000	Linear	0.000000e+00	0.000000e+00	0.000000e+00	0.000000e+00	0	0	0.000	0.000

[Group Results(Ch1)]
# of Groups	0

[Group Results(Ch2)]
# of Groups	0

[Group Results(Ch3)]
# of Groups	0

[Chromatogram (Ch1)]
Interval(msec)	220
# of Points	1091
Start Time(min)	0.002
End Time(min)	3.998
R.Time (min)	Intensity
0.00167	1
0.00533	11
0.00900	24
0.01267	30
0.01633	31
0.02000	27
0.02367	23
0.02733	18
0.03100	11
0.03467	2
0.03833	-2
0.04200	-5
0.04567	-5
0.04933	-1
0.05300	2
0.05667	5
0.06033	10
0.06400	14
0.06767	13
0.07133	11
0.07500	7
0.07867	3
0.08233	2
0.08600	4
0.08967	6
0.09333	6
0.09700	4
0.10067	4
0.10433	5
0.10800	6
0.11167	5
0.11533	3
0.11900	3
0.12267	6
0.12633	12
0.13000	18
0.13367	18
0.13733	14
0.14100	7
0.14467	1
0.14833	-2
0.15200	-7
0.15567	-15
0.15933	-23
0.16300	-28
0.16667	-30
0.17033	-29
0.17400	-24
0.17767	-16
0.18133	-11
0.18500	-8
0.18867	-8
0.19233	-10
0.19600	-12
0.19967	-14
0.20333	-15
0.20700	-14
0.21067	-9
0.21433	-3
0.21800	-1
0.22167	-1
0.22533	-1
0.22900	0
0.23267	0
0.23633	-1
0.24000	-5
0.24367	-8
0.24733	-10
0.25100	-13
0.25467	-16
0.25833	-16
0.26200	-15
0.26567	-13
0.26933	-9
0.27300	-5
0.27667	-6
0.28033	-9
0.28400	-14
0.28767	-16
0.29133	-16
0.29500	-14
0.29867	-11
0.30233	-8
0.30600	-6
0.30967	-5
0.31333	-5
0.31700	-5
0.32067	-8
0.32433	-14
0.32800	-20
0.33167	-21
0.33533	-18
0.33900	-15
0.34267	-16
0.34633	-18
0.35000	-18
0.35367	-18
0.35733	-18
0.36100	-17
0.36467	-16
0.36833	-18
0.37200	-22
0.37567	-28
0.37933	-33
0.38300	-34
0.38667	-33
0.39033	-31
0.39400	-31
0.39767	-32
0.40133	-34
0.40500	-37
0.40867	-43
0.41233	-49
0.41600	-47
0.41967	-42
0.42333	-35
0.42700	-28
0.43067	-23
0.43433	-21
0.43800	-26
0.44167	-33
0.44533	-39
0.44900	-42
0.45267	-41
0.45633	-37
0.46000	-32
0.46367	-26
0.46733	-21
0.47100	-20
0.47467	-21
0.47833	-22
0.48200	-26
0.48567	-33
0.48933	-38
0.49300	-42
0.49667	-44
0.50033	-42
0.50400	-37
0.50767	-32
0.51133	-30
0.51500	-31
0.51867	-32
0.52233	-32
0.52600	-31
0.52967	-30
0.53333	-30
0.53700	-31
0.54067	-29
0.54433	-24
0.54800	-23
0.55167	-28
0.55533	-35
0.55900	-42
0.56267	-47
0.56633	-48
0.57000	-45
0.57367	-40
0.57733	-32
0.58100	-25
0.58467	-22
0.58833	-23
0.59200	-25
0.59567	-30
0.59933	-35
0.60300	-39
0.60667	-41
0.61033	-40
0.61400	-38
0.61767	-37
0.62133	-38
0.62500	-41
0.62867	-43
0.63233	-40
0.63600	-33
0.63967	-28
0.64333	-28
0.64700	-29
0.65067	-31
0.65433	-33
0.65800	-37
0.66167	-41
0.66533	-42
0.66900	-42
0.67267	-40
0.67633	-37
0.68000	-34
0.68367	-33
0.68733	-34
0.69100	-35
0.69467	-33
0.69833	-31
0.70200	-29
0.70567	-31
0.70933	-35
0.71300	-39
0.71667	-41
0.72033	-38
0.72400	-37
0.72767	-38
0.73133	-38
0.73500	-40
0.73867	-43
0.74233	-46
0.74600	-47
0.74967	-47
0.75333	-46
0.75700	-45
0.76067	-45
0.76433	-47
0.76800	-53
0.77167	-63
0.77533	-73
0.77900	-78
0.78267	-76
0.78633	-68
0.79000	-58
0.79367	-52
0.79733	-46
0.80100	-41
0.80467	-39
0.80833	-40
0.81200	-39
0.81567	-34
0.81933	-27
0.82300	-25
0.82667	-27
0.83033	-30
0.83400	-35
0.83767	-43
0.84133	-54
0.84500	-61
0.84867	-64
0.85233	-62
0.85600	-60
0.85967	-58
0.86333	-54
0.86700	-46
0.87067	-39
0.87433	-38
0.87800	-43
0.88167	-48
0.88533	-51
0.88900	-52
0.89267	-51
0.89633	-49
0.90000	-48
0.90367	-45
0.90733	-42
0.91100	-39
0.91467	-40
0.91833	-43
0.92200	-48
0.92567	-57
0.92933	-65
0.93300	-69
0.93667	-70
0.94033	-65
0.94400	-58
0.94767	-52
0.95133	-46
0.95500	-38
0.95867	-32
0.96233	-31
0.96600	-33
0.96967	-34
0.97333	-38
0.97700	-46
0.98067	-55
0.98433	-62
0.98800	-67
0.99167	-73
0.99533	-75
0.99900	-75
1.00267	-73
1.00633	-69
1.01000	-66
1.01367	-64
1.01733	-59
1.02100	-54
1.02467	-52
1.02833	-48
1.03200	-44
1.03567	-40
1.03933	-40
1.04300	-43
1.04667	-50
1.05033	-56
1.05400	-60
1.05767	-62
1.06133	-62
1.06500	-59
1.06867	-52
1.07233	-46
1.07600	-44
1.07967	-47
1.08333	-53
1.08700	-59
1.09067	-64
1.09433	-69
1.09800	-73
1.10167	-74
1.10533	-71
1.10900	-65
1.11267	-60
1.11633	-53
1.12000	-47
1.12367	-41
1.12733	-38
1.13100	-41
1.13467	-50
1.13833	-58
1.14200	-63
1.14567	-67
1.14933	-70
1.15300	-68
1.15667	-63
1.16033	-58
1.16400	-52
1.16767	-48
1.17133	-46
1.17500	-46
1.17867	-46
1.18233	-48
1.18600	-55
1.18967	-63
1.19333	-71
1.19700	-80
1.20067	-83
1.20433	-81
1.20800	-79
1.21167	-79
1.21533	-76
1.21900	-72
1.22267	-69
1.22633	-65
1.23000	-61
1.23367	-58
1.23733	-58
1.24100	-59
1.24467	-65
1.24833	-72
1.25200	-76
1.25567	-76
1.25933	-70
1.26300	-63
1.26667	-53
1.27033	-46
1.27400	-46
1.27767	-51
1.28133	-59
1.28500	-68
1.28867	-74
1.29233	-79
1.29600	-82
1.29967	-84
1.30333	-82
1.30700	-79
1.31067	-75
1.31433	-76
1.31800	-78
1.32167	-78
1.32533	-78
1.32900	-76
1.33267	-73
1.33633	-67
1.34000	-64
1.34367	-64
1.34733	-63
1.35100	-61
1.35467	-59
1.35833	-56
1.36200	-55
1.36567	-58
1.36933	-63
1.37300	-66
1.37667	-69
1.38033	-71
1.38400	-74
1.38767	-77
1.39133	-80
1.39500	-83
1.39867	-91
1.40233	-98
1.40600	-100
1.40967	-96
1.41333	-91
1.41700	-85
1.42067	-79
1.42433	-77
1.42800	-79
1.43167	-85
1.43533	-92
1.43900	-95
1.44267	-94
1.44633	-89
1.45000	-83
1.45367	-70
1.45733	-30
1.46100	90
1.46467	316
1.46833	604
1.47200	919
1.47567	1245
1.47933	1521
1.48300	1660
1.48667	1615
1.49033	1418
1.49400	1148
1.49767	871
1.50133	627
1.50500	430
1.50867	281
1.51233	171
1.51600	91
1.51967	33
1.52333	-7
1.52700	-32
1.53067	-45
1.53433	-52
1.53800	-56
1.54167	-62
1.54533	-69
1.54900	-78
1.55267	-85
1.55633	-73
1.56000	-4
1.56367	158
1.56733	405
1.57100	651
1.57467	792
1.57833	784
1.58200	661
1.58567	490
1.58933	326
1.59300	196
1.59667	104
1.60033	42
1.60400	0
1.60767	-30
1.61133	-55
1.61500	-71
1.61867	-82
1.62233	-90
1.62600	-97
1.62967	-104
1.63333	-108
1.63700	-111
1.64067	-111
1.64433	-109
1.64800	-104
1.65167	-96
1.65533	-90
1.65900	-88
1.66267	-85
1.66633	-78
1.67000	-67
1.67367	-62
1.67733	-64
1.68100	-70
1.68467	-79
1.68833	-89
1.69200	-98
1.69567	-107
1.69933	-110
1.70300	-106
1.70667	-100
1.71033	-93
1.71400	-88
1.71767	-88
1.72133	-92
1.72500	-99
1.72867	-104
1.73233	-106
1.73600	-105
1.73967	-98
1.74333	-92
1.74700	-92
1.75067	-94
1.75433	-93
1.75800	-89
1.76167	-87
1.76533	-89
1.76900	-95
1.77267	-101
1.77633	-106
1.78000	-110
1.78367	-112
1.78733	-110
1.79100	-105
1.79467	-100
1.79833	-98
1.80200	-98
1.80567	-95
1.80933	-90
1.81300	-87
1.81667	-87
1.82033	-87
1.82400	-89
1.82767	-92
1.83133	-97
1.83500	-103
1.83867	-108
1.84233	-108
1.84600	-106
1.84967	-104
1.85333	-100
1.85700	-93
1.86067	-88
1.86433	-87
1.86800	-88
1.87167	-90
1.87533	-90
1.87900	-90
1.88267	-90
1.88633	-91
1.89000	-96
1.89367	-97
1.89733	-93
1.90100	-85
1.90467	-78
1.90833	-77
1.91200	-80
1.91567	-84
1.91933	-88
1.92300	-90
1.92667	-91
1.93033	-90
1.93400	-86
1.93767	-81
1.94133	-77
1.94500	-73
1.94867	-70
1.95233	-69
1.95600	-67
1.95967	-61
1.96333	-51
1.96700	-24
1.97067	64
1.97433	429
1.97800	1936
1.98167	7166
1.98533	21456
1.98900	51640
1.99267	100587
1.99633	160716
2.00000	214649
2.00367	244916
2.00733	244184
2.01100	217609
2.01467	177197
2.01833	134598
2.02200	97148
2.02567	67680
2.02933	46111
2.03300	31060
2.03667	20881
2.04033	14130
2.04400	9696
2.04767	6794
2.05133	4887
2.05500	3621
2.05867	2764
2.06233	2175
2.06600	1762
2.06967	1464
2.07333	1244
2.07700	1076
2.08067	942
2.08433	834
2.08800	745
2.09167	670
2.09533	608
2.09900	556
2.10267	509
2.10633	469
2.11000	434
2.11367	406
2.11733	383
2.12100	361
2.12467	339
2.12833	315
2.13200	295
2.13567	281
2.13933	271
2.14300	258
2.14667	244
2.15033	230
2.15400	219
2.15767	208
2.16133	196
2.16500	184
2.16867	175
2.17233	167
2.17600	156
2.17967	145
2.18333	137
2.18700	131
2.19067	128
2.19433	129
2.19800	131
2.20167	129
2.20533	126
2.20900	123
2.21267	120
2.21633	116
2.22000	115
2.22367	117
2.22733	119
2.23100	119
2.23467	116
2.23833	111
2.24200	104
2.24567	96
2.24933	87
2.25300	76
2.25667	67
2.26033	64
2.26400	70
2.26767	78
2.27133	85
2.27500	89
2.27867	87
2.28233	79
2.28600	69
2.28967	61
2.29333	59
2.29700	58
2.30067	56
2.30433	52
2.30800	46
2.31167	41
2.31533	35
2.31900	30
2.32267	24
2.32633	24
2.33000	28
2.33367	34
2.33733	38
2.34100	41
2.34467	45
2.34833	51
2.35200	56
2.35567	58
2.35933	56
2.36300	54
2.36667	51
2.37033	48
2.37400	45
2.37767	41
2.38133	38
2.38500	37
2.38867	37
2.39233	40
2.39600	45
2.39967	49
2.40333	52
2.40700	55
2.41067	59
2.41433	60
2.41800	57
2.42167	55
2.42533	53
2.42900	46
2.43267	36
2.43633	26
2.44000	22
2.44367	25
2.44733	31
2.45100	39
2.45467	47
2.45833	51
2.46200	52
2.46567	45
2.46933	39
2.47300	35
2.47667	35
2.48033	36
2.48400	34
2.48767	31
2.49133	28
2.49500	28
2.49867	31
2.50233	38
2.50600	46
2.50967	53
2.51333	60
2.51700	66
2.52067	67
2.52433	64
2.52800	60
2.53167	57
2.53533	57
2.53900	57
2.54267	55
2.54633	50
2.55000	47
2.55367	47
2.55733	51
2.56100	56
2.56467	60
2.56833	65
2.57200	67
2.57567	67
2.57933	64
2.58300	63
2.58667	62
2.59033	57
2.59400	51
2.59767	46
2.60133	46
2.60500	49
2.60867	54
2.61233	58
2.61600	58
2.61967	55
2.62333	49
2.62700	44
2.63067	41
2.63433	42
2.63800	46
2.64167	51
2.64533	58
2.64900	64
2.65267	66
2.65633	65
2.66000	62
2.66367	61
2.66733	61
2.67100	60
2.67467	59
2.67833	57
2.68200	59
2.68567	60
2.68933	61
2.69300	62
2.69667	62
2.70033	64
2.70400	69
2.70767	72
2.71133	69
2.71500	64
2.71867	59
2.72233	56
2.72600	54
2.72967	52
2.73333	51
2.73700	52
2.74067	54
2.74433	56
2.74800	60
2.75167	61
2.75533	63
2.75900	65
2.76267	68
2.76633	71
2.77000	72
2.77367	72
2.77733	69
2.78100	67
2.78467	64
2.78833	63
2.79200	64
2.79567	68
2.79933	70
2.80300	67
2.80667	65
2.81033	64
2.81400	62
2.81767	60
2.82133	58
2.82500	58
2.82867	62
2.83233	67
2.83600	68
2.83967	67
2.84333	65
2.84700	63
2.85067	61
2.85433	59
2.85800	58
2.86167	58
2.86533	58
2.86900	60
2.87267	61
2.87633	59
2.88000	54
2.88367	52
2.88733	54
2.89100	60
2.89467	67
2.89833	76
2.90200	84
2.90567	90
2.90933	94
2.91300	95
2.91667	94
2.92033	88
2.92400	81
2.92767	74
2.93133	70
2.93500	69
2.93867	71
2.94233	73
2.94600	77
2.94967	83
2.95333	89
2.95700	93
2.96067	94
2.96433	92
2.96800	91
2.97167	93
2.97533	98
2.97900	102
2.98267	104
2.98633	102
2.99000	95
2.99367	83
2.99733	74
3.00100	69
3.00467	69
3.00833	72
3.01200	76
3.01567	77
3.01933	77
3.02300	81
3.02667	91
3.03033	100
3.03400	102
3.03767	98
3.04133	92
3.04500	86
3.04867	83
3.05233	81
3.05600	82
3.05967	84
3.06333	84
3.06700	82
3.07067	76
3.07433	68
3.07800	63
3.08167	63
3.08533	64
3.08900	67
3.09267	71
3.09633	72
3.10000	73
3.10367	74
3.10733	77
3.11100	82
3.11467	85
3.11833	86
3.12200	87
3.12567	85
3.12933	82
3.13300	79
3.13667	79
3.14033	80
3.14400	83
3.14767	87
3.15133	88
3.15500	87
3.15867	85
3.16233	81
3.16600	76
3.16967	69
3.17333	64
3.17700	61
3.18067	62
3.18433	66
3.18800	69
3.19167	73
3.19533	74
3.19900	71
3.20267	70
3.20633	70
3.21000	70
3.21367	67
3.21733	63
3.22100	59
3.22467	58
3.22833	56
3.23200	54
3.23567	54
3.23933	54
3.24300	56
3.24667	57
3.25033	59
3.25400	60
3.25767	61
3.26133	64
3.26500	69
3.26867	72
3.27233	75
3.27600	78
3.27967	81
3.28333	83
3.28700	86
3.29067	85
3.29433	82
3.29800	77
3.30167	70
3.30533	62
3.30900	59
3.31267	61
3.31633	66
3.32000	67
3.32367	65
3.32733	62
3.33100	63
3.33467	64
3.33833	64
3.34200	61
3.34567	62
3.34933	67
3.35300	74
3.35667	78
3.36033	78
3.36400	75
3.36767	71
3.37133	67
3.37500	63
3.37867	62
3.38233	59
3.38600	53
3.38967	44
3.39333	38
3.39700	37
3.40067	41
3.40433	48
3.40800	57
3.41167	65
3.41533	71
3.41900	73
3.42267	72
3.42633	68
3.43000	63
3.43367	54
3.43733	45
3.44100	41
3.44467	41
3.44833	42
3.45200	42
3.45567	40
3.45933	38
3.46300	39
3.46667	42
3.47033	47
3.47400	50
3.47767	50
3.48133	47
3.48500	41
3.48867	35
3.49233	35
3.49600	36
3.49967	35
3.50333	30
3.50700	28
3.51067	30
3.51433	35
3.51800	44
3.52167	52
3.52533	60
3.52900	63
3.53267	62
3.53633	58
3.54000	54
3.54367	48
3.54733	43
3.55100	40
3.55467	41
3.55833	46
3.56200	54
3.56567	62
3.56933	67
3.57300	70
3.57667	72
3.58033	72
3.58400	65
3.58767	53
3.59133	42
3.59500	36
3.59867	35
3.60233	35
3.60600	35
3.60967	39
3.61333	43
3.61700	42
3.62067	37
3.62433	33
3.62800	30
3.63167	30
3.63533	31
3.63900	32
3.64267	32
3.64633	33
3.65000	35
3.65367	36
3.65733	31
3.66100	23
3.66467	17
3.66833	14
3.67200	18
3.67567	25
3.67933	30
3.68300	36
3.68667	45
3.69033	56
3.69400	63
3.69767	65
3.70133	62
3.70500	55
3.70867	44
3.71233	34
3.71600	29
3.71967	30
3.72333	34
3.72700	34
3.73067	32
3.73433	29
3.73800	27
3.74167	28
3.74533	32
3.74900	34
3.75267	37
3.75633	42
3.76000	50
3.76367	54
3.76733	53
3.77100	46
3.77467	37
3.77833	29
3.78200	24
3.78567	25
3.78933	31
3.79300	38
3.79667	43
3.80033	44
3.80400	44
3.80767	46
3.81133	49
3.81500	51
3.81867	51
3.82233	50
3.82600	45
3.82967	38
3.83333	32
3.83700	29
3.84067	29
3.84433	31
3.84800	33
3.85167	35
3.85533	34
3.85900	33
3.86267	32
3.86633	29
3.87000	26
3.87367	26
3.87733	29
3.88100	32
3.88467	37
3.88833	42
3.89200	46
3.89567	46
3.89933	39
3.90300	33
3.90667	32
3.91033	33
3.91400	33
3.91767	30
3.92133	30
3.92500	29
3.92867	28
3.93233	27
3.93600	29
3.93967	31
3.94333	32
3.94700	31
3.95067	29
3.95433	28
3.95800	28
3.96167	28
3.96533	30
3.96900	32
3.97267	33
3.97633	35
3.98000	36
3.98367	37
3.98733	38
3.99100	39
3.99467	40
3.99833	40

[Chromatogram (Ch2)]
Interval(msec)	220
# of Points	1091
Start Time(min)	0.002
End Time(min)	3.998
R.Time (min)	Intensity
0.00167	-0
0.00533	-0
0.00900	0
0.01267	1
0.01633	1
0.02000	1
0.02367	1
0.02733	2
0.03100	2
0.03467	2
0.03833	3
0.04200	3
0.04567	4
0.04933	4
0.05300	5
0.05667	5
0.06033	5
0.06400	6
0.06767	6
0.07133	6
0.07500	6
0.07867	6
0.08233	6
0.08600	7
0.08967	6
0.09333	6
0.09700	6
0.10067	6
0.10433	6
0.10800	6
0.11167	6
0.11533	6
0.11900	6
0.12267	6
0.12633	6
0.13000	5
0.13367	5
0.13733	5
0.14100	5
0.14467	5
0.14833	5
0.15200	5
0.15567	5
0.15933	5
0.16300	5
0.16667	5
0.17033	5
0.17400	5
0.17767	5
0.18133	5
0.18500	5
0.18867	5
0.19233	5
0.19600	5
0.19967	5
0.20333	4
0.20700	4
0.21067	4
0.21433	4
0.21800	4
0.22167	4
0.22533	4
0.22900	4
0.23267	4
0.23633	4
0.24000	4
0.24367	4
0.24733	4
0.25100	4
0.25467	4
0.25833	4
0.26200	4
0.26567	4
0.26933	4
0.27300	4
0.27667	4
0.28033	4
0.28400	4
0.28767	4
0.29133	4
0.29500	4
0.29867	4
0.30233	4
0.30600	4
0.30967	4
0.31333	4
0.31700	4
0.32067	4
0.32433	4
0.32800	4
0.33167	4
0.33533	4
0.33900	3
0.34267	3
0.34633	3
0.35000	3
0.35367	3
0.35733	3
0.36100	3
0.36467	3
0.36833	3
0.37200	3
0.37567	3
0.37933	3
0.38300	4
0.38667	4
0.39033	4
0.39400	4
0.39767	4
0.40133	4
0.40500	4
0.40867	3
0.41233	3
0.41600	3
0.41967	2
0.42333	2
0.42700	2
0.43067	3
0.43433	3
0.43800	3
0.44167	3
0.44533	4
0.44900	4
0.45267	4
0.45633	4
0.46000	4
0.46367	4
0.46733	4
0.47100	4
0.47467	4
0.47833	4
0.48200	4
0.48567	4
0.48933	4
0.49300	4
0.49667	4
0.50033	4
0.50400	4
0.50767	4
0.51133	4
0.51500	4
0.51867	4
0.52233	4
0.52600	4
0.52967	4
0.53333	4
0.53700	4
0.54067	3
0.54433	3
0.54800	3
0.55167	3
0.55533	3
0.55900	3
0.56267	3
0.56633	3
0.57000	3
0.57367	3
0.57733	3
0.58100	3
0.58467	4
0.58833	4
0.59200	4
0.59567	4
0.59933	4
0.60300	4
0.60667	4
0.61033	3
0.61400	3
0.61767	3
0.62133	3
0.62500	3
0.62867	2
0.63233	2
0.63600	2
0.63967	2
0.64333	2
0.64700	1
0.65067	1
0.65433	1
0.65800	1
0.66167	0
0.66533	-0
0.66900	-0
0.67267	-0
0.67633	-0
0.68000	-1
0.68367	-1
0.68733	-1
0.69100	-1
0.69467	-1
0.69833	-1
0.70200	-1
0.70567	-1
0.70933	-0
0.71300	0
0.71667	1
0.72033	1
0.72400	2
0.72767	3
0.73133	3
0.73500	3
0.73867	3
0.74233	4
0.74600	4
0.74967	4
0.75333	4
0.75700	4
0.76067	4
0.76433	4
0.76800	4
0.77167	4
0.77533	5
0.77900	5
0.78267	5
0.78633	5
0.79000	5
0.79367	5
0.79733	5
0.80100	5
0.80467	5
0.80833	5
0.81200	4
0.81567	4
0.81933	4
0.82300	4
0.82667	3
0.83033	3
0.83400	3
0.83767	3
0.84133	3
0.84500	3
0.84867	3
0.85233	3
0.85600	3
0.85967	2
0.86333	2
0.86700	2
0.87067	1
0.87433	1
0.87800	1
0.88167	1
0.88533	1
0.88900	0
0.89267	1
0.89633	1
0.90000	1
0.90367	1
0.90733	1
0.91100	2
0.91467	2
0.91833	3
0.92200	3
0.92567	3
0.92933	4
0.93300	4
0.93667	4
0.94033	4
0.94400	5
0.94767	5
0.95133	5
0.95500	5
0.95867	5
0.96233	5
0.96600	5
0.96967	5
0.97333	5
0.97700	5
0.98067	5
0.98433	5
0.98800	4
0.99167	4
0.99533	4
0.99900	4
1.00267	3
1.00633	3
1.01000	2
1.01367	2
1.01733	2
1.02100	2
1.02467	1
1.02833	1
1.03200	1
1.03567	0
1.03933	0
1.04300	-0
1.04667	-1
1.05033	-1
1.05400	-1
1.05767	-1
1.06133	-1
1.06500	-1
1.06867	-1
1.07233	-1
1.07600	-0
1.07967	0
1.08333	0
1.08700	0
1.09067	0
1.09433	0
1.09800	1
1.10167	1
1.10533	1
1.10900	1
1.11267	2
1.11633	2
1.12000	2
1.12367	2
1.12733	2
1.13100	2
1.13467	2
1.13833	2
1.14200	2
1.14567	2
1.14933	2
1.15300	2
1.15667	2
1.16033	2
1.16400	3
1.16767	3
1.17133	2
1.17500	2
1.17867	2
1.18233	1
1.18600	1
1.18967	1
1.19333	0
1.19700	0
1.20067	1
1.20433	1
1.20800	1
1.21167	1
1.21533	1
1.21900	1
1.22267	1
1.22633	1
1.23000	1
1.23367	2
1.23733	2
1.24100	2
1.24467	3
1.24833	3
1.25200	4
1.25567	4
1.25933	4
1.26300	5
1.26667	5
1.27033	5
1.27400	4
1.27767	4
1.28133	4
1.28500	3
1.28867	3
1.29233	2
1.29600	1
1.29967	1
1.30333	1
1.30700	1
1.31067	1
1.31433	1
1.31800	1
1.32167	2
1.32533	2
1.32900	2
1.33267	2
1.33633	2
1.34000	2
1.34367	2
1.34733	3
1.35100	3
1.35467	3
1.35833	4
1.36200	4
1.36567	4
1.36933	4
1.37300	4
1.37667	4
1.38033	4
1.38400	4
1.38767	4
1.39133	4
1.39500	4
1.39867	4
1.40233	4
1.40600	4
1.40967	4
1.41333	4
1.41700	4
1.42067	4
1.42433	4
1.42800	3
1.43167	3
1.43533	3
1.43900	3
1.44267	3
1.44633	3
1.45000	3
1.45367	3
1.45733	3
1.46100	3
1.46467	3
1.46833	3
1.47200	3
1.47567	3
1.47933	2
1.48300	2
1.48667	2
1.49033	1
1.49400	1
1.49767	0
1.50133	-0
1.50500	-1
1.50867	-1
1.51233	-2
1.51600	-2
1.51967	-2
1.52333	-3
1.52700	-3
1.53067	-3
1.53433	-3
1.53800	-2
1.54167	-2
1.54533	-2
1.54900	-1
1.55267	-1
1.55633	-0
1.56000	-0
1.56367	0
1.56733	0
1.57100	0
1.57467	1
1.57833	1
1.58200	1
1.58567	1
1.58933	1
1.59300	1
1.59667	1
1.60033	0
1.60400	-0
1.60767	-2
1.61133	-3
1.61500	-5
1.61867	-7
1.62233	-10
1.62600	-13
1.62967	-16
1.63333	-19
1.63700	-23
1.64067	-27
1.64433	-30
1.64800	-35
1.65167	-38
1.65533	-42
1.65900	-46
1.66267	-50
1.66633	-55
1.67000	-59
1.67367	-64
1.67733	-69
1.68100	-74
1.68467	-79
1.68833	-84
1.69200	-89
1.69567	-92
1.69933	-96
1.70300	-99
1.70667	-101
1.71033	-103
1.71400	-105
1.71767	-106
1.72133	-107
1.72500	-109
1.72867	-110
1.73233	-111
1.73600	-113
1.73967	-113
1.74333	-114
1.74700	-114
1.75067	-114
1.75433	-114
1.75800	-114
1.76167	-114
1.76533	-113
1.76900	-113
1.77267	-114
1.77633	-114
1.78000	-115
1.78367	-115
1.78733	-116
1.79100	-116
1.79467	-117
1.79833	-118
1.80200	-119
1.80567	-119
1.80933	-120
1.81300	-120
1.81667	-121
1.82033	-121
1.82400	-121
1.82767	-120
1.83133	-120
1.83500	-120
1.83867	-120
1.84233	-121
1.84600	-121
1.84967	-121
1.85333	-121
1.85700	-121
1.86067	-120
1.86433	-120
1.86800	-120
1.87167	-120
1.87533	-120
1.87900	-120
1.88267	-121
1.88633	-121
1.89000	-121
1.89367	-121
1.89733	-121
1.90100	-121
1.90467	-121
1.90833	-120
1.91200	-120
1.91567	-119
1.91933	-119
1.92300	-118
1.92667	-118
1.93033	-117
1.93400	-117
1.93767	-117
1.94133	-117
1.94500	-116
1.94867	-116
1.95233	-115
1.95600	-115
1.95967	-115
1.96333	-114
1.96700	-114
1.97067	-114
1.97433	-114
1.97800	-113
1.98167	-113
1.98533	-113
1.98900	-113
1.99267	-113
1.99633	-113
2.00000	-113
2.00367	-113
2.00733	-113
2.01100	-113
2.01467	-113
2.01833	-113
2.02200	-113
2.02567	-112
2.02933	-112
2.03300	-112
2.03667	-112
2.04033	-112
2.04400	-111
2.04767	-111
2.05133	-110
2.05500	-109
2.05867	-109
2.06233	-108
2.06600	-108
2.06967	-108
2.07333	-107
2.07700	-107
2.08067	-107
2.08433	-107
2.08800	-107
2.09167	-107
2.09533	-106
2.09900	-106
2.10267	-105
2.10633	-105
2.11000	-104
2.11367	-104
2.11733	-104
2.12100	-103
2.12467	-103
2.12833	-102
2.13200	-102
2.13567	-102
2.13933	-101
2.14300	-101
2.14667	-101
2.15033	-101
2.15400	-101
2.15767	-100
2.16133	-100
2.16500	-100
2.16867	-100
2.17233	-100
2.17600	-100
2.17967	-100
2.18333	-100
2.18700	-100
2.19067	-100
2.19433	-99
2.19800	-99
2.20167	-99
2.20533	-98
2.20900	-97
2.21267	-96
2.21633	-95
2.22000	-95
2.22367	-94
2.22733	-93
2.23100	-93
2.23467	-93
2.23833	-93
2.24200	-93
2.24567	-93
2.24933	-93
2.25300	-93
2.25667	-93
2.26033	-93
2.26400	-92
2.26767	-92
2.27133	-92
2.27500	-91
2.27867	-91
2.28233	-90
2.28600	-90
2.28967	-90
2.29333	-90
2.29700	-89
2.30067	-89
2.30433	-88
2.30800	-88
2.31167	-87
2.31533	-87
2.31900	-87
2.32267	-87
2.32633	-86
2.33000	-86
2.33367	-86
2.33733	-86
2.34100	-86
2.34467	-86
2.34833	-86
2.35200	-86
2.35567	-85
2.35933	-84
2.36300	-83
2.36667	-81
2.37033	-79
2.37400	-76
2.37767	-73
2.38133	-69
2.38500	-66
2.38867	-61
2.39233	-57
2.39600	-51
2.39967	-46
2.40333	-41
2.40700	-36
2.41067	-31
2.41433	-27
2.41800	-24
2.42167	-20
2.42533	-17
2.42900	-14
2.43267	-11
2.43633	-9
2.44000	-7
2.44367	-5
2.44733	-4
2.45100	-2
2.45467	-1
2.45833	0
2.46200	2
2.46567	3
2.46933	4
2.47300	5
2.47667	6
2.48033	7
2.48400	8
2.48767	9
2.49133	10
2.49500	11
2.49867	12
2.50233	12
2.50600	13
2.50967	13
2.51333	13
2.51700	14
2.52067	14
2.52433	14
2.52800	15
2.53167	15
2.53533	16
2.53900	16
2.54267	16
2.54633	17
2.55000	17
2.55367	18
2.55733	18
2.56100	19
2.56467	19
2.56833	19
2.57200	18
2.57567	18
2.57933	18
2.58300	18
2.58667	18
2.59033	18
2.59400	19
2.59767	19
2.60133	20
2.60500	20
2.60867	21
2.61233	21
2.61600	21
2.61967	21
2.62333	21
2.62700	21
2.63067	22
2.63433	22
2.63800	22
2.64167	22
2.64533	23
2.64900	23
2.65267	23
2.65633	23
2.66000	24
2.66367	24
2.66733	24
2.67100	25
2.67467	25
2.67833	25
2.68200	25
2.68567	25
2.68933	25
2.69300	25
2.69667	25
2.70033	25
2.70400	25
2.70767	25
2.71133	25
2.71500	25
2.71867	26
2.72233	27
2.72600	27
2.72967	28
2.73333	28
2.73700	28
2.74067	29
2.74433	29
2.74800	29
2.75167	29
2.75533	29
2.75900	29
2.76267	28
2.76633	27
2.77000	27
2.77367	27
2.77733	26
2.78100	26
2.78467	26
2.78833	26
2.79200	26
2.79567	26
2.79933	25
2.80300	25
2.80667	25
2.81033	26
2.81400	26
2.81767	26
2.82133	26
2.82500	26
2.82867	26
2.83233	26
2.83600	26
2.83967	26
2.84333	27
2.84700	27
2.85067	27
2.85433	27
2.85800	27
2.86167	27
2.86533	27
2.86900	27
2.87267	26
2.87633	24
2.88000	21
2.88367	17
2.88733	9
2.89100	-1
2.89467	-15
2.89833	-31
2.90200	-51
2.90567	-74
2.90933	-100
2.91300	-129
2.91667	-160
2.92033	-194
2.92400	-230
2.92767	-267
2.93133	-301
2.93500	-329
2.93867	-346
2.94233	-353
2.94600	-350
2.94967	-339
2.95333	-321
2.95700	-298
2.96067	-272
2.96433	-245
2.96800	-218
2.97167	-192
2.97533	-168
2.97900	-145
2.98267	-124
2.98633	-104
2.99000	-87
2.99367	-72
2.99733	-59
3.00100	-48
3.00467	-38
3.00833	-29
3.01200	-21
3.01567	-15
3.01933	-9
3.02300	-4
3.02667	-0
3.03033	3
3.03400	6
3.03767	9
3.04133	11
3.04500	13
3.04867	14
3.05233	15
3.05600	16
3.05967	17
3.06333	18
3.06700	19
3.07067	19
3.07433	20
3.07800	20
3.08167	21
3.08533	21
3.08900	21
3.09267	21
3.09633	22
3.10000	22
3.10367	22
3.10733	22
3.11100	23
3.11467	23
3.11833	23
3.12200	23
3.12567	24
3.12933	24
3.13300	24
3.13667	24
3.14033	25
3.14400	25
3.14767	25
3.15133	26
3.15500	27
3.15867	27
3.16233	27
3.16600	27
3.16967	27
3.17333	27
3.17700	27
3.18067	28
3.18433	28
3.18800	28
3.19167	28
3.19533	28
3.19900	28
3.20267	28
3.20633	28
3.21000	28
3.21367	28
3.21733	28
3.22100	28
3.22467	27
3.22833	27
3.23200	27
3.23567	27
3.23933	27
3.24300	27
3.24667	27
3.25033	27
3.25400	26
3.25767	26
3.26133	26
3.26500	26
3.26867	27
3.27233	27
3.27600	27
3.27967	28
3.28333	28
3.28700	29
3.29067	29
3.29433	29
3.29800	29
3.30167	29
3.30533	30
3.30900	30
3.31267	30
3.31633	31
3.32000	31
3.32367	31
3.32733	32
3.33100	32
3.33467	32
3.33833	33
3.34200	33
3.34567	33
3.34933	33
3.35300	33
3.35667	33
3.36033	33
3.36400	33
3.36767	33
3.37133	33
3.37500	32
3.37867	32
3.38233	32
3.38600	32
3.38967	32
3.39333	32
3.39700	31
3.40067	31
3.40433	32
3.40800	32
3.41167	31
3.41533	31
3.41900	31
3.42267	31
3.42633	31
3.43000	31
3.43367	31
3.43733	31
3.44100	31
3.44467	31
3.44833	31
3.45200	31
3.45567	31
3.45933	31
3.46300	31
3.46667	30
3.47033	30
3.47400	30
3.47767	29
3.48133	29
3.48500	29
3.48867	28
3.49233	28
3.49600	28
3.49967	28
3.50333	28
3.50700	27
3.51067	27
3.51433	27
3.51800	27
3.52167	27
3.52533	27
3.52900	27
3.53267	26
3.53633	26
3.54000	26
3.54367	26
3.54733	26
3.55100	26
3.55467	26
3.55833	26
3.56200	27
3.56567	27
3.56933	27
3.57300	27
3.57667	27
3.58033	27
3.58400	27
3.58767	27
3.59133	27
3.59500	27
3.59867	27
3.60233	27
3.60600	27
3.60967	27
3.61333	28
3.61700	28
3.62067	28
3.62433	28
3.62800	28
3.63167	28
3.63533	28
3.63900	29
3.64267	29
3.64633	29
3.65000	29
3.65367	29
3.65733	29
3.66100	29
3.66467	29
3.66833	29
3.67200	29
3.67567	29
3.67933	29
3.68300	29
3.68667	29
3.69033	30
3.69400	30
3.69767	30
3.70133	30
3.70500	30
3.70867	30
3.71233	30
3.71600	30
3.71967	30
3.72333	30
3.72700	30
3.73067	29
3.73433	29
3.73800	29
3.74167	29
3.74533	29
3.74900	29
3.75267	29
3.75633	29
3.76000	29
3.76367	28
3.76733	28
3.77100	28
3.77467	28
3.77833	28
3.78200	28
3.78567	28
3.78933	28
3.79300	28
3.79667	28
3.80033	28
3.80400	28
3.80767	28
3.81133	28
3.81500	28
3.81867	28
3.82233	28
3.82600	28
3.82967	28
3.83333	28
3.83700	28
3.84067	28
3.84433	28
3.84800	28
3.85167	28
3.85533	29
3.85900	29
3.86267	29
3.86633	29
3.87000	29
3.87367	29
3.87733	29
3.88100	29
3.88467	29
3.88833	29
3.89200	29
3.89567	29
3.89933	30
3.90300	30
3.90667	30
3.91033	29
3.91400	29
3.91767	29
3.92133	29
3.92500	29
3.92867	29
3.93233	29
3.93600	29
3.93967	29
3.94333	28
3.94700	28
3.95067	28
3.95433	28
3.95800	28
3.96167	28
3.96533	28
3.96900	28
3.97267	29
3.97633	29
3.98000	29
3.98367	29
3.98733	29
3.99100	29
3.99467	29
3.99833	29

[Chromatogram (Ch3)]
Interval(msec)	220
# of Points	1091
Start Time(min)	0.002
End Time(min)	3.998
R.Time (min)	Intensity
0.00167	0
0.00533	1
0.00900	2
0.01267	4
0.01633	5
0.02000	5
0.02367	5
0.02733	4
0.03100	4
0.03467	3
0.03833	3
0.04200	3
0.04567	5
0.04933	6
0.05300	6
0.05667	6
0.06033	6
0.06400	6
0.06767	5
0.07133	6
0.07500	7
0.07867	6
0.08233	7
0.08600	8
0.08967	9
0.09333	9
0.09700	12
0.10067	15
0.10433	15
0.10800	16
0.11167	15
0.11533	14
0.11900	13
0.12267	12
0.12633	11
0.13000	11
0.13367	10
0.13733	11
0.14100	11
0.14467	12
0.14833	14
0.15200	14
0.15567	13
0.15933	12
0.16300	14
0.16667	15
0.17033	17
0.17400	16
0.17767	17
0.18133	19
0.18500	21
0.18867	20
0.19233	17
0.19600	15
0.19967	14
0.20333	14
0.20700	14
0.21067	14
0.21433	13
0.21800	13
0.22167	14
0.22533	15
0.22900	15
0.23267	14
0.23633	12
0.24000	11
0.24367	11
0.24733	11
0.25100	12
0.25467	12
0.25833	15
0.26200	16
0.26567	15
0.26933	16
0.27300	17
0.27667	19
0.28033	22
0.28400	24
0.28767	23
0.29133	23
0.29500	23
0.29867	23
0.30233	23
0.30600	24
0.30967	23
0.31333	22
0.31700	22
0.32067	22
0.32433	22
0.32800	23
0.33167	22
0.33533	21
0.33900	21
0.34267	22
0.34633	23
0.35000	21
0.35367	19
0.35733	19
0.36100	19
0.36467	20
0.36833	22
0.37200	24
0.37567	24
0.37933	24
0.38300	24
0.38667	23
0.39033	23
0.39400	23
0.39767	25
0.40133	25
0.40500	25
0.40867	27
0.41233	30
0.41600	31
0.41967	30
0.42333	29
0.42700	29
0.43067	26
0.43433	24
0.43800	24
0.44167	25
0.44533	24
0.44900	24
0.45267	23
0.45633	23
0.46000	24
0.46367	27
0.46733	27
0.47100	26
0.47467	26
0.47833	26
0.48200	27
0.48567	28
0.48933	29
0.49300	29
0.49667	28
0.50033	26
0.50400	27
0.50767	29
0.51133	29
0.51500	27
0.51867	28
0.52233	27
0.52600	26
0.52967	28
0.53333	29
0.53700	29
0.54067	28
0.54433	28
0.54800	28
0.55167	26
0.55533	27
0.55900	28
0.56267	28
0.56633	28
0.57000	25
0.57367	25
0.57733	28
0.58100	30
0.58467	31
0.58833	32
0.59200	33
0.59567	34
0.59933	34
0.60300	33
0.60667	30
0.61033	28
0.61400	27
0.61767	28
0.62133	30
0.62500	31
0.62867	33
0.63233	34
0.63600	33
0.63967	32
0.64333	33
0.64700	35
0.65067	34
0.65433	35
0.65800	35
0.66167	34
0.66533	33
0.66900	30
0.67267	30
0.67633	31
0.68000	32
0.68367	33
0.68733	33
0.69100	34
0.69467	34
0.69833	35
0.70200	36
0.70567	36
0.70933	35
0.71300	34
0.71667	34
0.72033	34
0.72400	34
0.72767	35
0.73133	39
0.73500	40
0.73867	39
0.74233	37
0.74600	36
0.74967	37
0.75333	37
0.75700	36
0.76067	34
0.76433	34
0.76800	36
0.77167	36
0.77533	36
0.77900	35
0.78267	34
0.78633	33
0.79000	32
0.79367	34
0.79733	38
0.80100	39
0.80467	37
0.80833	39
0.81200	40
0.81567	38
0.81933	36
0.82300	35
0.82667	37
0.83033	38
0.83400	40
0.83767	40
0.84133	39
0.84500	38
0.84867	39
0.85233	40
0.85600	40
0.85967	40
0.86333	39
0.86700	37
0.87067	35
0.87433	34
0.87800	34
0.88167	35
0.88533	37
0.88900	36
0.89267	35
0.89633	34
0.90000	36
0.90367	37
0.90733	39
0.91100	40
0.91467	40
0.91833	40
0.92200	39
0.92567	37
0.92933	37
0.93300	39
0.93667	40
0.94033	40
0.94400	38
0.94767	36
0.95133	37
0.95500	39
0.95867	41
0.96233	42
0.96600	40
0.96967	39
0.97333	39
0.97700	39
0.98067	38
0.98433	36
0.98800	34
0.99167	34
0.99533	35
0.99900	37
1.00267	40
1.00633	41
1.01000	43
1.01367	44
1.01733	43
1.02100	40
1.02467	39
1.02833	39
1.03200	40
1.03567	41
1.03933	42
1.04300	44
1.04667	46
1.05033	44
1.05400	41
1.05767	41
1.06133	43
1.06500	45
1.06867	47
1.07233	46
1.07600	46
1.07967	45
1.08333	45
1.08700	45
1.09067	43
1.09433	42
1.09800	40
1.10167	39
1.10533	39
1.10900	39
1.11267	39
1.11633	40
1.12000	40
1.12367	41
1.12733	42
1.13100	43
1.13467	44
1.13833	44
1.14200	46
1.14567	47
1.14933	50
1.15300	49
1.15667	48
1.16033	49
1.16400	49
1.16767	47
1.17133	47
1.17500	47
1.17867	44
1.18233	42
1.18600	40
1.18967	42
1.19333	45
1.19700	45
1.20067	45
1.20433	47
1.20800	50
1.21167	51
1.21533	50
1.21900	48
1.22267	46
1.22633	46
1.23000	47
1.23367	46
1.23733	46
1.24100	46
1.24467	46
1.24833	45
1.25200	45
1.25567	45
1.25933	43
1.26300	44
1.26667	46
1.27033	48
1.27400	49
1.27767	49
1.28133	50
1.28500	52
1.28867	53
1.29233	52
1.29600	50
1.29967	50
1.30333	48
1.30700	46
1.31067	44
1.31433	43
1.31800	43
1.32167	43
1.32533	47
1.32900	48
1.33267	47
1.33633	45
1.34000	44
1.34367	44
1.34733	47
1.35100	48
1.35467	47
1.35833	47
1.36200	48
1.36567	49
1.36933	46
1.37300	45
1.37667	46
1.38033	46
1.38400	46
1.38767	46
1.39133	43
1.39500	42
1.39867	43
1.40233	41
1.40600	40
1.40967	44
1.41333	46
1.41700	47
1.42067	48
1.42433	49
1.42800	48
1.43167	46
1.43533	43
1.43900	41
1.44267	40
1.44633	40
1.45000	40
1.45367	40
1.45733	42
1.46100	43
1.46467	44
1.46833	47
1.47200	49
1.47567	47
1.47933	45
1.48300	43
1.48667	43
1.49033	43
1.49400	40
1.49767	39
1.50133	39
1.50500	40
1.50867	42
1.51233	44
1.51600	45
1.51967	46
1.52333	44
1.52700	43
1.53067	43
1.53433	43
1.53800	45
1.54167	45
1.54533	44
1.54900	41
1.55267	38
1.55633	37
1.56000	37
1.56367	39
1.56733	41
1.57100	40
1.57467	38
1.57833	38
1.58200	40
1.58567	42
1.58933	42
1.59300	42
1.59667	40
1.60033	40
1.60400	41
1.60767	40
1.61133	41
1.61500	41
1.61867	41
1.62233	42
1.62600	41
1.62967	41
1.63333	43
1.63700	43
1.64067	43
1.64433	43
1.64800	42
1.65167	41
1.65533	42
1.65900	45
1.66267	46
1.66633	47
1.67000	46
1.67367	45
1.67733	44
1.68100	44
1.68467	47
1.68833	48
1.69200	50
1.69567	52
1.69933	51
1.70300	52
1.70667	52
1.71033	53
1.71400	56
1.71767	57
1.72133	58
1.72500	60
1.72867	61
1.73233	59
1.73600	58
1.73967	59
1.74333	60
1.74700	59
1.75067	59
1.75433	60
1.75800	62
1.76167	64
1.76533	67
1.76900	69
1.77267	70
1.77633	70
1.78000	67
1.78367	66
1.78733	68
1.79100	68
1.79467	67
1.79833	67
1.80200	66
1.80567	65
1.80933	67
1.81300	68
1.81667	68
1.82033	68
1.82400	69
1.82767	72
1.83133	74
1.83500	76
1.83867	76
1.84233	74
1.84600	72
1.84967	70
1.85333	69
1.85700	69
1.86067	69
1.86433	69
1.86800	69
1.87167	71
1.87533	73
1.87900	75
1.88267	76
1.88633	76
1.89000	74
1.89367	71
1.89733	70
1.90100	71
1.90467	73
1.90833	75
1.91200	77
1.91567	77
1.91933	77
1.92300	76
1.92667	76
1.93033	77
1.93400	76
1.93767	77
1.94133	79
1.94500	78
1.94867	77
1.95233	76
1.95600	76
1.95967	76
1.96333	77
1.96700	78
1.97067	80
1.97433	81
1.97800	84
1.98167	86
1.98533	86
1.98900	84
1.99267	82
1.99633	80
2.00000	78
2.00367	80
2.00733	84
2.01100	87
2.01467	89
2.01833	89
2.02200	90
2.02567	91
2.02933	94
2.03300	98
2.03667	100
2.04033	101
2.04400	103
2.04767	104
2.05133	104
2.05500	102
2.05867	100
2.06233	100
2.06600	99
2.06967	98
2.07333	99
2.07700	101
2.08067	102
2.08433	102
2.08800	102
2.09167	105
2.09533	105
2.09900	106
2.10267	106
2.10633	106
2.11000	107
2.11367	110
2.11733	112
2.12100	114
2.12467	115
2.12833	115
2.13200	117
2.13567	117
2.13933	117
2.14300	116
2.14667	115
2.15033	116
2.15400	116
2.15767	118
2.16133	118
2.16500	119
2.16867	121
2.17233	123
2.17600	125
2.17967	127
2.18333	129
2.18700	129
2.19067	127
2.19433	128
2.19800	130
2.20167	130
2.20533	132
2.20900	133
2.21267	133
2.21633	132
2.22000	131
2.22367	131
2.22733	131
2.23100	133
2.23467	133
2.23833	133
2.24200	130
2.24567	127
2.24933	129
2.25300	132
2.25667	136
2.26033	140
2.26400	143
2.26767	144
2.27133	143
2.27500	140
2.27867	137
2.28233	134
2.28600	135
2.28967	138
2.29333	141
2.29700	142
2.30067	141
2.30433	139
2.30800	138
2.31167	137
2.31533	137
2.31900	139
2.32267	141
2.32633	143
2.33000	145
2.33367	147
2.33733	147
2.34100	148
2.34467	150
2.34833	150
2.35200	150
2.35567	150
2.35933	151
2.36300	153
2.36667	155
2.37033	155
2.37400	157
2.37767	158
2.38133	158
2.38500	157
2.38867	157
2.39233	159
2.39600	160
2.39967	159
2.40333	160
2.40700	160
2.41067	159
2.41433	156
2.41800	156
2.42167	160
2.42533	163
2.42900	165
2.43267	165
2.43633	165
2.44000	165
2.44367	171
2.44733	190
2.45100	214
2.45467	238
2.45833	269
2.46200	307
2.46567	350
2.46933	395
2.47300	444
2.47667	493
2.48033	542
2.48400	588
2.48767	632
2.49133	673
2.49500	710
2.49867	744
2.50233	773
2.50600	795
2.50967	812
2.51333	826
2.51700	839
2.52067	849
2.52433	859
2.52800	868
2.53167	876
2.53533	883
2.53900	887
2.54267	892
2.54633	897
2.55000	903
2.55367	908
2.55733	914
2.56100	917
2.56467	918
2.56833	920
2.57200	923
2.57567	924
2.57933	923
2.58300	919
2.58667	911
2.59033	902
2.59400	900
2.59767	898
2.60133	897
2.60500	895
2.60867	890
2.61233	885
2.61600	881
2.61967	872
2.62333	861
2.62700	846
2.63067	829
2.63433	813
2.63800	796
2.64167	780
2.64533	766
2.64900	757
2.65267	751
2.65633	748
2.66000	746
2.66367	745
2.66733	747
2.67100	747
2.67467	751
2.67833	758
2.68200	763
2.68567	768
2.68933	771
2.69300	775
2.69667	779
2.70033	782
2.70400	786
2.70767	788
2.71133	791
2.71500	793
2.71867	794
2.72233	793
2.72600	789
2.72967	788
2.73333	789
2.73700	787
2.74067	785
2.74433	785
2.74800	786
2.75167	787
2.75533	788
2.75900	787
2.76267	784
2.76633	783
2.77000	781
2.77367	780
2.77733	778
2.78100	776
2.78467	774
2.78833	771
2.79200	769
2.79567	771
2.79933	773
2.80300	772
2.80667	770
2.81033	767
2.81400	765
2.81767	762
2.82133	759
2.82500	756
2.82867	754
2.83233	752
2.83600	754
2.83967	757
2.84333	765
2.84700	779
2.85067	809
2.85433	868
2.85800	971
2.86167	1124
2.86533	1324
2.86900	1555
2.87267	1794
2.87633	2012
2.88000	2186
2.88367	2300
2.88733	2350
2.89100	2341
2.89467	2285
2.89833	2192
2.90200	2078
2.90567	1952
2.90933	1825
2.91300	1700
2.91667	1583
2.92033	1473
2.92400	1374
2.92767	1285
2.93133	1206
2.93500	1136
2.93867	1076
2.94233	1024
2.94600	982
2.94967	944
2.95333	910
2.95700	878
2.96067	851
2.96433	829
2.96800	811
2.97167	795
2.97533	781
2.97900	769
2.98267	759
2.98633	750
2.99000	740
2.99367	730
2.99733	724
3.00100	720
3.00467	716
3.00833	711
3.01200	707
3.01567	706
3.01933	703
3.02300	700
3.02667	695
3.03033	693
3.03400	693
3.03767	694
3.04133	693
3.04500	692
3.04867	686
3.05233	681
3.05600	678
3.05967	676
3.06333	672
3.06700	670
3.07067	669
3.07433	668
3.07800	668
3.08167	665
3.08533	661
3.08900	660
3.09267	658
3.09633	655
3.10000	652
3.10367	651
3.10733	650
3.11100	649
3.11467	646
3.11833	644
3.12200	641
3.12567	640
3.12933	641
3.13300	642
3.13667	639
3.14033	634
3.14400	629
3.14767	625
3.15133	620
3.15500	617
3.15867	613
3.16233	610
3.16600	608
3.16967	606
3.17333	606
3.17700	606
3.18067	605
3.18433	602
3.18800	600
3.19167	598
3.19533	597
3.19900	596
3.20267	593
3.20633	590
3.21000	586
3.21367	582
3.21733	579
3.22100	577
3.22467	577
3.22833	575
3.23200	573
3.23567	570
3.23933	567
3.24300	565
3.24667	561
3.25033	556
3.25400	553
3.25767	552
3.26133	552
3.26500	553
3.26867	552
3.27233	550
3.27600	546
3.27967	543
3.28333	542
3.28700	539
3.29067	534
3.29433	529
3.29800	524
3.30167	523
3.30533	522
3.30900	519
3.31267	515
3.31633	511
3.32000	505
3.32367	500
3.32733	497
3.33100	494
3.33467	491
3.33833	490
3.34200	488
3.34567	483
3.34933	478
3.35300	474
3.35667	475
3.36033	476
3.36400	476
3.36767	472
3.37133	471
3.37500	467
3.37867	462
3.38233	458
3.38600	456
3.38967	455
3.39333	452
3.39700	448
3.40067	445
3.40433	445
3.40800	443
3.41167	439
3.41533	436
3.41900	434
3.42267	433
3.42633	430
3.43000	426
3.43367	422
3.43733	420
3.44100	418
3.44467	416
3.44833	415
3.45200	413
3.45567	409
3.45933	408
3.46300	408
3.46667	406
3.47033	406
3.47400	405
3.47767	401
3.48133	398
3.48500	395
3.48867	395
3.49233	394
3.49600	392
3.49967	391
3.50333	390
3.50700	386
3.51067	383
3.51433	378
3.51800	374
3.52167	371
3.52533	368
3.52900	366
3.53267	366
3.53633	367
3.54000	367
3.54367	366
3.54733	365
3.55100	361
3.55467	358
3.55833	354
3.56200	353
3.56567	352
3.56933	351
3.57300	351
3.57667	351
3.58033	348
3.58400	345
3.58767	344
3.59133	345
3.59500	343
3.59867	340
3.60233	338
3.60600	336
3.60967	334
3.61333	333
3.61700	333
3.62067	332
3.62433	331
3.62800	330
3.63167	330
3.63533	329
3.63900	324
3.64267	319
3.64633	318
3.65000	317
3.65367	317
3.65733	317
3.66100	317
3.66467	313
3.66833	310
3.67200	308
3.67567	307
3.67933	307
3.68300	305
3.68667	305
3.69033	303
3.69400	302
3.69767	302
3.70133	300
3.70500	299
3.70867	298
3.71233	297
3.71600	297
3.71967	297
3.72333	297
3.72700	297
3.73067	296
3.73433	294
3.73800	290
3.74167	288
3.74533	285
3.74900	283
3.75267	283
3.75633	282
3.76000	280
3.76367	279
3.76733	278
3.77100	277
3.77467	277
3.77833	277
3.78200	276
3.78567	274
3.78933	272
3.79300	270
3.79667	270
3.80033	272
3.80400	273
3.80767	272
3.81133	271
3.81500	270
3.81867	269
3.82233	267
3.82600	265
3.82967	264
3.83333	261
3.83700	257
3.84067	258
3.84433	259
3.84800	260
3.85167	259
3.85533	257
3.85900	257
3.86267	255
3.86633	253
3.87000	252
3.87367	250
3.87733	249
3.88100	250
3.88467	250
3.88833	250
3.89200	249
3.89567	248
3.89933	245
3.90300	242
3.90667	242
3.91033	240
3.91400	239
3.91767	239
3.92133	241
3.92500	242
3.92867	241
3.93233	239
3.93600	236
3.93967	234
3.94333	231
3.94700	229
3.95067	230
3.95433	231
3.95800	233
3.96167	232
3.96533	227
3.96900	224
3.97267	223
3.97633	223
3.98000	224
3.98367	225
3.98733	224
3.99100	221
3.99467	218
3.99833	216

[Status Trace (Column Oven Temperature)]
Interval(msec)	1000
# of Points	240
Start Time(min)	0.010
End Time(min)	3.994
Intensity Units	
Intensity Multiplier	1
R.Time (min)	Intensity
0.01030	35.04
0.02697	35.04
0.04363	35.02
0.06030	35.01
0.07697	35.00
0.09363	35.00
0.11030	34.99
0.12697	35.00
0.14363	35.00
0.16030	34.99
0.17697	34.99
0.19363	34.98
0.21030	34.98
0.22697	34.98
0.24363	34.98
0.26030	34.97
0.27697	34.98
0.29363	34.99
0.31030	34.99
0.32697	34.99
0.34363	35.00
0.36030	35.00
0.37697	35.00
0.39363	34.99
0.41030	34.99
0.42697	34.98
0.44363	34.98
0.46030	34.98
0.47697	34.99
0.49363	34.98
0.51030	34.98
0.52697	34.98
0.54363	34.99
0.56030	34.98
0.57697	34.98
0.59363	34.98
0.61030	34.97
0.62697	34.98
0.64363	34.99
0.66030	35.00
0.67697	35.02
0.69363	35.03
0.71030	35.02
0.72697	35.02
0.74363	35.01
0.76030	35.01
0.77697	34.99
0.79363	34.99
0.81030	34.99
0.82697	34.98
0.84363	34.99
0.86030	35.00
0.87697	35.01
0.89363	35.02
0.91030	35.00
0.92697	35.00
0.94363	34.99
0.96030	34.99
0.97697	34.99
0.99363	34.98
1.01030	34.98
1.02697	35.00
1.04363	35.02
1.06030	35.02
1.07697	35.02
1.09363	35.02
1.11030	35.01
1.12697	35.01
1.14363	35.01
1.16030	35.01
1.17697	35.02
1.19363	35.04
1.21030	35.04
1.22697	35.04
1.24363	35.02
1.26030	35.00
1.27697	35.00
1.29363	35.01
1.31030	35.01
1.32697	35.00
1.34363	35.00
1.36030	34.99
1.37697	34.99
1.39363	34.98
1.41030	34.98
1.42697	34.98
1.44363	34.97
1.46030	34.97
1.47697	34.97
1.49363	34.99
1.51030	35.01
1.52697	35.02
1.54363	35.02
1.56030	35.01
1.57697	35.01
1.59363	35.02
1.61030	35.07
1.62697	35.20
1.64363	35.41
1.66030	35.66
1.67697	36.00
1.69363	36.36
1.71030	36.71
1.72697	37.07
1.74363	37.39
1.76030	37.70
1.77697	38.02
1.79363	38.36
1.81030	38.70
1.82697	39.03
1.84363	39.37
1.86030	39.69
1.87697	40.03
1.89363	40.35
1.91030	40.68
1.92697	41.01
1.94363	41.34
1.96030	41.66
1.97697	41.98
1.99363	42.30
2.01030	42.63
2.02697	42.95
2.04363	43.29
2.06030	43.60
2.07697	43.94
2.09363	44.25
2.11030	44.59
2.12697	44.91
2.14363	45.24
2.16030	45.57
2.17697	45.90
2.19363	46.24
2.21030	46.56
2.22697	46.88
2.24363	47.22
2.26030	47.54
2.27697	47.87
2.29363	48.20
2.31030	48.52
2.32697	48.84
2.34363	49.18
2.36030	49.47
2.37697	49.66
2.39363	49.69
2.41030	49.70
2.42697	49.69
2.44363	49.72
2.46030	49.72
2.47697	49.74
2.49363	49.74
2.51030	49.77
2.52697	49.78
2.54363	49.79
2.56030	49.79
2.57697	49.83
2.59363	49.83
2.61030	49.83
2.62697	49.84
2.64363	49.84
2.66030	49.85
2.67697	49.85
2.69363	49.87
2.71030	49.87
2.72697	49.85
2.74363	49.85
2.76030	49.87
2.77697	49.88
2.79363	49.88
2.81030	49.90
2.82697	49.91
2.84363	49.91
2.86030	49.92
2.87697	49.93
2.89363	49.94
2.91030	49.94
2.92697	49.95
2.94363	49.96
2.96030	49.97
2.97697	49.98
2.99363	49.98
3.01030	50.00
3.02697	50.02
3.04363	50.03
3.06030	50.06
3.07697	50.07
3.09363	50.08
3.11030	50.10
3.12697	50.10
3.14363	50.10
3.16030	50.09
3.17697	50.09
3.19363	50.09
3.21030	50.09
3.22697	50.10
3.24363	50.10
3.26030	50.11
3.27697	50.11
3.29363	50.10
3.31030	50.07
3.32697	50.05
3.34363	50.03
3.36030	50.01
3.37697	50.00
3.39363	50.00
3.41030	49.99
3.42697	49.98
3.44363	49.98
3.46030	49.98
3.47697	49.98
3.49363	49.99
3.51030	49.99
3.52697	50.00
3.54363	50.01
3.56030	50.01
3.57697	50.02
3.59363	50.03
3.61030	50.03
3.62697	50.03
3.64363	50.02
3.66030	50.02
3.67697	50.02
3.69363	50.02
3.71030	50.02
3.72697	50.02
3.74363	50.02
3.76030	50.02
3.77697	50.02
3.79363	50.03
3.81030	50.04
3.82697	50.04
3.84363	50.04
3.86030	50.04
3.87697	50.04
3.89363	50.05
3.91030	50.05
3.92697	50.05
3.94363	50.05
3.96030	50.04
3.97697	50.05
3.99363	50.04

[Status Trace (Injection Unit Temperature)]
Interval(msec)	1000
# of Points	240
Start Time(min)	0.010
End Time(min)	3.994
Intensity Units	
Intensity Multiplier	1
R.Time (min)	Intensity
0.01030	99.98
0.02697	99.98
0.04363	99.98
0.06030	99.98
0.07697	99.98
0.09363	99.98
0.11030	99.98
0.12697	99.98
0.14363	99.98
0.16030	99.97
0.17697	99.98
0.19363	99.98
0.21030	99.97
0.22697	99.98
0.24363	99.98
0.26030	99.98
0.27697	99.98
0.29363	99.98
0.31030	99.98
0.32697	99.98
0.34363	99.98
0.36030	99.98
0.37697	99.99
0.39363	99.98
0.41030	99.98
0.42697	99.98
0.44363	99.98
0.46030	99.98
0.47697	99.98
0.49363	99.98
0.51030	99.99
0.52697	99.98
0.54363	99.99
0.56030	99.98
0.57697	99.98
0.59363	99.99
0.61030	99.98
0.62697	99.99
0.64363	99.98
0.66030	99.99
0.67697	99.98
0.69363	99.98
0.71030	99.99
0.72697	99.99
0.74363	99.98
0.76030	99.99
0.77697	99.99
0.79363	99.99
0.81030	99.99
0.82697	99.99
0.84363	99.98
0.86030	99.99
0.87697	99.99
0.89363	99.99
0.91030	99.99
0.92697	99.99
0.94363	99.98
0.96030	99.99
0.97697	99.99
0.99363	99.99
1.01030	99.98
1.02697	99.99
1.04363	99.99
1.06030	99.99
1.07697	99.99
1.09363	99.99
1.11030	99.98
1.12697	99.99
1.14363	99.99
1.16030	99.99
1.17697	99.99
1.19363	99.99
1.21030	99.99
1.22697	99.99
1.24363	99.98
1.26030	99.99
1.27697	99.99
1.29363	99.99
1.31030	99.99
1.32697	99.99
1.34363	99.99
1.36030	99.99
1.37697	99.99
1.39363	99.99
1.41030	99.98
1.42697	99.99
1.44363	99.99
1.46030	99.99
1.47697	99.99
1.49363	99.98
1.51030	99.99
1.52697	99.99
1.54363	99.99
1.56030	99.99
1.57697	99.98
1.59363	99.99
1.61030	99.98
1.62697	99.98
1.64363	99.99
1.66030	99.99
1.67697	99.99
1.69363	99.99
1.71030	99.99
1.72697	99.99
1.74363	99.99
1.76030	99.99
1.77697	99.98
1.79363	99.99
1.81030	99.98
1.82697	99.99
1.84363	99.98
1.86030	99.98
1.87697	99.98
1.89363	99.99
1.91030	99.99
1.92697	99.98
1.94363	99.98
1.96030	99.98
1.97697	99.98
1.99363	99.99
2.01030	99.99
2.02697	99.98
2.04363	99.98
2.06030	99.98
2.07697	99.98
2.09363	99.98
2.11030	99.98
2.12697	99.98
2.14363	99.97
2.16030	99.98
2.17697	99.98
2.19363	99.98
2.21030	99.97
2.22697	99.98
2.24363	99.98
2.26030	99.97
2.27697	99.98
2.29363	99.98
2.31030	99.98
2.32697	99.97
2.34363	99.98
2.36030	99.98
2.37697	99.98
2.39363	99.98
2.41030	99.98
2.42697	99.98
2.44363	99.98
2.46030	99.98
2.47697	99.98
2.49363	99.98
2.51030	99.98
2.52697	99.98
2.54363	99.98
2.56030	99.98
2.57697	99.98
2.59363	99.98
2.61030	99.98
2.62697	99.98
2.64363	99.98
2.66030	99.99
2.67697	99.99
2.69363	99.99
2.71030	99.99
2.72697	99.99
2.74363	99.99
2.76030	99.99
2.77697	100.00
2.79363	100.00
2.81030	100.00
2.82697	100.00
2.84363	100.00
2.86030	100.01
2.87697	100.00
2.89363	100.01
2.91030	100.01
2.92697	100.00
2.94363	100.01
2.96030	100.01
2.97697	100.00
2.99363	100.01
3.01030	100.01
3.02697	100.02
3.04363	100.01
3.06030	100.02
3.07697	100.01
3.09363	100.02
3.11030	100.02
3.12697	100.02
3.14363	100.02
3.16030	100.03
3.17697	100.02
3.19363	100.03
3.21030	100.03
3.22697	100.03
3.24363	100.02
3.26030	100.03
3.27697	100.03
3.29363	100.04
3.31030	100.03
3.32697	100.04
3.34363	100.04
3.36030	100.04
3.37697	100.04
3.39363	100.04
3.41030	100.04
3.42697	100.04
3.44363	100.04
3.46030	100.04
3.47697	100.04
3.49363	100.04
3.51030	100.04
3.52697	100.04
3.54363	100.04
3.56030	100.05
3.57697	100.05
3.59363	100.05
3.61030	100.05
3.62697	100.05
3.64363	100.05
3.66030	100.04
3.67697	100.05
3.69363	100.05
3.71030	100.04
3.72697	100.05
3.74363	100.05
3.76030	100.05
3.77697	100.05
3.79363	100.04
3.81030	100.05
3.82697	100.04
3.84363	100.04
3.86030	100.05
3.87697	100.04
3.89363	100.05
3.91030	100.05
3.92697	100.04
3.94363	100.05
3.96030	100.05
3.97697	100.05
3.99363	100.04

[Status Trace (Carrier Gas Pressure)]
Interval(msec)	1000
# of Points	240
Start Time(min)	0.010
End Time(min)	3.994
Intensity Units	
Intensity Multiplier	1
R.Time (min)	Intensity
0.01030	58.00
0.02697	55.10
0.04363	57.41
0.06030	59.41
0.07697	59.26
0.09363	58.03
0.11030	57.98
0.12697	58.01
0.14363	58.01
0.16030	58.00
0.17697	58.00
0.19363	58.00
0.21030	58.00
0.22697	58.00
0.24363	58.00
0.26030	58.00
0.27697	58.00
0.29363	58.00
0.31030	58.00
0.32697	58.00
0.34363	58.00
0.36030	58.00
0.37697	58.00
0.39363	58.00
0.41030	58.00
0.42697	58.00
0.44363	58.00
0.46030	58.00
0.47697	58.00
0.49363	58.00
0.51030	58.00
0.52697	58.00
0.54363	58.00
0.56030	58.00
0.57697	58.00
0.59363	58.00
0.61030	58.00
0.62697	58.00
0.64363	58.00
0.66030	58.00
0.67697	58.00
0.69363	58.00
0.71030	58.00
0.72697	58.00
0.74363	58.00
0.76030	58.00
0.77697	58.00
0.79363	58.00
0.81030	58.00
0.82697	58.00
0.84363	58.00
0.86030	58.00
0.87697	58.00
0.89363	58.00
0.91030	58.00
0.92697	58.00
0.94363	58.00
0.96030	58.00
0.97697	58.00
0.99363	58.00
1.01030	58.00
1.02697	58.00
1.04363	58.00
1.06030	58.00
1.07697	58.00
1.09363	58.00
1.11030	58.00
1.12697	58.00
1.14363	58.00
1.16030	58.00
1.17697	58.00
1.19363	58.00
1.21030	58.00
1.22697	58.00
1.24363	58.00
1.26030	58.00
1.27697	58.00
1.29363	58.00
1.31030	58.00
1.32697	58.00
1.34363	58.00
1.36030	58.00
1.37697	58.00
1.39363	58.00
1.41030	58.00
1.42697	58.00
1.44363	58.00
1.46030	58.00
1.47697	58.00
1.49363	58.00
1.51030	58.00
1.52697	58.00
1.54363	58.00
1.56030	58.00
1.57697	58.00
1.59363	58.00
1.61030	58.00
1.62697	58.00
1.64363	58.00
1.66030	58.00
1.67697	58.01
1.69363	58.00
1.71030	58.00
1.72697	58.00
1.74363	58.00
1.76030	58.00
1.77697	58.00
1.79363	58.00
1.81030	58.00
1.82697	58.00
1.84363	58.00
1.86030	58.00
1.87697	58.00
1.89363	58.00
1.91030	58.00
1.92697	58.00
1.94363	58.00
1.96030	58.00
1.97697	58.00
1.99363	58.00
2.01030	58.00
2.02697	58.00
2.04363	58.00
2.06030	58.00
2.07697	58.00
2.09363	58.00
2.11030	58.00
2.12697	58.00
2.14363	58.00
2.16030	58.00
2.17697	58.00
2.19363	58.00
2.21030	58.00
2.22697	58.00
2.24363	58.00
2.26030	58.00
2.27697	58.00
2.29363	58.00
2.31030	58.00
2.32697	58.00
2.34363	58.00
2.36030	58.00
2.37697	57.99
2.39363	57.99
2.41030	57.99
2.42697	58.00
2.44363	58.00
2.46030	58.00
2.47697	58.00
2.49363	58.00
2.51030	58.00
2.52697	57.98
2.54363	58.00
2.56030	58.00
2.57697	58.00
2.59363	58.00
2.61030	58.00
2.62697	58.00
2.64363	58.00
2.66030	58.00
2.67697	58.00
2.69363	58.00
2.71030	58.00
2.72697	58.00
2.74363	58.00
2.76030	58.00
2.77697	58.00
2.79363	58.00
2.81030	58.00
2.82697	58.00
2.84363	58.00
2.86030	58.00
2.87697	58.00
2.89363	58.00
2.91030	58.00
2.92697	58.00
2.94363	58.00
2.96030	58.00
2.97697	58.00
2.99363	58.00
3.01030	58.00
3.02697	58.00
3.04363	58.00
3.06030	58.00
3.07697	58.00
3.09363	58.00
3.11030	58.00
3.12697	58.00
3.14363	58.00
3.16030	58.00
3.17697	58.00
3.19363	58.00
3.21030	58.00
3.22697	58.00
3.24363	58.00
3.26030	58.00
3.27697	58.00
3.29363	58.00
3.31030	58.00
3.32697	58.00
3.34363	58.00
3.36030	58.00
3.37697	58.00
3.39363	58.00
3.41030	58.00
3.42697	58.00
3.44363	58.00
3.46030	58.00
3.47697	58.00
3.49363	58.00
3.51030	58.00
3.52697	58.00
3.54363	58.00
3.56030	58.00
3.57697	58.00
3.59363	58.00
3.61030	58.00
3.62697	58.00
3.64363	58.00
3.66030	58.00
3.67697	58.00
3.69363	58.00
3.71030	58.00
3.72697	58.00
3.74363	58.00
3.76030	58.00
3.77697	58.00
3.79363	58.00
3.81030	58.00
3.82697	58.00
3.84363	58.00
3.86030	58.00
3.87697	58.00
3.89363	58.00
3.91030	58.00
3.92697	58.00
3.94363	58.00
3.96030	58.00
3.97697	58.00
3.99363	58.00

[Status Trace (Carrier Gas Flow)]
Interval(msec)	1000
# of Points	240
Start Time(min)	0.010
End Time(min)	3.994
Intensity Units	
Intensity Multiplier	1
R.Time (min)	Intensity
0.01030	34.52
0.02697	34.54
0.04363	34.55
0.06030	34.54
0.07697	34.50
0.09363	34.52
0.11030	34.52
0.12697	34.52
0.14363	34.52
0.16030	34.52
0.17697	34.52
0.19363	34.52
0.21030	34.52
0.22697	34.52
0.24363	34.52
0.26030	34.52
0.27697	34.52
0.29363	34.52
0.31030	34.52
0.32697	34.52
0.34363	34.52
0.36030	34.52
0.37697	34.52
0.39363	34.52
0.41030	34.52
0.42697	34.52
0.44363	34.52
0.46030	34.52
0.47697	34.52
0.49363	34.52
0.51030	34.52
0.52697	34.52
0.54363	34.52
0.56030	34.52
0.57697	34.52
0.59363	34.52
0.61030	34.52
0.62697	34.52
0.64363	34.52
0.66030	34.52
0.67697	34.53
0.69363	34.52
0.71030	34.52
0.72697	34.52
0.74363	34.52
0.76030	34.52
0.77697	34.51
0.79363	34.52
0.81030	34.52
0.82697	34.51
0.84363	34.52
0.86030	34.52
0.87697	34.52
0.89363	34.52
0.91030	34.52
0.92697	34.52
0.94363	34.52
0.96030	34.52
0.97697	34.52
0.99363	34.52
1.01030	34.52
1.02697	34.52
1.04363	34.52
1.06030	34.52
1.07697	34.53
1.09363	34.51
1.11030	34.52
1.12697	34.52
1.14363	34.52
1.16030	34.52
1.17697	34.52
1.19363	34.52
1.21030	34.52
1.22697	34.52
1.24363	34.52
1.26030	34.52
1.27697	34.52
1.29363	34.52
1.31030	34.52
1.32697	34.52
1.34363	34.53
1.36030	34.52
1.37697	34.52
1.39363	34.52
1.41030	34.52
1.42697	34.51
1.44363	34.53
1.46030	34.52
1.47697	34.53
1.49363	34.52
1.51030	34.52
1.52697	34.52
1.54363	34.52
1.56030	34.52
1.57697	34.51
1.59363	34.53
1.61030	34.52
1.62697	34.52
1.64363	34.52
1.66030	34.52
1.67697	34.52
1.69363	34.52
1.71030	34.52
1.72697	34.52
1.74363	34.52
1.76030	34.52
1.77697	34.52
1.79363	34.52
1.81030	34.52
1.82697	34.52
1.84363	34.52
1.86030	34.52
1.87697	34.52
1.89363	34.52
1.91030	34.52
1.92697	34.52
1.94363	34.52
1.96030	34.52
1.97697	34.52
1.99363	34.52
2.01030	34.52
2.02697	34.52
2.04363	34.52
2.06030	34.52
2.07697	34.52
2.09363	34.52
2.11030	34.52
2.12697	34.52
2.14363	34.52
2.16030	34.52
2.17697	34.52
2.19363	34.52
2.21030	34.52
2.22697	34.52
2.24363	34.52
2.26030	34.52
2.27697	34.52
2.29363	34.52
2.31030	34.51
2.32697	34.52
2.34363	34.52
2.36030	34.52
2.37697	34.52
2.39363	34.52
2.41030	34.52
2.42697	34.52
2.44363	34.52
2.46030	34.52
2.47697	34.52
2.49363	34.52
2.51030	34.50
2.52697	34.52
2.54363	34.52
2.56030	34.52
2.57697	34.52
2.59363	34.52
2.61030	34.52
2.62697	34.52
2.64363	34.52
2.66030	34.52
2.67697	34.52
2.69363	34.52
2.71030	34.52
2.72697	34.52
2.74363	34.52
2.76030	34.52
2.77697	34.52
2.79363	34.52
2.81030	34.53
2.82697	34.52
2.84363	34.52
2.86030	34.53
2.87697	34.52
2.89363	34.52
2.91030	34.54
2.92697	34.51
2.94363	34.52
2.96030	34.53
2.97697	34.52
2.99363	34.52
3.01030	34.52
3.02697	34.52
3.04363	34.53
3.06030	34.52
3.07697	34.52
3.09363	34.51
3.11030	34.53
3.12697	34.52
3.14363	34.52
3.16030	34.51
3.17697	34.52
3.19363	34.52
3.21030	34.50
3.22697	34.51
3.24363	34.52
3.26030	34.51
3.27697	34.53
3.29363	34.53
3.31030	34.52
3.32697	34.52
3.34363	34.52
3.36030	34.52
3.37697	34.52
3.39363	34.52
3.41030	34.52
3.42697	34.52
3.44363	34.53
3.46030	34.52
3.47697	34.52
3.49363	34.52
3.51030	34.50
3.52697	34.51
3.54363	34.52
3.56030	34.52
3.57697	34.52
3.59363	34.52
3.61030	34.52
3.62697	34.52
3.64363	34.52
3.66030	34.52
3.67697	34.52
3.69363	34.52
3.71030	34.52
3.72697	34.52
3.74363	34.52
3.76030	34.52
3.77697	34.52
3.79363	34.52
3.81030	34.52
3.82697	34.52
3.84363	34.52
3.86030	34.52
3.87697	34.52
3.89363	34.52
3.91030	34.52
3.92697	34.52
3.94363	34.52
3.96030	34.52
3.97697	34.52
3.99363	34.52

[Status Trace (Column Flow)]
Interval(msec)	1000
# of Points	240
Start Time(min)	0.010
End Time(min)	3.994
Intensity Units	
Intensity Multiplier	1
R.Time (min)	Intensity
0.01030	5.56
0.02697	5.22
0.04363	5.49
0.06030	5.72
0.07697	5.71
0.09363	5.56
0.11030	5.56
0.12697	5.56
0.14363	5.56
0.16030	5.56
0.17697	5.56
0.19363	5.56
0.21030	5.56
0.22697	5.56
0.24363	5.56
0.26030	5.56
0.27697	5.56
0.29363	5.56
0.31030	5.56
0.32697	5.56
0.34363	5.56
0.36030	5.56
0.37697	5.56
0.39363	5.56
0.41030	5.56
0.42697	5.56
0.44363	5.56
0.46030	5.56
0.47697	5.56
0.49363	5.56
0.51030	5.56
0.52697	5.56
0.54363	5.56
0.56030	5.56
0.57697	5.56
0.59363	5.56
0.61030	5.56
0.62697	5.56
0.64363	5.56
0.66030	5.56
0.67697	5.56
0.69363	5.56
0.71030	5.56
0.72697	5.56
0.74363	5.56
0.76030	5.56
0.77697	5.56
0.79363	5.56
0.81030	5.56
0.82697	5.56
0.84363	5.56
0.86030	5.56
0.87697	5.56
0.89363	5.56
0.91030	5.56
0.92697	5.56
0.94363	5.56
0.96030	5.56
0.97697	5.56
0.99363	5.56
1.01030	5.56
1.02697	5.56
1.04363	5.56
1.06030	5.56
1.07697	5.56
1.09363	5.56
1.11030	5.56
1.12697	5.56
1.14363	5.56
1.16030	5.56
1.17697	5.56
1.19363	5.56
1.21030	5.56
1.22697	5.56
1.24363	5.56
1.26030	5.56
1.27697	5.56
1.29363	5.56
1.31030	5.56
1.32697	5.56
1.34363	5.56
1.36030	5.56
1.37697	5.56
1.39363	5.56
1.41030	5.56
1.42697	5.56
1.44363	5.56
1.46030	5.56
1.47697	5.56
1.49363	5.56
1.51030	5.56
1.52697	5.56
1.54363	5.56
1.56030	5.56
1.57697	5.56
1.59363	5.56
1.61030	5.56
1.62697	5.55
1.64363	5.54
1.66030	5.54
1.67697	5.53
1.69363	5.51
1.71030	5.50
1.72697	5.49
1.74363	5.48
1.76030	5.47
1.77697	5.46
1.79363	5.45
1.81030	5.44
1.82697	5.43
1.84363	5.42
1.86030	5.41
1.87697	5.40
1.89363	5.39
1.91030	5.38
1.92697	5.37
1.94363	5.36
1.96030	5.35
1.97697	5.34
1.99363	5.33
2.01030	5.32
2.02697	5.31
2.04363	5.30
2.06030	5.29
2.07697	5.28
2.09363	5.27
2.11030	5.27
2.12697	5.26
2.14363	5.25
2.16030	5.24
2.17697	5.23
2.19363	5.22
2.21030	5.21
2.22697	5.20
2.24363	5.19
2.26030	5.18
2.27697	5.17
2.29363	5.16
2.31030	5.15
2.32697	5.14
2.34363	5.13
2.36030	5.13
2.37697	5.12
2.39363	5.12
2.41030	5.12
2.42697	5.12
2.44363	5.12
2.46030	5.12
2.47697	5.12
2.49363	5.12
2.51030	5.12
2.52697	5.12
2.54363	5.12
2.56030	5.12
2.57697	5.12
2.59363	5.12
2.61030	5.12
2.62697	5.12
2.64363	5.12
2.66030	5.12
2.67697	5.12
2.69363	5.11
2.71030	5.11
2.72697	5.12
2.74363	5.12
2.76030	5.11
2.77697	5.11
2.79363	5.11
2.81030	5.11
2.82697	5.11
2.84363	5.11
2.86030	5.11
2.87697	5.11
2.89363	5.11
2.91030	5.11
2.92697	5.11
2.94363	5.11
2.96030	5.11
2.97697	5.11
2.99363	5.11
3.01030	5.11
3.02697	5.11
3.04363	5.11
3.06030	5.11
3.07697	5.11
3.09363	5.11
3.11030	5.11
3.12697	5.11
3.14363	5.11
3.16030	5.11
3.17697	5.11
3.19363	5.11
3.21030	5.11
3.22697	5.11
3.24363	5.11
3.26030	5.11
3.27697	5.11
3.29363	5.11
3.31030	5.11
3.32697	5.11
3.34363	5.11
3.36030	5.11
3.37697	5.11
3.39363	5.11
3.41030	5.11
3.42697	5.11
3.44363	5.11
3.46030	5.11
3.47697	5.11
3.49363	5.11
3.51030	5.11
3.52697	5.11
3.54363	5.11
3.56030	5.11
3.57697	5.11
3.59363	5.11
3.61030	5.11
3.62697	5.11
3.64363	5.11
3.66030	5.11
3.67697	5.11
3.69363	5.11
3.71030	5.11
3.72697	5.11
3.74363	5.11
3.76030	5.11
3.77697	5.11
3.79363	5.11
3.81030	5.11
3.82697	5.11
3.84363	5.11
3.86030	5.11
3.87697	5.11
3.89363	5.11
3.91030	5.11
3.92697	5.11
3.94363	5.11
3.96030	5.11
3.97697	5.11
3.99363	5.11

[Status Trace (Linear Velocity)]
Interval(msec)	1000
# of Points	240
Start Time(min)	0.010
End Time(min)	3.994
Intensity Units	
Intensity Multiplier	1
R.Time (min)	Intensity
0.01030	39.02
0.02697	37.12
0.04363	38.63
0.06030	39.95
0.07697	39.85
0.09363	39.04
0.11030	39.02
0.12697	39.03
0.14363	39.03
0.16030	39.03
0.17697	39.03
0.19363	39.03
0.21030	39.03
0.22697	39.03
0.24363	39.03
0.26030	39.03
0.27697	39.03
0.29363	39.03
0.31030	39.03
0.32697	39.03
0.34363	39.03
0.36030	39.03
0.37697	39.03
0.39363	39.03
0.41030	39.03
0.42697	39.03
0.44363	39.03
0.46030	39.03
0.47697	39.03
0.49363	39.03
0.51030	39.03
0.52697	39.03
0.54363	39.03
0.56030	39.03
0.57697	39.03
0.59363	39.03
0.61030	39.03
0.62697	39.03
0.64363	39.03
0.66030	39.02
0.67697	39.02
0.69363	39.02
0.71030	39.02
0.72697	39.02
0.74363	39.02
0.76030	39.02
0.77697	39.03
0.79363	39.03
0.81030	39.03
0.82697	39.03
0.84363	39.03
0.86030	39.03
0.87697	39.02
0.89363	39.02
0.91030	39.02
0.92697	39.02
0.94363	39.03
0.96030	39.03
0.97697	39.03
0.99363	39.03
1.01030	39.03
1.02697	39.03
1.04363	39.02
1.06030	39.02
1.07697	39.02
1.09363	39.02
1.11030	39.02
1.12697	39.02
1.14363	39.02
1.16030	39.02
1.17697	39.02
1.19363	39.02
1.21030	39.02
1.22697	39.02
1.24363	39.02
1.26030	39.02
1.27697	39.03
1.29363	39.02
1.31030	39.02
1.32697	39.02
1.34363	39.02
1.36030	39.03
1.37697	39.03
1.39363	39.03
1.41030	39.03
1.42697	39.03
1.44363	39.03
1.46030	39.03
1.47697	39.03
1.49363	39.03
1.51030	39.02
1.52697	39.02
1.54363	39.02
1.56030	39.02
1.57697	39.02
1.59363	39.02
1.61030	39.02
1.62697	39.01
1.64363	38.99
1.66030	38.96
1.67697	38.93
1.69363	38.90
1.71030	38.86
1.72697	38.83
1.74363	38.80
1.76030	38.77
1.77697	38.74
1.79363	38.71
1.81030	38.67
1.82697	38.64
1.84363	38.61
1.86030	38.58
1.87697	38.55
1.89363	38.52
1.91030	38.49
1.92697	38.45
1.94363	38.43
1.96030	38.40
1.97697	38.37
1.99363	38.34
2.01030	38.31
2.02697	38.28
2.04363	38.25
2.06030	38.22
2.07697	38.19
2.09363	38.16
2.11030	38.13
2.12697	38.10
2.14363	38.07
2.16030	38.04
2.17697	38.01
2.19363	37.98
2.21030	37.95
2.22697	37.92
2.24363	37.89
2.26030	37.86
2.27697	37.83
2.29363	37.80
2.31030	37.77
2.32697	37.74
2.34363	37.71
2.36030	37.69
2.37697	37.67
2.39363	37.66
2.41030	37.66
2.42697	37.67
2.44363	37.67
2.46030	37.66
2.47697	37.66
2.49363	37.66
2.51030	37.66
2.52697	37.65
2.54363	37.66
2.56030	37.66
2.57697	37.66
2.59363	37.65
2.61030	37.65
2.62697	37.66
2.64363	37.65
2.66030	37.65
2.67697	37.65
2.69363	37.65
2.71030	37.65
2.72697	37.65
2.74363	37.65
2.76030	37.65
2.77697	37.65
2.79363	37.65
2.81030	37.65
2.82697	37.65
2.84363	37.65
2.86030	37.65
2.87697	37.65
2.89363	37.65
2.91030	37.65
2.92697	37.65
2.94363	37.64
2.96030	37.64
2.97697	37.64
2.99363	37.64
3.01030	37.64
3.02697	37.64
3.04363	37.64
3.06030	37.64
3.07697	37.63
3.09363	37.63
3.11030	37.63
3.12697	37.63
3.14363	37.63
3.16030	37.63
3.17697	37.63
3.19363	37.63
3.21030	37.63
3.22697	37.63
3.24363	37.63
3.26030	37.63
3.27697	37.63
3.29363	37.63
3.31030	37.63
3.32697	37.64
3.34363	37.64
3.36030	37.64
3.37697	37.64
3.39363	37.64
3.41030	37.64
3.42697	37.64
3.44363	37.64
3.46030	37.64
3.47697	37.64
3.49363	37.64
3.51030	37.64
3.52697	37.64
3.54363	37.64
3.56030	37.64
3.57697	37.64
3.59363	37.64
3.61030	37.64
3.62697	37.64
3.64363	37.64
3.66030	37.64
3.67697	37.64
3.69363	37.64
3.71030	37.64
3.72697	37.64
3.74363	37.64
3.76030	37.64
3.77697	37.64
3.79363	37.64
3.81030	37.64
3.82697	37.64
3.84363	37.64
3.86030	37.64
3.87697	37.64
3.89363	37.64
3.91030	37.64
3.92697	37.64
3.94363	37.64
3.96030	37.64
3.97697	37.64
3.99363	37.64

