[Header]
Application Name	LabSolutions
Version	5.110
Data File Name	C:\Users\User\Desktop\GC Analyses\Jack\UIC Prairie Sampling\9.2.22\220902_041.gcd
Output Date	10/28/2022
Output Time	1:23:54 PM

[File Information]
Type	Data File
Generated	10/26/2022 11:41:43 AM
Generated by	System Administrator
Modified	10/26/2022 11:46:03 AM
Modified by	System Administrator

[Sample Information]
Operator Name	System Administrator
Acquired	10/26/2022 11:42:01 AM
Sample Type	1:Standard
Level	1
Sample Name	220902_UICPrairie
Sample ID	220902_UICPrairie
ISTD Amount1	1
ISTD Amount2	1
ISTD Amount3	1
ISTD Amount4	1
ISTD Amount5	1
ISTD Amount6	1
ISTD Amount7	1
ISTD Amount8	1
ISTD Amount9	1
ISTD Amount10	1
ISTD Amount11	1
ISTD Amount12	1
ISTD Amount13	1
ISTD Amount14	1
ISTD Amount15	1
ISTD Amount16	1
ISTD Amount17	1
ISTD Amount18	1
ISTD Amount19	1
ISTD Amount20	1
ISTD Amount21	1
ISTD Amount22	1
ISTD Amount23	1
ISTD Amount24	1
ISTD Amount25	1
ISTD Amount26	1
ISTD Amount27	1
ISTD Amount28	1
ISTD Amount29	1
ISTD Amount30	1
ISTD Amount31	1
ISTD Amount32	1
Sample Amount	1
Dilution Factor	1
Vial#	1
Injection Volume	1
Injection Count	1
Bar Code	

[Original Files]
Data File	C:\Users\User\Desktop\GC Analyses\Jack\UIC Prairie Sampling\9.2.22\220902_041.gcd
Method File	C:\LabSolutions\Data\GHG_4min_2022\ghg3_togas_w_acet_4 min_new_int.gcm
Batch File	
Report Format File	c:\LabSolutions\System\DEFAULT.lsr

[File Description]


[Configuration]
Instrument Name	C0B7VH3-Instrument1
Instrument #	1
Line #	1
# of Detectors	3
Detector ID	DET#1	DET#2	DET#3
Detector Name	FID	PTCD	ECD
# of Channels	1	1	1

[Peak Table(Ch1)]
# of Peaks	3
Peak#	R.Time	I.Time	F.Time	Area	Height	A/H	Conc.	Mark	ID#	Name	k'	Plate #	Plate Ht.	Tailing	Resolution	Sep.Factor	Area Ratio	Height Ratio	Conc. %	Norm Conc.
1	1.468	1.439	1.534	4106	1469	2.796	100.000	   	1	CO	0.000	5946	25.226	1.610	0.000	0.000	0	0	16.667	16.667
2	1.571	1.534	1.637	20345	10316	1.972	100.000	 V 	2	CH4	0.070	11585	12.948	1.129	1.526	0.000	0	0	16.667	16.667
3	1.996	1.952	2.367	2121417	1025634	2.068	400.000	   	3	CO2	0.360	17566	8.539	1.302	7.171	5.143	0	0	66.667	66.667

[Peak Table(Ch2)]
# of Peaks	0

[Peak Table(Ch3)]
# of Peaks	3
Peak#	R.Time	I.Time	F.Time	Area	Height	A/H	Conc.	Mark	ID#	Name	k'	Plate #	Plate Ht.	Tailing	Resolution	Sep.Factor	Area Ratio	Height Ratio	Conc. %	Norm Conc.
1	2.462	2.444	2.521	149	64	2.319	0.000	   			0.000	25489	5.885	1.916	0.000	0.000	0	0	0.000	0.000
2	2.777	2.598	2.818	4557	517	8.823	0.057	   	1	N2O	0.128	55	2748.498	0.000	0.403	0.000	0	0	5.743	5.743
3	2.884	2.818	3.874	74798	15984	4.680	0.943	 V 	1	N2O	0.171	12129	12.367	1.644	0.132	1.337	0	0	94.257	94.257

[Compound Results(Ch1)]
# of IDs	6
ID#	Name	R.Time	Area	Height	Conc.	Curve	3rd	2nd	1st	Constant	Area Ratio	Height Ratio	Conc. %	Norm Conc.
1	CO	1.468	4106	1469	100.000	Linear	0.000000e+00	0.000000e+00	4.105562e+001	0.000000e+00	0	0	16.667	16.667
2	CH4	1.571	20345	10316	100.000	Linear	0.000000e+00	0.000000e+00	2.034542e+002	0.000000e+00	0	0	16.667	16.667
3	CO2	1.996	2121417	1025634	400.000	Linear	0.000000e+00	0.000000e+00	5.303542e+003	0.000000e+00	0	0	66.667	66.667
4	Ethylene	0.000	0	0	0.000	Linear	0.000000e+00	0.000000e+00	0.000000e+00	0.000000e+00	0	0	0.000	0.000
5	Acetylene	0.000	0	0	0.000	Linear	0.000000e+00	0.000000e+00	0.000000e+00	0.000000e+00	0	0	0.000	0.000
6	Ethane	0.000	0	0	0.000	Linear	0.000000e+00	0.000000e+00	0.000000e+00	0.000000e+00	0	0	0.000	0.000

[Compound Results(Ch2)]
# of IDs	5
ID#	Name	R.Time	Area	Height	Conc.	Curve	3rd	2nd	1st	Constant	Area Ratio	Height Ratio	Conc. %	Norm Conc.
1	Hydrogen	0.000	0	0	0.000	Linear	0.000000e+00	0.000000e+00	0.000000e+00	0.000000e+00	0	0	0.000	0.000
2	Oxygen	0.000	0	0	0.000	Linear	0.000000e+00	0.000000e+00	0.000000e+00	0.000000e+00	0	0	0.000	0.000
3	Nitrogen	0.000	0	0	0.000	Linear	0.000000e+00	0.000000e+00	0.000000e+00	0.000000e+00	0	0	0.000	0.000
4	Methane	0.000	0	0	0.000	Linear	0.000000e+00	0.000000e+00	0.000000e+00	0.000000e+00	0	0	0.000	0.000
5	Carbon Monoxide	0.000	0	0	0.000	Linear	0.000000e+00	0.000000e+00	0.000000e+00	0.000000e+00	0	0	0.000	0.000

[Compound Results(Ch3)]
# of IDs	2
ID#	Name	R.Time	Area	Height	Conc.	Curve	3rd	2nd	1st	Constant	Area Ratio	Height Ratio	Conc. %	Norm Conc.
1	N2O	2.884	79356	16501	1.000	Linear	0.000000e+00	0.000000e+00	7.935554e+004	0.000000e+00	0	0	100.000	100.000
2	SF6	0.000	0	0	0.000	Linear	0.000000e+00	0.000000e+00	0.000000e+00	0.000000e+00	0	0	0.000	0.000

[Group Results(Ch1)]
# of Groups	0

[Group Results(Ch2)]
# of Groups	0

[Group Results(Ch3)]
# of Groups	0

[Chromatogram (Ch1)]
Interval(msec)	220
# of Points	1091
Start Time(min)	0.002
End Time(min)	3.998
R.Time (min)	Intensity
0.00167	-3
0.00533	-0
0.00900	2
0.01267	2
0.01633	2
0.02000	-1
0.02367	-5
0.02733	-8
0.03100	-10
0.03467	-14
0.03833	-17
0.04200	-20
0.04567	-20
0.04933	-13
0.05300	-2
0.05667	6
0.06033	7
0.06400	3
0.06767	-2
0.07133	-4
0.07500	-6
0.07867	-6
0.08233	-4
0.08600	-1
0.08967	2
0.09333	0
0.09700	-6
0.10067	-12
0.10433	-18
0.10800	-24
0.11167	-28
0.11533	-30
0.11900	-33
0.12267	-39
0.12633	-42
0.13000	-39
0.13367	-34
0.13733	-29
0.14100	-26
0.14467	-27
0.14833	-31
0.15200	-35
0.15567	-35
0.15933	-32
0.16300	-28
0.16667	-22
0.17033	-17
0.17400	-13
0.17767	-8
0.18133	-7
0.18500	-9
0.18867	-12
0.19233	-16
0.19600	-21
0.19967	-27
0.20333	-31
0.20700	-31
0.21067	-29
0.21433	-26
0.21800	-24
0.22167	-23
0.22533	-24
0.22900	-27
0.23267	-30
0.23633	-36
0.24000	-39
0.24367	-39
0.24733	-37
0.25100	-36
0.25467	-39
0.25833	-42
0.26200	-44
0.26567	-49
0.26933	-53
0.27300	-55
0.27667	-56
0.28033	-57
0.28400	-56
0.28767	-52
0.29133	-45
0.29500	-39
0.29867	-36
0.30233	-36
0.30600	-33
0.30967	-26
0.31333	-18
0.31700	-14
0.32067	-16
0.32433	-22
0.32800	-31
0.33167	-40
0.33533	-47
0.33900	-50
0.34267	-52
0.34633	-54
0.35000	-58
0.35367	-63
0.35733	-65
0.36100	-64
0.36467	-66
0.36833	-67
0.37200	-67
0.37567	-66
0.37933	-61
0.38300	-52
0.38667	-42
0.39033	-34
0.39400	-31
0.39767	-32
0.40133	-39
0.40500	-44
0.40867	-47
0.41233	-50
0.41600	-54
0.41967	-53
0.42333	-48
0.42700	-44
0.43067	-44
0.43433	-43
0.43800	-45
0.44167	-48
0.44533	-51
0.44900	-51
0.45267	-51
0.45633	-50
0.46000	-48
0.46367	-46
0.46733	-46
0.47100	-47
0.47467	-49
0.47833	-52
0.48200	-57
0.48567	-60
0.48933	-62
0.49300	-61
0.49667	-57
0.50033	-54
0.50400	-52
0.50767	-52
0.51133	-53
0.51500	-56
0.51867	-60
0.52233	-63
0.52600	-67
0.52967	-69
0.53333	-67
0.53700	-63
0.54067	-62
0.54433	-64
0.54800	-67
0.55167	-68
0.55533	-69
0.55900	-69
0.56267	-72
0.56633	-74
0.57000	-74
0.57367	-72
0.57733	-70
0.58100	-72
0.58467	-73
0.58833	-73
0.59200	-70
0.59567	-66
0.59933	-62
0.60300	-59
0.60667	-60
0.61033	-63
0.61400	-67
0.61767	-67
0.62133	-63
0.62500	-59
0.62867	-58
0.63233	-60
0.63600	-63
0.63967	-66
0.64333	-70
0.64700	-74
0.65067	-75
0.65433	-78
0.65800	-86
0.66167	-95
0.66533	-102
0.66900	-105
0.67267	-103
0.67633	-97
0.68000	-89
0.68367	-80
0.68733	-72
0.69100	-67
0.69467	-67
0.69833	-67
0.70200	-70
0.70567	-75
0.70933	-80
0.71300	-83
0.71667	-82
0.72033	-77
0.72400	-70
0.72767	-65
0.73133	-64
0.73500	-67
0.73867	-74
0.74233	-81
0.74600	-87
0.74967	-90
0.75333	-86
0.75700	-79
0.76067	-71
0.76433	-68
0.76800	-71
0.77167	-74
0.77533	-74
0.77900	-76
0.78267	-81
0.78633	-87
0.79000	-89
0.79367	-88
0.79733	-88
0.80100	-91
0.80467	-92
0.80833	-87
0.81200	-84
0.81567	-84
0.81933	-86
0.82300	-89
0.82667	-92
0.83033	-94
0.83400	-99
0.83767	-105
0.84133	-107
0.84500	-107
0.84867	-106
0.85233	-106
0.85600	-107
0.85967	-105
0.86333	-100
0.86700	-93
0.87067	-87
0.87433	-88
0.87800	-94
0.88167	-101
0.88533	-108
0.88900	-113
0.89267	-113
0.89633	-109
0.90000	-101
0.90367	-90
0.90733	-82
0.91100	-81
0.91467	-86
0.91833	-90
0.92200	-91
0.92567	-90
0.92933	-90
0.93300	-92
0.93667	-94
0.94033	-96
0.94400	-96
0.94767	-94
0.95133	-92
0.95500	-91
0.95867	-92
0.96233	-95
0.96600	-96
0.96967	-96
0.97333	-98
0.97700	-103
0.98067	-107
0.98433	-110
0.98800	-110
0.99167	-107
0.99533	-104
0.99900	-100
1.00267	-97
1.00633	-95
1.01000	-93
1.01367	-91
1.01733	-95
1.02100	-104
1.02467	-115
1.02833	-124
1.03200	-127
1.03567	-126
1.03933	-123
1.04300	-120
1.04667	-116
1.05033	-113
1.05400	-108
1.05767	-102
1.06133	-100
1.06500	-100
1.06867	-104
1.07233	-107
1.07600	-108
1.07967	-110
1.08333	-110
1.08700	-109
1.09067	-106
1.09433	-104
1.09800	-103
1.10167	-105
1.10533	-108
1.10900	-110
1.11267	-112
1.11633	-116
1.12000	-119
1.12367	-118
1.12733	-113
1.13100	-107
1.13467	-104
1.13833	-104
1.14200	-106
1.14567	-108
1.14933	-108
1.15300	-108
1.15667	-108
1.16033	-110
1.16400	-113
1.16767	-113
1.17133	-113
1.17500	-110
1.17867	-104
1.18233	-98
1.18600	-96
1.18967	-96
1.19333	-95
1.19700	-93
1.20067	-90
1.20433	-92
1.20800	-94
1.21167	-99
1.21533	-108
1.21900	-121
1.22267	-132
1.22633	-140
1.23000	-143
1.23367	-139
1.23733	-130
1.24100	-120
1.24467	-112
1.24833	-108
1.25200	-107
1.25567	-106
1.25933	-105
1.26300	-107
1.26667	-113
1.27033	-118
1.27400	-120
1.27767	-120
1.28133	-121
1.28500	-122
1.28867	-123
1.29233	-123
1.29600	-122
1.29967	-116
1.30333	-111
1.30700	-109
1.31067	-108
1.31433	-106
1.31800	-106
1.32167	-108
1.32533	-111
1.32900	-115
1.33267	-120
1.33633	-125
1.34000	-131
1.34367	-137
1.34733	-142
1.35100	-146
1.35467	-147
1.35833	-147
1.36200	-146
1.36567	-141
1.36933	-134
1.37300	-131
1.37667	-131
1.38033	-131
1.38400	-129
1.38767	-125
1.39133	-120
1.39500	-116
1.39867	-116
1.40233	-119
1.40600	-124
1.40967	-130
1.41333	-134
1.41700	-135
1.42067	-135
1.42433	-135
1.42800	-138
1.43167	-141
1.43533	-142
1.43900	-126
1.44267	-40
1.44633	179
1.45000	498
1.45367	812
1.45733	1059
1.46100	1224
1.46467	1314
1.46833	1345
1.47200	1335
1.47567	1295
1.47933	1231
1.48300	1141
1.48667	1020
1.49033	873
1.49400	717
1.49767	568
1.50133	433
1.50500	312
1.50867	209
1.51233	126
1.51600	62
1.51967	14
1.52333	-22
1.52700	-50
1.53067	-69
1.53433	-77
1.53800	-35
1.54167	197
1.54533	898
1.54900	2273
1.55267	4179
1.55633	6202
1.56000	7979
1.56367	9317
1.56733	10103
1.57100	10200
1.57467	9521
1.57833	8183
1.58200	6508
1.58567	4846
1.58933	3422
1.59300	2319
1.59667	1518
1.60033	959
1.60400	580
1.60767	331
1.61133	168
1.61500	60
1.61867	-11
1.62233	-57
1.62600	-85
1.62967	-99
1.63333	-106
1.63700	-110
1.64067	-117
1.64433	-125
1.64800	-133
1.65167	-135
1.65533	-135
1.65900	-133
1.66267	-135
1.66633	-142
1.67000	-151
1.67367	-157
1.67733	-159
1.68100	-159
1.68467	-158
1.68833	-157
1.69200	-154
1.69567	-152
1.69933	-154
1.70300	-157
1.70667	-160
1.71033	-162
1.71400	-161
1.71767	-158
1.72133	-154
1.72500	-149
1.72867	-146
1.73233	-144
1.73600	-141
1.73967	-139
1.74333	-138
1.74700	-141
1.75067	-147
1.75433	-153
1.75800	-161
1.76167	-165
1.76533	-166
1.76900	-166
1.77267	-167
1.77633	-166
1.78000	-163
1.78367	-159
1.78733	-156
1.79100	-155
1.79467	-156
1.79833	-156
1.80200	-154
1.80567	-151
1.80933	-147
1.81300	-143
1.81667	-138
1.82033	-135
1.82400	-135
1.82767	-137
1.83133	-141
1.83500	-148
1.83867	-152
1.84233	-157
1.84600	-158
1.84967	-155
1.85333	-152
1.85700	-150
1.86067	-151
1.86433	-150
1.86800	-147
1.87167	-143
1.87533	-142
1.87900	-145
1.88267	-149
1.88633	-151
1.89000	-150
1.89367	-148
1.89733	-145
1.90100	-144
1.90467	-144
1.90833	-146
1.91200	-151
1.91567	-156
1.91933	-154
1.92300	-150
1.92667	-147
1.93033	-144
1.93400	-140
1.93767	-135
1.94133	-134
1.94500	-137
1.94867	-141
1.95233	-133
1.95600	-16
1.95967	741
1.96333	4436
1.96700	17985
1.97067	55778
1.97433	137229
1.97800	273772
1.98167	455409
1.98533	652857
1.98900	831040
1.99267	961196
1.99633	1025528
2.00000	1016622
2.00367	939561
2.00733	812051
2.01100	659567
2.01467	507319
2.01833	373165
2.02200	265324
2.02567	184294
2.02933	126273
2.03300	86090
2.03667	58863
2.04033	40647
2.04400	28520
2.04767	20436
2.05133	15008
2.05500	11324
2.05867	8788
2.06233	7006
2.06600	5721
2.06967	4771
2.07333	4049
2.07700	3490
2.08067	3051
2.08433	2702
2.08800	2421
2.09167	2190
2.09533	1994
2.09900	1821
2.10267	1666
2.10633	1527
2.11000	1405
2.11367	1297
2.11733	1203
2.12100	1125
2.12467	1060
2.12833	1001
2.13200	945
2.13567	894
2.13933	849
2.14300	807
2.14667	765
2.15033	724
2.15400	690
2.15767	660
2.16133	634
2.16500	610
2.16867	585
2.17233	562
2.17600	539
2.17967	519
2.18333	504
2.18700	491
2.19067	479
2.19433	467
2.19800	451
2.20167	434
2.20533	415
2.20900	394
2.21267	376
2.21633	360
2.22000	345
2.22367	330
2.22733	315
2.23100	301
2.23467	289
2.23833	280
2.24200	274
2.24567	270
2.24933	265
2.25300	259
2.25667	255
2.26033	254
2.26400	251
2.26767	247
2.27133	242
2.27500	237
2.27867	229
2.28233	220
2.28600	208
2.28967	196
2.29333	185
2.29700	180
2.30067	180
2.30433	181
2.30800	180
2.31167	177
2.31533	172
2.31900	167
2.32267	164
2.32633	163
2.33000	166
2.33367	168
2.33733	167
2.34100	165
2.34467	163
2.34833	159
2.35200	152
2.35567	146
2.35933	137
2.36300	127
2.36667	119
2.37033	116
2.37400	116
2.37767	117
2.38133	120
2.38500	127
2.38867	133
2.39233	134
2.39600	133
2.39967	128
2.40333	124
2.40700	124
2.41067	129
2.41433	135
2.41800	135
2.42167	129
2.42533	119
2.42900	110
2.43267	104
2.43633	103
2.44000	109
2.44367	119
2.44733	128
2.45100	131
2.45467	127
2.45833	118
2.46200	112
2.46567	105
2.46933	100
2.47300	99
2.47667	99
2.48033	99
2.48400	96
2.48767	92
2.49133	90
2.49500	90
2.49867	92
2.50233	94
2.50600	90
2.50967	83
2.51333	78
2.51700	72
2.52067	68
2.52433	65
2.52800	64
2.53167	64
2.53533	66
2.53900	68
2.54267	69
2.54633	70
2.55000	68
2.55367	62
2.55733	57
2.56100	53
2.56467	55
2.56833	61
2.57200	68
2.57567	72
2.57933	76
2.58300	80
2.58667	79
2.59033	73
2.59400	65
2.59767	59
2.60133	56
2.60500	56
2.60867	58
2.61233	59
2.61600	59
2.61967	60
2.62333	59
2.62700	53
2.63067	47
2.63433	45
2.63800	46
2.64167	51
2.64533	59
2.64900	66
2.65267	69
2.65633	69
2.66000	68
2.66367	68
2.66733	66
2.67100	61
2.67467	57
2.67833	51
2.68200	46
2.68567	48
2.68933	53
2.69300	57
2.69667	62
2.70033	66
2.70400	67
2.70767	66
2.71133	62
2.71500	58
2.71867	54
2.72233	52
2.72600	50
2.72967	49
2.73333	48
2.73700	45
2.74067	42
2.74433	38
2.74800	34
2.75167	33
2.75533	34
2.75900	34
2.76267	33
2.76633	33
2.77000	37
2.77367	43
2.77733	49
2.78100	53
2.78467	55
2.78833	53
2.79200	52
2.79567	51
2.79933	50
2.80300	49
2.80667	48
2.81033	49
2.81400	49
2.81767	48
2.82133	42
2.82500	35
2.82867	30
2.83233	25
2.83600	22
2.83967	22
2.84333	27
2.84700	33
2.85067	41
2.85433	47
2.85800	50
2.86167	51
2.86533	51
2.86900	50
2.87267	49
2.87633	48
2.88000	48
2.88367	47
2.88733	49
2.89100	52
2.89467	53
2.89833	56
2.90200	60
2.90567	64
2.90933	66
2.91300	62
2.91667	55
2.92033	45
2.92400	36
2.92767	30
2.93133	27
2.93500	28
2.93867	32
2.94233	41
2.94600	52
2.94967	59
2.95333	58
2.95700	49
2.96067	38
2.96433	30
2.96800	27
2.97167	30
2.97533	41
2.97900	52
2.98267	56
2.98633	54
2.99000	47
2.99367	38
2.99733	29
3.00100	22
3.00467	18
3.00833	17
3.01200	17
3.01567	21
3.01933	26
3.02300	30
3.02667	34
3.03033	42
3.03400	50
3.03767	52
3.04133	50
3.04500	47
3.04867	44
3.05233	42
3.05600	39
3.05967	37
3.06333	36
3.06700	34
3.07067	33
3.07433	34
3.07800	35
3.08167	34
3.08533	32
3.08900	31
3.09267	29
3.09633	28
3.10000	29
3.10367	32
3.10733	33
3.11100	31
3.11467	27
3.11833	25
3.12200	29
3.12567	38
3.12933	46
3.13300	49
3.13667	47
3.14033	45
3.14400	45
3.14767	44
3.15133	40
3.15500	27
3.15867	10
3.16233	-5
3.16600	-14
3.16967	-16
3.17333	-12
3.17700	-3
3.18067	4
3.18433	14
3.18800	24
3.19167	28
3.19533	27
3.19900	24
3.20267	23
3.20633	24
3.21000	27
3.21367	34
3.21733	37
3.22100	34
3.22467	27
3.22833	20
3.23200	15
3.23567	11
3.23933	6
3.24300	7
3.24667	13
3.25033	19
3.25400	22
3.25767	21
3.26133	22
3.26500	24
3.26867	28
3.27233	34
3.27600	38
3.27967	40
3.28333	36
3.28700	31
3.29067	28
3.29433	24
3.29800	20
3.30167	18
3.30533	16
3.30900	14
3.31267	16
3.31633	23
3.32000	30
3.32367	33
3.32733	35
3.33100	35
3.33467	33
3.33833	26
3.34200	17
3.34567	10
3.34933	4
3.35300	-2
3.35667	-6
3.36033	-7
3.36400	-3
3.36767	3
3.37133	6
3.37500	10
3.37867	18
3.38233	27
3.38600	30
3.38967	24
3.39333	13
3.39700	5
3.40067	1
3.40433	-1
3.40800	-3
3.41167	-1
3.41533	-1
3.41900	0
3.42267	2
3.42633	2
3.43000	2
3.43367	2
3.43733	-1
3.44100	-4
3.44467	-7
3.44833	-9
3.45200	-7
3.45567	-2
3.45933	5
3.46300	10
3.46667	10
3.47033	6
3.47400	3
3.47767	4
3.48133	6
3.48500	6
3.48867	3
3.49233	-2
3.49600	-6
3.49967	-7
3.50333	-6
3.50700	-7
3.51067	-11
3.51433	-13
3.51800	-12
3.52167	-9
3.52533	-5
3.52900	-4
3.53267	-7
3.53633	-10
3.54000	-10
3.54367	-9
3.54733	-9
3.55100	-6
3.55467	-2
3.55833	-0
3.56200	-2
3.56567	-4
3.56933	-7
3.57300	-8
3.57667	-7
3.58033	-9
3.58400	-14
3.58767	-20
3.59133	-22
3.59500	-23
3.59867	-22
3.60233	-19
3.60600	-13
3.60967	-7
3.61333	-4
3.61700	-6
3.62067	-5
3.62433	-2
3.62800	-6
3.63167	-8
3.63533	-9
3.63900	-9
3.64267	-10
3.64633	-10
3.65000	-9
3.65367	-10
3.65733	-12
3.66100	-15
3.66467	-19
3.66833	-23
3.67200	-27
3.67567	-29
3.67933	-30
3.68300	-31
3.68667	-34
3.69033	-36
3.69400	-34
3.69767	-30
3.70133	-22
3.70500	-13
3.70867	-8
3.71233	-9
3.71600	-13
3.71967	-18
3.72333	-20
3.72700	-19
3.73067	-18
3.73433	-16
3.73800	-14
3.74167	-13
3.74533	-13
3.74900	-11
3.75267	-8
3.75633	-6
3.76000	-4
3.76367	-6
3.76733	-8
3.77100	-10
3.77467	-11
3.77833	-11
3.78200	-10
3.78567	-10
3.78933	-15
3.79300	-21
3.79667	-25
3.80033	-27
3.80400	-29
3.80767	-27
3.81133	-26
3.81500	-24
3.81867	-22
3.82233	-18
3.82600	-15
3.82967	-10
3.83333	-4
3.83700	-1
3.84067	-1
3.84433	-4
3.84800	-10
3.85167	-18
3.85533	-24
3.85900	-26
3.86267	-28
3.86633	-28
3.87000	-29
3.87367	-29
3.87733	-30
3.88100	-32
3.88467	-32
3.88833	-31
3.89200	-29
3.89567	-26
3.89933	-23
3.90300	-22
3.90667	-25
3.91033	-31
3.91400	-38
3.91767	-48
3.92133	-54
3.92500	-55
3.92867	-52
3.93233	-48
3.93600	-46
3.93967	-45
3.94333	-45
3.94700	-43
3.95067	-40
3.95433	-37
3.95800	-35
3.96167	-29
3.96533	-24
3.96900	-23
3.97267	-25
3.97633	-27
3.98000	-28
3.98367	-33
3.98733	-39
3.99100	-42
3.99467	-41
3.99833	-40

[Chromatogram (Ch2)]
Interval(msec)	220
# of Points	1091
Start Time(min)	0.002
End Time(min)	3.998
R.Time (min)	Intensity
0.00167	-1
0.00533	-1
0.00900	-2
0.01267	-2
0.01633	-3
0.02000	-4
0.02367	-4
0.02733	-5
0.03100	-5
0.03467	-5
0.03833	-6
0.04200	-6
0.04567	-7
0.04933	-7
0.05300	-7
0.05667	-7
0.06033	-7
0.06400	-7
0.06767	-7
0.07133	-6
0.07500	-6
0.07867	-6
0.08233	-6
0.08600	-5
0.08967	-5
0.09333	-5
0.09700	-4
0.10067	-4
0.10433	-3
0.10800	-3
0.11167	-2
0.11533	-2
0.11900	-1
0.12267	-1
0.12633	-1
0.13000	-1
0.13367	-1
0.13733	-1
0.14100	-0
0.14467	0
0.14833	1
0.15200	1
0.15567	2
0.15933	2
0.16300	2
0.16667	2
0.17033	1
0.17400	1
0.17767	1
0.18133	0
0.18500	0
0.18867	-0
0.19233	-0
0.19600	-1
0.19967	-1
0.20333	-1
0.20700	-2
0.21067	-2
0.21433	-2
0.21800	-2
0.22167	-1
0.22533	-1
0.22900	-1
0.23267	-1
0.23633	-1
0.24000	-1
0.24367	-1
0.24733	-1
0.25100	-1
0.25467	-1
0.25833	-1
0.26200	-1
0.26567	-1
0.26933	-1
0.27300	-1
0.27667	-1
0.28033	-2
0.28400	-2
0.28767	-2
0.29133	-2
0.29500	-2
0.29867	-2
0.30233	-2
0.30600	-2
0.30967	-2
0.31333	-2
0.31700	-2
0.32067	-2
0.32433	-2
0.32800	-2
0.33167	-2
0.33533	-2
0.33900	-2
0.34267	-1
0.34633	-1
0.35000	-1
0.35367	-0
0.35733	0
0.36100	0
0.36467	1
0.36833	1
0.37200	1
0.37567	2
0.37933	2
0.38300	2
0.38667	2
0.39033	2
0.39400	3
0.39767	3
0.40133	3
0.40500	3
0.40867	3
0.41233	4
0.41600	3
0.41967	3
0.42333	3
0.42700	2
0.43067	2
0.43433	1
0.43800	1
0.44167	0
0.44533	0
0.44900	-0
0.45267	-1
0.45633	-1
0.46000	-1
0.46367	-1
0.46733	-2
0.47100	-2
0.47467	-2
0.47833	-2
0.48200	-3
0.48567	-3
0.48933	-3
0.49300	-3
0.49667	-3
0.50033	-3
0.50400	-2
0.50767	-2
0.51133	-2
0.51500	-2
0.51867	-2
0.52233	-2
0.52600	-2
0.52967	-2
0.53333	-2
0.53700	-2
0.54067	-2
0.54433	-2
0.54800	-2
0.55167	-2
0.55533	-2
0.55900	-2
0.56267	-2
0.56633	-2
0.57000	-2
0.57367	-2
0.57733	-2
0.58100	-2
0.58467	-2
0.58833	-2
0.59200	-2
0.59567	-2
0.59933	-2
0.60300	-2
0.60667	-2
0.61033	-2
0.61400	-2
0.61767	-2
0.62133	-2
0.62500	-2
0.62867	-2
0.63233	-2
0.63600	-1
0.63967	-1
0.64333	-1
0.64700	-1
0.65067	-1
0.65433	-1
0.65800	-1
0.66167	-1
0.66533	-1
0.66900	-1
0.67267	-1
0.67633	-0
0.68000	-0
0.68367	-1
0.68733	-1
0.69100	-1
0.69467	-1
0.69833	-1
0.70200	-1
0.70567	-1
0.70933	-1
0.71300	-1
0.71667	-1
0.72033	-1
0.72400	-1
0.72767	-1
0.73133	-2
0.73500	-2
0.73867	-2
0.74233	-2
0.74600	-2
0.74967	-2
0.75333	-3
0.75700	-3
0.76067	-3
0.76433	-3
0.76800	-3
0.77167	-4
0.77533	-4
0.77900	-4
0.78267	-4
0.78633	-4
0.79000	-4
0.79367	-4
0.79733	-4
0.80100	-4
0.80467	-4
0.80833	-4
0.81200	-4
0.81567	-4
0.81933	-4
0.82300	-4
0.82667	-4
0.83033	-4
0.83400	-4
0.83767	-4
0.84133	-4
0.84500	-4
0.84867	-4
0.85233	-3
0.85600	-3
0.85967	-3
0.86333	-3
0.86700	-3
0.87067	-3
0.87433	-3
0.87800	-3
0.88167	-3
0.88533	-3
0.88900	-3
0.89267	-3
0.89633	-3
0.90000	-4
0.90367	-4
0.90733	-4
0.91100	-4
0.91467	-4
0.91833	-4
0.92200	-4
0.92567	-3
0.92933	-3
0.93300	-3
0.93667	-3
0.94033	-3
0.94400	-3
0.94767	-3
0.95133	-3
0.95500	-3
0.95867	-3
0.96233	-3
0.96600	-3
0.96967	-3
0.97333	-3
0.97700	-3
0.98067	-3
0.98433	-3
0.98800	-3
0.99167	-3
0.99533	-3
0.99900	-3
1.00267	-3
1.00633	-3
1.01000	-3
1.01367	-3
1.01733	-3
1.02100	-3
1.02467	-3
1.02833	-3
1.03200	-3
1.03567	-3
1.03933	-3
1.04300	-3
1.04667	-3
1.05033	-3
1.05400	-3
1.05767	-3
1.06133	-3
1.06500	-3
1.06867	-3
1.07233	-3
1.07600	-3
1.07967	-3
1.08333	-3
1.08700	-3
1.09067	-3
1.09433	-3
1.09800	-4
1.10167	-4
1.10533	-4
1.10900	-4
1.11267	-4
1.11633	-4
1.12000	-4
1.12367	-4
1.12733	-4
1.13100	-4
1.13467	-3
1.13833	-3
1.14200	-3
1.14567	-3
1.14933	-3
1.15300	-3
1.15667	-4
1.16033	-4
1.16400	-4
1.16767	-4
1.17133	-4
1.17500	-4
1.17867	-4
1.18233	-3
1.18600	-3
1.18967	-3
1.19333	-3
1.19700	-3
1.20067	-2
1.20433	-2
1.20800	-2
1.21167	-2
1.21533	-2
1.21900	-2
1.22267	-2
1.22633	-2
1.23000	-3
1.23367	-3
1.23733	-2
1.24100	-2
1.24467	-2
1.24833	-2
1.25200	-3
1.25567	-3
1.25933	-3
1.26300	-3
1.26667	-4
1.27033	-4
1.27400	-4
1.27767	-4
1.28133	-5
1.28500	-5
1.28867	-5
1.29233	-5
1.29600	-6
1.29967	-6
1.30333	-6
1.30700	-7
1.31067	-7
1.31433	-7
1.31800	-8
1.32167	-8
1.32533	-8
1.32900	-8
1.33267	-8
1.33633	-8
1.34000	-7
1.34367	-7
1.34733	-6
1.35100	-6
1.35467	-6
1.35833	-5
1.36200	-5
1.36567	-5
1.36933	-4
1.37300	-4
1.37667	-4
1.38033	-4
1.38400	-3
1.38767	-3
1.39133	-3
1.39500	-3
1.39867	-3
1.40233	-3
1.40600	-3
1.40967	-3
1.41333	-3
1.41700	-3
1.42067	-3
1.42433	-3
1.42800	-3
1.43167	-3
1.43533	-4
1.43900	-4
1.44267	-3
1.44633	-3
1.45000	-3
1.45367	-3
1.45733	-3
1.46100	-3
1.46467	-4
1.46833	-4
1.47200	-4
1.47567	-4
1.47933	-4
1.48300	-4
1.48667	-4
1.49033	-4
1.49400	-4
1.49767	-4
1.50133	-4
1.50500	-3
1.50867	-3
1.51233	-3
1.51600	-3
1.51967	-2
1.52333	-2
1.52700	-2
1.53067	-2
1.53433	-2
1.53800	-3
1.54167	-3
1.54533	-3
1.54900	-3
1.55267	-4
1.55633	-4
1.56000	-4
1.56367	-4
1.56733	-4
1.57100	-4
1.57467	-4
1.57833	-4
1.58200	-4
1.58567	-4
1.58933	-4
1.59300	-5
1.59667	-5
1.60033	-6
1.60400	-8
1.60767	-9
1.61133	-11
1.61500	-13
1.61867	-16
1.62233	-18
1.62600	-21
1.62967	-24
1.63333	-27
1.63700	-31
1.64067	-34
1.64433	-38
1.64800	-41
1.65167	-45
1.65533	-48
1.65900	-52
1.66267	-56
1.66633	-60
1.67000	-64
1.67367	-69
1.67733	-73
1.68100	-78
1.68467	-83
1.68833	-87
1.69200	-92
1.69567	-95
1.69933	-98
1.70300	-101
1.70667	-103
1.71033	-105
1.71400	-107
1.71767	-109
1.72133	-110
1.72500	-111
1.72867	-113
1.73233	-114
1.73600	-115
1.73967	-116
1.74333	-117
1.74700	-117
1.75067	-118
1.75433	-118
1.75800	-118
1.76167	-118
1.76533	-118
1.76900	-117
1.77267	-118
1.77633	-118
1.78000	-119
1.78367	-119
1.78733	-120
1.79100	-121
1.79467	-122
1.79833	-123
1.80200	-124
1.80567	-124
1.80933	-124
1.81300	-124
1.81667	-123
1.82033	-123
1.82400	-122
1.82767	-123
1.83133	-123
1.83500	-123
1.83867	-123
1.84233	-124
1.84600	-124
1.84967	-124
1.85333	-124
1.85700	-125
1.86067	-125
1.86433	-125
1.86800	-125
1.87167	-124
1.87533	-124
1.87900	-124
1.88267	-124
1.88633	-124
1.89000	-123
1.89367	-123
1.89733	-123
1.90100	-122
1.90467	-122
1.90833	-122
1.91200	-122
1.91567	-121
1.91933	-121
1.92300	-122
1.92667	-122
1.93033	-122
1.93400	-122
1.93767	-122
1.94133	-121
1.94500	-121
1.94867	-120
1.95233	-120
1.95600	-120
1.95967	-119
1.96333	-119
1.96700	-119
1.97067	-118
1.97433	-118
1.97800	-118
1.98167	-117
1.98533	-117
1.98900	-117
1.99267	-117
1.99633	-116
2.00000	-116
2.00367	-116
2.00733	-115
2.01100	-115
2.01467	-114
2.01833	-114
2.02200	-114
2.02567	-114
2.02933	-114
2.03300	-114
2.03667	-115
2.04033	-115
2.04400	-114
2.04767	-114
2.05133	-113
2.05500	-113
2.05867	-112
2.06233	-112
2.06600	-111
2.06967	-110
2.07333	-109
2.07700	-108
2.08067	-108
2.08433	-108
2.08800	-107
2.09167	-107
2.09533	-107
2.09900	-107
2.10267	-106
2.10633	-106
2.11000	-105
2.11367	-105
2.11733	-105
2.12100	-105
2.12467	-105
2.12833	-105
2.13200	-105
2.13567	-105
2.13933	-105
2.14300	-105
2.14667	-105
2.15033	-105
2.15400	-105
2.15767	-105
2.16133	-105
2.16500	-105
2.16867	-105
2.17233	-105
2.17600	-104
2.17967	-104
2.18333	-103
2.18700	-102
2.19067	-102
2.19433	-101
2.19800	-101
2.20167	-101
2.20533	-101
2.20900	-101
2.21267	-100
2.21633	-100
2.22000	-99
2.22367	-98
2.22733	-97
2.23100	-96
2.23467	-96
2.23833	-95
2.24200	-95
2.24567	-94
2.24933	-94
2.25300	-94
2.25667	-94
2.26033	-94
2.26400	-94
2.26767	-94
2.27133	-94
2.27500	-94
2.27867	-94
2.28233	-94
2.28600	-94
2.28967	-94
2.29333	-94
2.29700	-94
2.30067	-93
2.30433	-93
2.30800	-92
2.31167	-91
2.31533	-90
2.31900	-90
2.32267	-89
2.32633	-89
2.33000	-88
2.33367	-88
2.33733	-88
2.34100	-88
2.34467	-88
2.34833	-88
2.35200	-88
2.35567	-88
2.35933	-87
2.36300	-87
2.36667	-85
2.37033	-83
2.37400	-81
2.37767	-78
2.38133	-74
2.38500	-70
2.38867	-66
2.39233	-61
2.39600	-56
2.39967	-51
2.40333	-47
2.40700	-43
2.41067	-39
2.41433	-35
2.41800	-32
2.42167	-29
2.42533	-27
2.42900	-25
2.43267	-22
2.43633	-19
2.44000	-17
2.44367	-15
2.44733	-13
2.45100	-12
2.45467	-11
2.45833	-10
2.46200	-8
2.46567	-7
2.46933	-6
2.47300	-5
2.47667	-4
2.48033	-3
2.48400	-1
2.48767	0
2.49133	2
2.49500	3
2.49867	4
2.50233	5
2.50600	5
2.50967	6
2.51333	7
2.51700	7
2.52067	8
2.52433	8
2.52800	8
2.53167	8
2.53533	9
2.53900	9
2.54267	10
2.54633	10
2.55000	10
2.55367	11
2.55733	12
2.56100	12
2.56467	12
2.56833	12
2.57200	13
2.57567	13
2.57933	13
2.58300	13
2.58667	13
2.59033	13
2.59400	13
2.59767	13
2.60133	13
2.60500	13
2.60867	14
2.61233	14
2.61600	15
2.61967	15
2.62333	16
2.62700	16
2.63067	17
2.63433	17
2.63800	17
2.64167	17
2.64533	17
2.64900	17
2.65267	16
2.65633	16
2.66000	16
2.66367	16
2.66733	16
2.67100	16
2.67467	17
2.67833	17
2.68200	18
2.68567	19
2.68933	19
2.69300	20
2.69667	20
2.70033	20
2.70400	20
2.70767	19
2.71133	19
2.71500	18
2.71867	18
2.72233	18
2.72600	18
2.72967	18
2.73333	18
2.73700	18
2.74067	19
2.74433	19
2.74800	20
2.75167	21
2.75533	21
2.75900	21
2.76267	22
2.76633	22
2.77000	22
2.77367	23
2.77733	23
2.78100	23
2.78467	23
2.78833	23
2.79200	23
2.79567	23
2.79933	23
2.80300	23
2.80667	23
2.81033	24
2.81400	23
2.81767	23
2.82133	23
2.82500	23
2.82867	23
2.83233	23
2.83600	23
2.83967	23
2.84333	22
2.84700	20
2.85067	18
2.85433	13
2.85800	6
2.86167	-4
2.86533	-18
2.86900	-37
2.87267	-60
2.87633	-89
2.88000	-122
2.88367	-161
2.88733	-204
2.89100	-253
2.89467	-306
2.89833	-363
2.90200	-424
2.90567	-489
2.90933	-557
2.91300	-628
2.91667	-701
2.92033	-777
2.92400	-855
2.92767	-935
2.93133	-1017
2.93500	-1101
2.93867	-1186
2.94233	-1273
2.94600	-1360
2.94967	-1440
2.95333	-1500
2.95700	-1529
2.96067	-1523
2.96433	-1484
2.96800	-1416
2.97167	-1327
2.97533	-1224
2.97900	-1115
2.98267	-1005
2.98633	-897
2.99000	-795
2.99367	-699
2.99733	-612
3.00100	-533
3.00467	-462
3.00833	-400
3.01200	-344
3.01567	-296
3.01933	-254
3.02300	-217
3.02667	-186
3.03033	-159
3.03400	-135
3.03767	-115
3.04133	-98
3.04500	-83
3.04867	-70
3.05233	-59
3.05600	-50
3.05967	-42
3.06333	-35
3.06700	-29
3.07067	-24
3.07433	-20
3.07800	-16
3.08167	-13
3.08533	-10
3.08900	-8
3.09267	-6
3.09633	-4
3.10000	-2
3.10367	-1
3.10733	0
3.11100	2
3.11467	3
3.11833	3
3.12200	4
3.12567	5
3.12933	5
3.13300	6
3.13667	7
3.14033	7
3.14400	8
3.14767	9
3.15133	9
3.15500	10
3.15867	11
3.16233	11
3.16600	12
3.16967	12
3.17333	12
3.17700	13
3.18067	13
3.18433	13
3.18800	13
3.19167	13
3.19533	12
3.19900	12
3.20267	12
3.20633	12
3.21000	13
3.21367	13
3.21733	13
3.22100	14
3.22467	14
3.22833	14
3.23200	15
3.23567	15
3.23933	16
3.24300	16
3.24667	16
3.25033	17
3.25400	17
3.25767	18
3.26133	18
3.26500	19
3.26867	19
3.27233	20
3.27600	20
3.27967	20
3.28333	20
3.28700	20
3.29067	20
3.29433	21
3.29800	21
3.30167	21
3.30533	21
3.30900	21
3.31267	22
3.31633	22
3.32000	22
3.32367	22
3.32733	22
3.33100	21
3.33467	21
3.33833	21
3.34200	21
3.34567	21
3.34933	21
3.35300	21
3.35667	21
3.36033	21
3.36400	21
3.36767	21
3.37133	22
3.37500	22
3.37867	22
3.38233	22
3.38600	22
3.38967	22
3.39333	22
3.39700	22
3.40067	22
3.40433	22
3.40800	23
3.41167	23
3.41533	23
3.41900	23
3.42267	23
3.42633	23
3.43000	23
3.43367	23
3.43733	23
3.44100	23
3.44467	23
3.44833	22
3.45200	22
3.45567	22
3.45933	22
3.46300	22
3.46667	22
3.47033	22
3.47400	22
3.47767	22
3.48133	22
3.48500	22
3.48867	22
3.49233	21
3.49600	21
3.49967	21
3.50333	21
3.50700	22
3.51067	22
3.51433	22
3.51800	22
3.52167	22
3.52533	22
3.52900	22
3.53267	22
3.53633	22
3.54000	22
3.54367	22
3.54733	22
3.55100	21
3.55467	21
3.55833	21
3.56200	21
3.56567	21
3.56933	21
3.57300	21
3.57667	21
3.58033	21
3.58400	21
3.58767	21
3.59133	21
3.59500	21
3.59867	21
3.60233	21
3.60600	20
3.60967	20
3.61333	20
3.61700	20
3.62067	20
3.62433	20
3.62800	20
3.63167	20
3.63533	20
3.63900	21
3.64267	21
3.64633	20
3.65000	20
3.65367	20
3.65733	20
3.66100	20
3.66467	20
3.66833	20
3.67200	21
3.67567	21
3.67933	21
3.68300	20
3.68667	20
3.69033	20
3.69400	20
3.69767	20
3.70133	20
3.70500	21
3.70867	21
3.71233	21
3.71600	21
3.71967	21
3.72333	21
3.72700	22
3.73067	21
3.73433	21
3.73800	21
3.74167	21
3.74533	21
3.74900	21
3.75267	21
3.75633	22
3.76000	22
3.76367	22
3.76733	22
3.77100	22
3.77467	22
3.77833	21
3.78200	21
3.78567	21
3.78933	21
3.79300	21
3.79667	21
3.80033	21
3.80400	21
3.80767	22
3.81133	22
3.81500	22
3.81867	22
3.82233	22
3.82600	22
3.82967	22
3.83333	22
3.83700	22
3.84067	22
3.84433	22
3.84800	22
3.85167	22
3.85533	22
3.85900	22
3.86267	21
3.86633	21
3.87000	21
3.87367	21
3.87733	21
3.88100	21
3.88467	21
3.88833	21
3.89200	21
3.89567	21
3.89933	21
3.90300	21
3.90667	21
3.91033	21
3.91400	21
3.91767	21
3.92133	21
3.92500	21
3.92867	21
3.93233	21
3.93600	21
3.93967	20
3.94333	20
3.94700	20
3.95067	20
3.95433	19
3.95800	19
3.96167	19
3.96533	19
3.96900	19
3.97267	19
3.97633	19
3.98000	19
3.98367	20
3.98733	20
3.99100	20
3.99467	20
3.99833	20

[Chromatogram (Ch3)]
Interval(msec)	220
# of Points	1091
Start Time(min)	0.002
End Time(min)	3.998
R.Time (min)	Intensity
0.00167	1
0.00533	4
0.00900	6
0.01267	7
0.01633	8
0.02000	6
0.02367	5
0.02733	4
0.03100	5
0.03467	6
0.03833	5
0.04200	3
0.04567	3
0.04933	3
0.05300	4
0.05667	6
0.06033	6
0.06400	5
0.06767	4
0.07133	5
0.07500	5
0.07867	4
0.08233	2
0.08600	4
0.08967	4
0.09333	2
0.09700	1
0.10067	2
0.10433	4
0.10800	4
0.11167	6
0.11533	7
0.11900	8
0.12267	7
0.12633	7
0.13000	7
0.13367	8
0.13733	9
0.14100	10
0.14467	12
0.14833	11
0.15200	8
0.15567	6
0.15933	7
0.16300	7
0.16667	7
0.17033	9
0.17400	11
0.17767	11
0.18133	10
0.18500	9
0.18867	11
0.19233	15
0.19600	16
0.19967	17
0.20333	15
0.20700	13
0.21067	12
0.21433	11
0.21800	9
0.22167	7
0.22533	7
0.22900	7
0.23267	8
0.23633	9
0.24000	9
0.24367	9
0.24733	6
0.25100	4
0.25467	2
0.25833	1
0.26200	0
0.26567	-1
0.26933	-0
0.27300	-0
0.27667	-1
0.28033	-0
0.28400	1
0.28767	3
0.29133	5
0.29500	4
0.29867	4
0.30233	5
0.30600	7
0.30967	8
0.31333	8
0.31700	9
0.32067	8
0.32433	6
0.32800	5
0.33167	7
0.33533	9
0.33900	9
0.34267	9
0.34633	10
0.35000	11
0.35367	12
0.35733	12
0.36100	11
0.36467	9
0.36833	8
0.37200	7
0.37567	7
0.37933	5
0.38300	5
0.38667	5
0.39033	5
0.39400	6
0.39767	6
0.40133	6
0.40500	9
0.40867	12
0.41233	9
0.41600	7
0.41967	8
0.42333	9
0.42700	11
0.43067	11
0.43433	10
0.43800	10
0.44167	9
0.44533	9
0.44900	9
0.45267	10
0.45633	10
0.46000	9
0.46367	9
0.46733	9
0.47100	9
0.47467	11
0.47833	12
0.48200	15
0.48567	14
0.48933	15
0.49300	13
0.49667	10
0.50033	10
0.50400	10
0.50767	10
0.51133	8
0.51500	6
0.51867	7
0.52233	6
0.52600	7
0.52967	7
0.53333	6
0.53700	6
0.54067	6
0.54433	6
0.54800	3
0.55167	4
0.55533	8
0.55900	12
0.56267	12
0.56633	12
0.57000	13
0.57367	14
0.57733	13
0.58100	15
0.58467	17
0.58833	15
0.59200	14
0.59567	12
0.59933	11
0.60300	12
0.60667	13
0.61033	12
0.61400	11
0.61767	11
0.62133	13
0.62500	13
0.62867	12
0.63233	10
0.63600	10
0.63967	10
0.64333	10
0.64700	7
0.65067	5
0.65433	6
0.65800	6
0.66167	5
0.66533	5
0.66900	5
0.67267	5
0.67633	6
0.68000	4
0.68367	4
0.68733	5
0.69100	6
0.69467	9
0.69833	11
0.70200	10
0.70567	10
0.70933	7
0.71300	5
0.71667	2
0.72033	3
0.72400	7
0.72767	8
0.73133	10
0.73500	11
0.73867	10
0.74233	9
0.74600	5
0.74967	3
0.75333	2
0.75700	3
0.76067	7
0.76433	10
0.76800	11
0.77167	10
0.77533	8
0.77900	6
0.78267	5
0.78633	3
0.79000	1
0.79367	0
0.79733	2
0.80100	5
0.80467	7
0.80833	9
0.81200	10
0.81567	9
0.81933	6
0.82300	6
0.82667	7
0.83033	4
0.83400	3
0.83767	4
0.84133	5
0.84500	6
0.84867	5
0.85233	4
0.85600	4
0.85967	3
0.86333	3
0.86700	3
0.87067	5
0.87433	8
0.87800	10
0.88167	9
0.88533	6
0.88900	3
0.89267	1
0.89633	2
0.90000	3
0.90367	4
0.90733	6
0.91100	9
0.91467	11
0.91833	14
0.92200	14
0.92567	16
0.92933	14
0.93300	11
0.93667	10
0.94033	9
0.94400	8
0.94767	6
0.95133	5
0.95500	5
0.95867	8
0.96233	12
0.96600	13
0.96967	13
0.97333	11
0.97700	9
0.98067	5
0.98433	2
0.98800	0
0.99167	2
0.99533	6
0.99900	6
1.00267	5
1.00633	4
1.01000	3
1.01367	2
1.01733	3
1.02100	3
1.02467	4
1.02833	7
1.03200	9
1.03567	8
1.03933	7
1.04300	6
1.04667	4
1.05033	3
1.05400	3
1.05767	0
1.06133	-2
1.06500	0
1.06867	2
1.07233	3
1.07600	5
1.07967	6
1.08333	4
1.08700	5
1.09067	6
1.09433	4
1.09800	3
1.10167	4
1.10533	4
1.10900	2
1.11267	1
1.11633	2
1.12000	0
1.12367	-1
1.12733	-1
1.13100	-1
1.13467	1
1.13833	4
1.14200	5
1.14567	5
1.14933	3
1.15300	0
1.15667	1
1.16033	2
1.16400	2
1.16767	2
1.17133	1
1.17500	-2
1.17867	-4
1.18233	-2
1.18600	1
1.18967	3
1.19333	3
1.19700	1
1.20067	-2
1.20433	-5
1.20800	-5
1.21167	-3
1.21533	-1
1.21900	-0
1.22267	-0
1.22633	0
1.23000	2
1.23367	2
1.23733	2
1.24100	3
1.24467	1
1.24833	-2
1.25200	-3
1.25567	-4
1.25933	-4
1.26300	-4
1.26667	-4
1.27033	-4
1.27400	-1
1.27767	1
1.28133	0
1.28500	-2
1.28867	-2
1.29233	2
1.29600	3
1.29967	3
1.30333	-0
1.30700	-3
1.31067	-3
1.31433	-1
1.31800	0
1.32167	1
1.32533	2
1.32900	2
1.33267	3
1.33633	3
1.34000	2
1.34367	1
1.34733	1
1.35100	-0
1.35467	-2
1.35833	-0
1.36200	1
1.36567	1
1.36933	0
1.37300	0
1.37667	2
1.38033	2
1.38400	2
1.38767	2
1.39133	3
1.39500	4
1.39867	3
1.40233	0
1.40600	-3
1.40967	-6
1.41333	-6
1.41700	-8
1.42067	-6
1.42433	-5
1.42800	-3
1.43167	-1
1.43533	-0
1.43900	1
1.44267	-0
1.44633	-3
1.45000	-4
1.45367	-4
1.45733	-5
1.46100	-6
1.46467	-7
1.46833	-9
1.47200	-9
1.47567	-9
1.47933	-9
1.48300	-9
1.48667	-8
1.49033	-5
1.49400	-3
1.49767	-1
1.50133	-2
1.50500	-4
1.50867	-4
1.51233	-4
1.51600	-2
1.51967	-2
1.52333	-2
1.52700	-1
1.53067	1
1.53433	2
1.53800	2
1.54167	0
1.54533	-2
1.54900	-1
1.55267	-1
1.55633	-0
1.56000	-0
1.56367	1
1.56733	-2
1.57100	-4
1.57467	-4
1.57833	-2
1.58200	-0
1.58567	2
1.58933	5
1.59300	7
1.59667	7
1.60033	7
1.60400	6
1.60767	4
1.61133	1
1.61500	0
1.61867	1
1.62233	3
1.62600	3
1.62967	1
1.63333	1
1.63700	2
1.64067	1
1.64433	0
1.64800	-1
1.65167	0
1.65533	2
1.65900	2
1.66267	2
1.66633	4
1.67000	5
1.67367	6
1.67733	8
1.68100	7
1.68467	5
1.68833	4
1.69200	5
1.69567	4
1.69933	3
1.70300	4
1.70667	5
1.71033	5
1.71400	6
1.71767	6
1.72133	7
1.72500	8
1.72867	8
1.73233	9
1.73600	10
1.73967	8
1.74333	9
1.74700	9
1.75067	11
1.75433	12
1.75800	13
1.76167	14
1.76533	14
1.76900	15
1.77267	17
1.77633	20
1.78000	22
1.78367	21
1.78733	23
1.79100	26
1.79467	28
1.79833	27
1.80200	27
1.80567	27
1.80933	30
1.81300	31
1.81667	30
1.82033	28
1.82400	27
1.82767	26
1.83133	26
1.83500	28
1.83867	28
1.84233	28
1.84600	26
1.84967	24
1.85333	25
1.85700	26
1.86067	25
1.86433	23
1.86800	25
1.87167	27
1.87533	29
1.87900	32
1.88267	33
1.88633	33
1.89000	33
1.89367	32
1.89733	33
1.90100	37
1.90467	41
1.90833	44
1.91200	45
1.91567	45
1.91933	45
1.92300	45
1.92667	44
1.93033	42
1.93400	43
1.93767	46
1.94133	46
1.94500	47
1.94867	50
1.95233	52
1.95600	50
1.95967	48
1.96333	46
1.96700	49
1.97067	53
1.97433	54
1.97800	57
1.98167	60
1.98533	62
1.98900	61
1.99267	59
1.99633	57
2.00000	57
2.00367	58
2.00733	60
2.01100	62
2.01467	61
2.01833	62
2.02200	64
2.02567	68
2.02933	70
2.03300	69
2.03667	68
2.04033	68
2.04400	68
2.04767	67
2.05133	68
2.05500	70
2.05867	72
2.06233	73
2.06600	74
2.06967	75
2.07333	76
2.07700	77
2.08067	78
2.08433	80
2.08800	82
2.09167	84
2.09533	87
2.09900	89
2.10267	89
2.10633	90
2.11000	91
2.11367	89
2.11733	89
2.12100	92
2.12467	95
2.12833	97
2.13200	96
2.13567	94
2.13933	94
2.14300	95
2.14667	96
2.15033	97
2.15400	97
2.15767	99
2.16133	101
2.16500	103
2.16867	105
2.17233	108
2.17600	109
2.17967	108
2.18333	107
2.18700	107
2.19067	107
2.19433	107
2.19800	109
2.20167	110
2.20533	112
2.20900	113
2.21267	113
2.21633	112
2.22000	114
2.22367	117
2.22733	119
2.23100	120
2.23467	117
2.23833	117
2.24200	119
2.24567	120
2.24933	120
2.25300	120
2.25667	123
2.26033	127
2.26400	128
2.26767	127
2.27133	129
2.27500	131
2.27867	132
2.28233	135
2.28600	136
2.28967	137
2.29333	137
2.29700	140
2.30067	140
2.30433	140
2.30800	140
2.31167	142
2.31533	144
2.31900	145
2.32267	145
2.32633	145
2.33000	145
2.33367	147
2.33733	149
2.34100	153
2.34467	155
2.34833	157
2.35200	159
2.35567	157
2.35933	156
2.36300	155
2.36667	156
2.37033	158
2.37400	159
2.37767	159
2.38133	159
2.38500	162
2.38867	166
2.39233	167
2.39600	167
2.39967	167
2.40333	164
2.40700	159
2.41067	155
2.41433	158
2.41800	163
2.42167	168
2.42533	171
2.42900	172
2.43267	172
2.43633	171
2.44000	170
2.44367	176
2.44733	192
2.45100	214
2.45467	232
2.45833	240
2.46200	242
2.46567	239
2.46933	238
2.47300	237
2.47667	233
2.48033	227
2.48400	220
2.48767	211
2.49133	204
2.49500	199
2.49867	195
2.50233	192
2.50600	188
2.50967	185
2.51333	183
2.51700	183
2.52067	182
2.52433	181
2.52800	177
2.53167	173
2.53533	169
2.53900	165
2.54267	162
2.54633	159
2.55000	156
2.55367	156
2.55733	155
2.56100	152
2.56467	147
2.56833	141
2.57200	140
2.57567	142
2.57933	144
2.58300	146
2.58667	140
2.59033	132
2.59400	132
2.59767	143
2.60133	160
2.60500	180
2.60867	199
2.61233	216
2.61600	228
2.61967	236
2.62333	240
2.62700	242
2.63067	240
2.63433	241
2.63800	246
2.64167	252
2.64533	259
2.64900	270
2.65267	286
2.65633	305
2.66000	327
2.66367	352
2.66733	376
2.67100	398
2.67467	421
2.67833	444
2.68200	467
2.68567	488
2.68933	509
2.69300	528
2.69667	543
2.70033	557
2.70400	570
2.70767	582
2.71133	594
2.71500	606
2.71867	618
2.72233	627
2.72600	634
2.72967	640
2.73333	645
2.73700	649
2.74067	650
2.74433	651
2.74800	656
2.75167	659
2.75533	660
2.75900	661
2.76267	664
2.76633	666
2.77000	666
2.77367	668
2.77733	670
2.78100	670
2.78467	670
2.78833	670
2.79200	668
2.79567	662
2.79933	659
2.80300	657
2.80667	657
2.81033	656
2.81400	654
2.81767	654
2.82133	658
2.82500	676
2.82867	719
2.83233	818
2.83600	1025
2.83967	1406
2.84333	2030
2.84700	2949
2.85067	4188
2.85433	5726
2.85800	7496
2.86167	9385
2.86533	11256
2.86900	12971
2.87267	14392
2.87633	15417
2.88000	16002
2.88367	16144
2.88733	15891
2.89100	15314
2.89467	14495
2.89833	13514
2.90200	12446
2.90567	11352
2.90933	10275
2.91300	9246
2.91667	8284
2.92033	7395
2.92400	6583
2.92767	5849
2.93133	5191
2.93500	4609
2.93867	4094
2.94233	3637
2.94600	3237
2.94967	2887
2.95333	2582
2.95700	2315
2.96067	2083
2.96433	1884
2.96800	1711
2.97167	1559
2.97533	1424
2.97900	1307
2.98267	1208
2.98633	1123
2.99000	1052
2.99367	992
2.99733	939
3.00100	893
3.00467	852
3.00833	812
3.01200	778
3.01567	750
3.01933	727
3.02300	707
3.02667	690
3.03033	676
3.03400	665
3.03767	655
3.04133	645
3.04500	636
3.04867	628
3.05233	622
3.05600	614
3.05967	605
3.06333	599
3.06700	595
3.07067	591
3.07433	588
3.07800	587
3.08167	585
3.08533	581
3.08900	579
3.09267	574
3.09633	571
3.10000	568
3.10367	566
3.10733	565
3.11100	563
3.11467	560
3.11833	556
3.12200	552
3.12567	550
3.12933	549
3.13300	548
3.13667	546
3.14033	543
3.14400	542
3.14767	543
3.15133	542
3.15500	539
3.15867	536
3.16233	533
3.16600	531
3.16967	532
3.17333	531
3.17700	527
3.18067	524
3.18433	522
3.18800	521
3.19167	520
3.19533	519
3.19900	519
3.20267	517
3.20633	514
3.21000	511
3.21367	508
3.21733	506
3.22100	503
3.22467	501
3.22833	501
3.23200	500
3.23567	499
3.23933	498
3.24300	495
3.24667	494
3.25033	494
3.25400	492
3.25767	490
3.26133	487
3.26500	483
3.26867	480
3.27233	479
3.27600	476
3.27967	472
3.28333	468
3.28700	466
3.29067	463
3.29433	457
3.29800	453
3.30167	453
3.30533	451
3.30900	447
3.31267	446
3.31633	443
3.32000	440
3.32367	438
3.32733	439
3.33100	437
3.33467	431
3.33833	423
3.34200	418
3.34567	416
3.34933	414
3.35300	413
3.35667	413
3.36033	413
3.36400	412
3.36767	410
3.37133	409
3.37500	408
3.37867	406
3.38233	404
3.38600	400
3.38967	397
3.39333	397
3.39700	397
3.40067	394
3.40433	389
3.40800	387
3.41167	387
3.41533	386
3.41900	385
3.42267	383
3.42633	380
3.43000	379
3.43367	379
3.43733	376
3.44100	374
3.44467	373
3.44833	372
3.45200	371
3.45567	371
3.45933	370
3.46300	369
3.46667	368
3.47033	365
3.47400	363
3.47767	360
3.48133	358
3.48500	355
3.48867	352
3.49233	350
3.49600	350
3.49967	349
3.50333	349
3.50700	348
3.51067	349
3.51433	346
3.51800	344
3.52167	343
3.52533	340
3.52900	335
3.53267	330
3.53633	325
3.54000	320
3.54367	318
3.54733	317
3.55100	319
3.55467	320
3.55833	319
3.56200	316
3.56567	310
3.56933	307
3.57300	305
3.57667	304
3.58033	304
3.58400	303
3.58767	302
3.59133	303
3.59500	304
3.59867	303
3.60233	302
3.60600	297
3.60967	293
3.61333	291
3.61700	291
3.62067	292
3.62433	294
3.62800	296
3.63167	293
3.63533	290
3.63900	288
3.64267	289
3.64633	289
3.65000	291
3.65367	291
3.65733	289
3.66100	288
3.66467	286
3.66833	285
3.67200	283
3.67567	281
3.67933	279
3.68300	275
3.68667	273
3.69033	272
3.69400	270
3.69767	267
3.70133	264
3.70500	264
3.70867	265
3.71233	266
3.71600	266
3.71967	264
3.72333	262
3.72700	261
3.73067	260
3.73433	257
3.73800	256
3.74167	255
3.74533	254
3.74900	253
3.75267	251
3.75633	250
3.76000	248
3.76367	245
3.76733	241
3.77100	240
3.77467	238
3.77833	237
3.78200	239
3.78567	238
3.78933	234
3.79300	231
3.79667	231
3.80033	232
3.80400	231
3.80767	232
3.81133	231
3.81500	231
3.81867	230
3.82233	230
3.82600	229
3.82967	227
3.83333	225
3.83700	224
3.84067	224
3.84433	224
3.84800	225
3.85167	224
3.85533	224
3.85900	223
3.86267	222
3.86633	221
3.87000	220
3.87367	218
3.87733	214
3.88100	213
3.88467	214
3.88833	217
3.89200	217
3.89567	214
3.89933	211
3.90300	208
3.90667	205
3.91033	203
3.91400	202
3.91767	202
3.92133	201
3.92500	201
3.92867	199
3.93233	198
3.93600	197
3.93967	197
3.94333	196
3.94700	196
3.95067	197
3.95433	200
3.95800	201
3.96167	200
3.96533	198
3.96900	195
3.97267	193
3.97633	191
3.98000	189
3.98367	188
3.98733	187
3.99100	186
3.99467	185
3.99833	187

[Status Trace (Column Oven Temperature)]
Interval(msec)	1000
# of Points	240
Start Time(min)	0.008
End Time(min)	3.991
Intensity Units	
Intensity Multiplier	1
R.Time (min)	Intensity
0.00762	34.99
0.02428	35.03
0.04095	35.05
0.05762	35.06
0.07428	35.07
0.09095	35.08
0.10762	35.07
0.12428	35.07
0.14095	35.05
0.15762	35.04
0.17428	35.04
0.19095	35.04
0.20762	35.04
0.22428	35.04
0.24095	35.03
0.25762	35.02
0.27428	35.03
0.29095	35.04
0.30762	35.04
0.32428	35.04
0.34095	35.02
0.35762	35.01
0.37428	35.00
0.39095	34.98
0.40762	34.96
0.42428	34.96
0.44095	34.96
0.45762	34.96
0.47428	34.97
0.49095	34.97
0.50762	34.98
0.52428	34.98
0.54095	34.99
0.55762	34.98
0.57428	34.98
0.59095	34.98
0.60762	34.98
0.62428	34.98
0.64095	34.98
0.65762	34.98
0.67428	34.97
0.69095	34.96
0.70762	34.96
0.72428	34.96
0.74095	34.96
0.75762	34.97
0.77428	34.97
0.79095	34.97
0.80762	34.97
0.82428	34.98
0.84095	34.98
0.85762	34.98
0.87428	34.97
0.89095	34.98
0.90762	34.99
0.92428	34.98
0.94095	34.98
0.95762	34.98
0.97428	34.98
0.99095	34.98
1.00762	34.98
1.02428	34.97
1.04095	34.98
1.05762	34.98
1.07428	34.98
1.09095	34.98
1.10762	34.98
1.12428	34.99
1.14095	34.99
1.15762	35.00
1.17428	34.99
1.19095	34.98
1.20762	34.97
1.22428	34.97
1.24095	34.97
1.25762	34.97
1.27428	34.98
1.29095	34.99
1.30762	35.00
1.32428	35.02
1.34095	35.02
1.35762	35.01
1.37428	35.00
1.39095	35.00
1.40762	34.99
1.42428	34.99
1.44095	35.00
1.45762	34.99
1.47428	34.98
1.49095	34.98
1.50762	34.98
1.52428	34.97
1.54095	34.98
1.55762	34.98
1.57428	34.98
1.59095	34.99
1.60762	35.05
1.62428	35.18
1.64095	35.37
1.65762	35.61
1.67428	35.94
1.69095	36.31
1.70762	36.65
1.72428	37.00
1.74095	37.34
1.75762	37.66
1.77428	37.98
1.79095	38.32
1.80762	38.66
1.82428	38.98
1.84095	39.31
1.85762	39.66
1.87428	39.99
1.89095	40.31
1.90762	40.64
1.92428	40.99
1.94095	41.31
1.95762	41.64
1.97428	41.96
1.99095	42.28
2.00762	42.60
2.02428	42.92
2.04095	43.25
2.05762	43.57
2.07428	43.89
2.09095	44.22
2.10762	44.53
2.12428	44.85
2.14095	45.18
2.15762	45.52
2.17428	45.85
2.19095	46.17
2.20762	46.51
2.22428	46.84
2.24095	47.15
2.25762	47.48
2.27428	47.82
2.29095	48.17
2.30762	48.49
2.32428	48.81
2.34095	49.14
2.35762	49.44
2.37428	49.59
2.39095	49.63
2.40762	49.62
2.42428	49.66
2.44095	49.66
2.45762	49.68
2.47428	49.70
2.49095	49.70
2.50762	49.71
2.52428	49.71
2.54095	49.73
2.55762	49.76
2.57428	49.77
2.59095	49.79
2.60762	49.82
2.62428	49.82
2.64095	49.84
2.65762	49.86
2.67428	49.85
2.69095	49.84
2.70762	49.86
2.72428	49.88
2.74095	49.87
2.75762	49.86
2.77428	49.86
2.79095	49.86
2.80762	49.86
2.82428	49.87
2.84095	49.87
2.85762	49.89
2.87428	49.90
2.89095	49.91
2.90762	49.93
2.92428	49.95
2.94095	49.96
2.95762	49.98
2.97428	50.00
2.99095	50.02
3.00762	50.03
3.02428	50.03
3.04095	50.04
3.05762	50.04
3.07428	50.05
3.09095	50.06
3.10762	50.07
3.12428	50.08
3.14095	50.07
3.15762	50.07
3.17428	50.08
3.19095	50.09
3.20762	50.11
3.22428	50.11
3.24095	50.11
3.25762	50.10
3.27428	50.09
3.29095	50.08
3.30762	50.06
3.32428	50.06
3.34095	50.06
3.35762	50.06
3.37428	50.05
3.39095	50.04
3.40762	50.03
3.42428	50.03
3.44095	50.03
3.45762	50.03
3.47428	50.03
3.49095	50.03
3.50762	50.03
3.52428	50.02
3.54095	50.02
3.55762	50.03
3.57428	50.03
3.59095	50.04
3.60762	50.04
3.62428	50.05
3.64095	50.05
3.65762	50.05
3.67428	50.06
3.69095	50.06
3.70762	50.06
3.72428	50.06
3.74095	50.06
3.75762	50.06
3.77428	50.06
3.79095	50.06
3.80762	50.05
3.82428	50.05
3.84095	50.05
3.85762	50.05
3.87428	50.05
3.89095	50.05
3.90762	50.06
3.92428	50.06
3.94095	50.06
3.95762	50.06
3.97428	50.08
3.99095	50.08

[Status Trace (Injection Unit Temperature)]
Interval(msec)	1000
# of Points	240
Start Time(min)	0.008
End Time(min)	3.991
Intensity Units	
Intensity Multiplier	1
R.Time (min)	Intensity
0.00762	99.98
0.02428	99.98
0.04095	99.98
0.05762	99.98
0.07428	99.98
0.09095	99.98
0.10762	99.98
0.12428	99.98
0.14095	99.98
0.15762	99.98
0.17428	99.98
0.19095	99.98
0.20762	99.98
0.22428	99.98
0.24095	99.98
0.25762	99.98
0.27428	99.98
0.29095	99.98
0.30762	99.98
0.32428	99.98
0.34095	99.98
0.35762	99.98
0.37428	99.98
0.39095	99.98
0.40762	99.98
0.42428	99.99
0.44095	99.99
0.45762	99.98
0.47428	99.98
0.49095	99.99
0.50762	99.99
0.52428	99.99
0.54095	99.99
0.55762	99.99
0.57428	99.99
0.59095	99.99
0.60762	99.98
0.62428	99.99
0.64095	99.99
0.65762	99.98
0.67428	99.99
0.69095	99.99
0.70762	99.99
0.72428	99.99
0.74095	99.99
0.75762	99.99
0.77428	99.99
0.79095	99.99
0.80762	99.99
0.82428	99.99
0.84095	99.99
0.85762	99.99
0.87428	100.00
0.89095	100.00
0.90762	99.99
0.92428	99.99
0.94095	99.99
0.95762	99.99
0.97428	99.99
0.99095	99.99
1.00762	99.99
1.02428	99.99
1.04095	99.99
1.05762	99.99
1.07428	99.99
1.09095	99.99
1.10762	99.99
1.12428	99.99
1.14095	100.00
1.15762	99.99
1.17428	99.99
1.19095	99.99
1.20762	99.99
1.22428	99.99
1.24095	99.99
1.25762	99.99
1.27428	99.99
1.29095	99.99
1.30762	99.99
1.32428	99.99
1.34095	99.98
1.35762	99.98
1.37428	99.99
1.39095	99.98
1.40762	99.99
1.42428	99.98
1.44095	99.99
1.45762	99.99
1.47428	99.99
1.49095	99.99
1.50762	99.99
1.52428	99.99
1.54095	99.98
1.55762	99.99
1.57428	99.99
1.59095	99.99
1.60762	99.98
1.62428	99.99
1.64095	99.99
1.65762	99.99
1.67428	99.99
1.69095	99.99
1.70762	99.99
1.72428	99.99
1.74095	99.99
1.75762	99.99
1.77428	99.99
1.79095	99.99
1.80762	99.98
1.82428	99.99
1.84095	99.98
1.85762	99.98
1.87428	99.99
1.89095	99.98
1.90762	99.99
1.92428	99.98
1.94095	99.98
1.95762	99.98
1.97428	99.98
1.99095	99.98
2.00762	99.97
2.02428	99.98
2.04095	99.98
2.05762	99.98
2.07428	99.98
2.09095	99.98
2.10762	99.98
2.12428	99.98
2.14095	99.98
2.15762	99.98
2.17428	99.98
2.19095	99.98
2.20762	99.98
2.22428	99.98
2.24095	99.98
2.25762	99.98
2.27428	99.98
2.29095	99.98
2.30762	99.98
2.32428	99.98
2.34095	99.98
2.35762	99.98
2.37428	99.98
2.39095	99.98
2.40762	99.98
2.42428	99.98
2.44095	99.98
2.45762	99.98
2.47428	99.98
2.49095	99.98
2.50762	99.98
2.52428	99.98
2.54095	99.98
2.55762	99.98
2.57428	99.99
2.59095	99.99
2.60762	99.99
2.62428	99.99
2.64095	99.99
2.65762	99.99
2.67428	99.99
2.69095	99.99
2.70762	99.99
2.72428	100.00
2.74095	100.00
2.75762	99.99
2.77428	100.00
2.79095	100.00
2.80762	100.00
2.82428	100.00
2.84095	100.00
2.85762	100.00
2.87428	100.00
2.89095	100.00
2.90762	100.00
2.92428	100.01
2.94095	100.00
2.95762	100.01
2.97428	100.00
2.99095	100.01
3.00762	100.01
3.02428	100.01
3.04095	100.01
3.05762	100.01
3.07428	100.01
3.09095	100.01
3.10762	100.01
3.12428	100.01
3.14095	100.02
3.15762	100.02
3.17428	100.02
3.19095	100.02
3.20762	100.02
3.22428	100.02
3.24095	100.02
3.25762	100.03
3.27428	100.03
3.29095	100.03
3.30762	100.03
3.32428	100.03
3.34095	100.02
3.35762	100.03
3.37428	100.03
3.39095	100.03
3.40762	100.04
3.42428	100.03
3.44095	100.04
3.45762	100.03
3.47428	100.04
3.49095	100.04
3.50762	100.04
3.52428	100.04
3.54095	100.04
3.55762	100.04
3.57428	100.03
3.59095	100.04
3.60762	100.05
3.62428	100.05
3.64095	100.04
3.65762	100.04
3.67428	100.04
3.69095	100.05
3.70762	100.05
3.72428	100.05
3.74095	100.05
3.75762	100.04
3.77428	100.05
3.79095	100.05
3.80762	100.05
3.82428	100.05
3.84095	100.05
3.85762	100.05
3.87428	100.05
3.89095	100.05
3.90762	100.05
3.92428	100.05
3.94095	100.05
3.95762	100.05
3.97428	100.05
3.99095	100.05

[Status Trace (Carrier Gas Pressure)]
Interval(msec)	1000
# of Points	240
Start Time(min)	0.008
End Time(min)	3.991
Intensity Units	
Intensity Multiplier	1
R.Time (min)	Intensity
0.00762	58.00
0.02428	55.48
0.04095	57.05
0.05762	59.24
0.07428	59.51
0.09095	58.08
0.10762	57.98
0.12428	58.01
0.14095	58.01
0.15762	58.01
0.17428	58.00
0.19095	58.00
0.20762	58.00
0.22428	58.00
0.24095	58.00
0.25762	58.00
0.27428	58.00
0.29095	58.00
0.30762	58.00
0.32428	58.00
0.34095	58.00
0.35762	58.00
0.37428	58.00
0.39095	58.00
0.40762	58.00
0.42428	58.00
0.44095	58.00
0.45762	58.00
0.47428	58.00
0.49095	58.00
0.50762	58.00
0.52428	58.00
0.54095	58.00
0.55762	58.00
0.57428	58.00
0.59095	58.00
0.60762	58.00
0.62428	58.00
0.64095	58.00
0.65762	58.00
0.67428	58.00
0.69095	58.00
0.70762	58.00
0.72428	58.00
0.74095	58.00
0.75762	58.00
0.77428	58.00
0.79095	58.00
0.80762	58.00
0.82428	58.00
0.84095	58.00
0.85762	58.00
0.87428	58.00
0.89095	58.00
0.90762	58.00
0.92428	58.00
0.94095	58.00
0.95762	58.00
0.97428	58.00
0.99095	58.00
1.00762	58.00
1.02428	58.00
1.04095	58.00
1.05762	58.00
1.07428	58.00
1.09095	58.00
1.10762	58.00
1.12428	58.00
1.14095	58.00
1.15762	58.00
1.17428	58.00
1.19095	58.00
1.20762	58.00
1.22428	58.00
1.24095	58.00
1.25762	58.00
1.27428	58.00
1.29095	58.00
1.30762	58.00
1.32428	58.00
1.34095	58.00
1.35762	58.00
1.37428	58.00
1.39095	58.00
1.40762	58.00
1.42428	58.00
1.44095	58.00
1.45762	58.00
1.47428	58.00
1.49095	58.00
1.50762	58.00
1.52428	58.00
1.54095	58.00
1.55762	58.00
1.57428	58.00
1.59095	58.00
1.60762	58.00
1.62428	58.00
1.64095	58.00
1.65762	58.00
1.67428	58.01
1.69095	58.00
1.70762	58.00
1.72428	58.00
1.74095	58.00
1.75762	58.00
1.77428	58.00
1.79095	58.00
1.80762	58.00
1.82428	58.00
1.84095	58.00
1.85762	58.00
1.87428	58.00
1.89095	58.00
1.90762	58.00
1.92428	58.00
1.94095	58.00
1.95762	58.00
1.97428	58.00
1.99095	58.00
2.00762	58.00
2.02428	58.00
2.04095	58.00
2.05762	58.00
2.07428	58.00
2.09095	58.00
2.10762	58.00
2.12428	58.00
2.14095	58.00
2.15762	58.00
2.17428	58.00
2.19095	58.00
2.20762	58.00
2.22428	58.00
2.24095	58.00
2.25762	58.00
2.27428	58.00
2.29095	58.00
2.30762	58.00
2.32428	58.00
2.34095	58.00
2.35762	58.00
2.37428	57.99
2.39095	57.99
2.40762	58.00
2.42428	58.00
2.44095	58.00
2.45762	58.00
2.47428	58.00
2.49095	58.00
2.50762	57.99
2.52428	57.98
2.54095	58.00
2.55762	58.00
2.57428	58.00
2.59095	58.00
2.60762	58.00
2.62428	58.00
2.64095	58.00
2.65762	58.00
2.67428	58.00
2.69095	58.00
2.70762	58.00
2.72428	58.00
2.74095	58.00
2.75762	58.00
2.77428	58.00
2.79095	58.00
2.80762	58.00
2.82428	58.00
2.84095	58.00
2.85762	58.00
2.87428	58.00
2.89095	58.00
2.90762	58.00
2.92428	58.00
2.94095	58.00
2.95762	58.00
2.97428	58.00
2.99095	58.00
3.00762	58.00
3.02428	58.00
3.04095	58.00
3.05762	58.00
3.07428	58.00
3.09095	58.00
3.10762	58.00
3.12428	58.00
3.14095	58.00
3.15762	58.00
3.17428	58.00
3.19095	58.00
3.20762	58.00
3.22428	58.00
3.24095	58.00
3.25762	58.00
3.27428	58.00
3.29095	58.00
3.30762	58.00
3.32428	58.00
3.34095	58.00
3.35762	58.00
3.37428	58.00
3.39095	58.00
3.40762	58.00
3.42428	58.00
3.44095	58.00
3.45762	58.00
3.47428	58.00
3.49095	58.00
3.50762	58.00
3.52428	58.00
3.54095	58.00
3.55762	58.00
3.57428	58.00
3.59095	58.00
3.60762	58.00
3.62428	58.00
3.64095	58.00
3.65762	58.00
3.67428	58.00
3.69095	58.00
3.70762	58.00
3.72428	58.00
3.74095	58.00
3.75762	58.00
3.77428	58.00
3.79095	58.00
3.80762	58.00
3.82428	58.00
3.84095	58.00
3.85762	58.00
3.87428	58.00
3.89095	58.00
3.90762	58.00
3.92428	58.00
3.94095	58.00
3.95762	58.00
3.97428	58.00
3.99095	58.00

[Status Trace (Carrier Gas Flow)]
Interval(msec)	1000
# of Points	240
Start Time(min)	0.008
End Time(min)	3.991
Intensity Units	
Intensity Multiplier	1
R.Time (min)	Intensity
0.00762	34.52
0.02428	34.53
0.04095	34.55
0.05762	34.55
0.07428	34.49
0.09095	34.52
0.10762	34.52
0.12428	34.52
0.14095	34.52
0.15762	34.52
0.17428	34.52
0.19095	34.52
0.20762	34.52
0.22428	34.52
0.24095	34.52
0.25762	34.52
0.27428	34.52
0.29095	34.52
0.30762	34.52
0.32428	34.52
0.34095	34.52
0.35762	34.52
0.37428	34.52
0.39095	34.52
0.40762	34.52
0.42428	34.52
0.44095	34.52
0.45762	34.52
0.47428	34.52
0.49095	34.52
0.50762	34.52
0.52428	34.52
0.54095	34.52
0.55762	34.52
0.57428	34.52
0.59095	34.52
0.60762	34.52
0.62428	34.52
0.64095	34.52
0.65762	34.52
0.67428	34.52
0.69095	34.52
0.70762	34.52
0.72428	34.52
0.74095	34.52
0.75762	34.52
0.77428	34.52
0.79095	34.52
0.80762	34.52
0.82428	34.52
0.84095	34.52
0.85762	34.52
0.87428	34.52
0.89095	34.52
0.90762	34.52
0.92428	34.52
0.94095	34.52
0.95762	34.52
0.97428	34.52
0.99095	34.52
1.00762	34.52
1.02428	34.52
1.04095	34.52
1.05762	34.52
1.07428	34.52
1.09095	34.52
1.10762	34.52
1.12428	34.52
1.14095	34.52
1.15762	34.52
1.17428	34.52
1.19095	34.52
1.20762	34.52
1.22428	34.52
1.24095	34.52
1.25762	34.52
1.27428	34.52
1.29095	34.52
1.30762	34.52
1.32428	34.52
1.34095	34.52
1.35762	34.52
1.37428	34.52
1.39095	34.52
1.40762	34.52
1.42428	34.52
1.44095	34.52
1.45762	34.52
1.47428	34.52
1.49095	34.52
1.50762	34.52
1.52428	34.52
1.54095	34.52
1.55762	34.52
1.57428	34.52
1.59095	34.52
1.60762	34.52
1.62428	34.52
1.64095	34.52
1.65762	34.52
1.67428	34.52
1.69095	34.52
1.70762	34.53
1.72428	34.52
1.74095	34.52
1.75762	34.52
1.77428	34.52
1.79095	34.52
1.80762	34.52
1.82428	34.52
1.84095	34.52
1.85762	34.52
1.87428	34.52
1.89095	34.52
1.90762	34.52
1.92428	34.52
1.94095	34.52
1.95762	34.53
1.97428	34.52
1.99095	34.52
2.00762	34.52
2.02428	34.52
2.04095	34.52
2.05762	34.52
2.07428	34.52
2.09095	34.52
2.10762	34.52
2.12428	34.52
2.14095	34.52
2.15762	34.52
2.17428	34.52
2.19095	34.52
2.20762	34.52
2.22428	34.52
2.24095	34.52
2.25762	34.52
2.27428	34.52
2.29095	34.52
2.30762	34.52
2.32428	34.52
2.34095	34.52
2.35762	34.52
2.37428	34.52
2.39095	34.52
2.40762	34.52
2.42428	34.52
2.44095	34.52
2.45762	34.52
2.47428	34.52
2.49095	34.52
2.50762	34.38
2.52428	34.52
2.54095	34.52
2.55762	34.52
2.57428	34.52
2.59095	34.52
2.60762	34.52
2.62428	34.52
2.64095	34.52
2.65762	34.52
2.67428	34.52
2.69095	34.52
2.70762	34.52
2.72428	34.52
2.74095	34.52
2.75762	34.52
2.77428	34.52
2.79095	34.52
2.80762	34.52
2.82428	34.52
2.84095	34.52
2.85762	34.52
2.87428	34.52
2.89095	34.52
2.90762	34.52
2.92428	34.52
2.94095	34.52
2.95762	34.52
2.97428	34.52
2.99095	34.52
3.00762	34.52
3.02428	34.52
3.04095	34.52
3.05762	34.52
3.07428	34.52
3.09095	34.52
3.10762	34.52
3.12428	34.52
3.14095	34.52
3.15762	34.51
3.17428	34.51
3.19095	34.52
3.20762	34.51
3.22428	34.52
3.24095	34.52
3.25762	34.52
3.27428	34.52
3.29095	34.52
3.30762	34.52
3.32428	34.52
3.34095	34.52
3.35762	34.52
3.37428	34.52
3.39095	34.52
3.40762	34.52
3.42428	34.52
3.44095	34.52
3.45762	34.52
3.47428	34.52
3.49095	34.52
3.50762	34.52
3.52428	34.52
3.54095	34.52
3.55762	34.52
3.57428	34.52
3.59095	34.52
3.60762	34.52
3.62428	34.52
3.64095	34.52
3.65762	34.52
3.67428	34.52
3.69095	34.52
3.70762	34.52
3.72428	34.52
3.74095	34.52
3.75762	34.52
3.77428	34.52
3.79095	34.52
3.80762	34.52
3.82428	34.52
3.84095	34.52
3.85762	34.52
3.87428	34.52
3.89095	34.52
3.90762	34.52
3.92428	34.52
3.94095	34.52
3.95762	34.52
3.97428	34.52
3.99095	34.52

[Status Trace (Column Flow)]
Interval(msec)	1000
# of Points	240
Start Time(min)	0.008
End Time(min)	3.991
Intensity Units	
Intensity Multiplier	1
R.Time (min)	Intensity
0.00762	5.50
0.02428	5.21
0.04095	5.39
0.05762	5.65
0.07428	5.68
0.09095	5.51
0.10762	5.50
0.12428	5.50
0.14095	5.50
0.15762	5.50
0.17428	5.50
0.19095	5.50
0.20762	5.50
0.22428	5.50
0.24095	5.50
0.25762	5.50
0.27428	5.50
0.29095	5.50
0.30762	5.50
0.32428	5.50
0.34095	5.50
0.35762	5.50
0.37428	5.50
0.39095	5.50
0.40762	5.50
0.42428	5.50
0.44095	5.50
0.45762	5.50
0.47428	5.50
0.49095	5.50
0.50762	5.50
0.52428	5.50
0.54095	5.50
0.55762	5.50
0.57428	5.50
0.59095	5.50
0.60762	5.50
0.62428	5.50
0.64095	5.50
0.65762	5.50
0.67428	5.50
0.69095	5.50
0.70762	5.50
0.72428	5.50
0.74095	5.50
0.75762	5.50
0.77428	5.50
0.79095	5.50
0.80762	5.50
0.82428	5.50
0.84095	5.50
0.85762	5.50
0.87428	5.50
0.89095	5.50
0.90762	5.50
0.92428	5.50
0.94095	5.50
0.95762	5.50
0.97428	5.50
0.99095	5.50
1.00762	5.50
1.02428	5.50
1.04095	5.50
1.05762	5.50
1.07428	5.50
1.09095	5.50
1.10762	5.50
1.12428	5.50
1.14095	5.50
1.15762	5.50
1.17428	5.50
1.19095	5.50
1.20762	5.50
1.22428	5.50
1.24095	5.50
1.25762	5.50
1.27428	5.50
1.29095	5.50
1.30762	5.50
1.32428	5.50
1.34095	5.50
1.35762	5.50
1.37428	5.50
1.39095	5.50
1.40762	5.50
1.42428	5.50
1.44095	5.50
1.45762	5.50
1.47428	5.50
1.49095	5.50
1.50762	5.50
1.52428	5.50
1.54095	5.50
1.55762	5.50
1.57428	5.50
1.59095	5.50
1.60762	5.50
1.62428	5.50
1.64095	5.49
1.65762	5.48
1.67428	5.47
1.69095	5.46
1.70762	5.45
1.72428	5.44
1.74095	5.43
1.75762	5.42
1.77428	5.41
1.79095	5.40
1.80762	5.39
1.82428	5.38
1.84095	5.37
1.85762	5.36
1.87428	5.35
1.89095	5.34
1.90762	5.33
1.92428	5.32
1.94095	5.31
1.95762	5.30
1.97428	5.29
1.99095	5.28
2.00762	5.27
2.02428	5.26
2.04095	5.25
2.05762	5.24
2.07428	5.23
2.09095	5.23
2.10762	5.22
2.12428	5.21
2.14095	5.20
2.15762	5.19
2.17428	5.18
2.19095	5.17
2.20762	5.16
2.22428	5.15
2.24095	5.14
2.25762	5.13
2.27428	5.12
2.29095	5.11
2.30762	5.10
2.32428	5.09
2.34095	5.09
2.35762	5.08
2.37428	5.07
2.39095	5.07
2.40762	5.07
2.42428	5.07
2.44095	5.07
2.45762	5.07
2.47428	5.07
2.49095	5.07
2.50762	5.07
2.52428	5.07
2.54095	5.07
2.55762	5.07
2.57428	5.07
2.59095	5.07
2.60762	5.07
2.62428	5.07
2.64095	5.07
2.65762	5.07
2.67428	5.07
2.69095	5.07
2.70762	5.07
2.72428	5.06
2.74095	5.07
2.75762	5.07
2.77428	5.07
2.79095	5.07
2.80762	5.07
2.82428	5.07
2.84095	5.07
2.85762	5.06
2.87428	5.06
2.89095	5.06
2.90762	5.06
2.92428	5.06
2.94095	5.06
2.95762	5.06
2.97428	5.06
2.99095	5.06
3.00762	5.06
3.02428	5.06
3.04095	5.06
3.05762	5.06
3.07428	5.06
3.09095	5.06
3.10762	5.06
3.12428	5.06
3.14095	5.06
3.15762	5.06
3.17428	5.06
3.19095	5.06
3.20762	5.06
3.22428	5.06
3.24095	5.06
3.25762	5.06
3.27428	5.06
3.29095	5.06
3.30762	5.06
3.32428	5.06
3.34095	5.06
3.35762	5.06
3.37428	5.06
3.39095	5.06
3.40762	5.06
3.42428	5.06
3.44095	5.06
3.45762	5.06
3.47428	5.06
3.49095	5.06
3.50762	5.06
3.52428	5.06
3.54095	5.06
3.55762	5.06
3.57428	5.06
3.59095	5.06
3.60762	5.06
3.62428	5.06
3.64095	5.06
3.65762	5.06
3.67428	5.06
3.69095	5.06
3.70762	5.06
3.72428	5.06
3.74095	5.06
3.75762	5.06
3.77428	5.06
3.79095	5.06
3.80762	5.06
3.82428	5.06
3.84095	5.06
3.85762	5.06
3.87428	5.06
3.89095	5.06
3.90762	5.06
3.92428	5.06
3.94095	5.06
3.95762	5.06
3.97428	5.06
3.99095	5.06

[Status Trace (Linear Velocity)]
Interval(msec)	1000
# of Points	240
Start Time(min)	0.008
End Time(min)	3.991
Intensity Units	
Intensity Multiplier	1
R.Time (min)	Intensity
0.00762	39.01
0.02428	37.35
0.04095	38.38
0.05762	39.82
0.07428	40.00
0.09095	39.05
0.10762	38.99
0.12428	39.01
0.14095	39.01
0.15762	39.01
0.17428	39.01
0.19095	39.01
0.20762	39.01
0.22428	39.01
0.24095	39.01
0.25762	39.01
0.27428	39.01
0.29095	39.01
0.30762	39.01
0.32428	39.01
0.34095	39.01
0.35762	39.01
0.37428	39.01
0.39095	39.01
0.40762	39.02
0.42428	39.02
0.44095	39.02
0.45762	39.02
0.47428	39.02
0.49095	39.02
0.50762	39.02
0.52428	39.01
0.54095	39.01
0.55762	39.01
0.57428	39.01
0.59095	39.01
0.60762	39.01
0.62428	39.01
0.64095	39.01
0.65762	39.01
0.67428	39.02
0.69095	39.02
0.70762	39.02
0.72428	39.02
0.74095	39.02
0.75762	39.02
0.77428	39.01
0.79095	39.02
0.80762	39.02
0.82428	39.01
0.84095	39.01
0.85762	39.01
0.87428	39.02
0.89095	39.02
0.90762	39.01
0.92428	39.01
0.94095	39.01
0.95762	39.01
0.97428	39.01
0.99095	39.01
1.00762	39.01
1.02428	39.02
1.04095	39.01
1.05762	39.01
1.07428	39.01
1.09095	39.01
1.10762	39.01
1.12428	39.01
1.14095	39.01
1.15762	39.01
1.17428	39.01
1.19095	39.01
1.20762	39.02
1.22428	39.02
1.24095	39.02
1.25762	39.02
1.27428	39.01
1.29095	39.01
1.30762	39.01
1.32428	39.01
1.34095	39.01
1.35762	39.01
1.37428	39.01
1.39095	39.01
1.40762	39.01
1.42428	39.01
1.44095	39.01
1.45762	39.01
1.47428	39.01
1.49095	39.01
1.50762	39.01
1.52428	39.01
1.54095	39.01
1.55762	39.01
1.57428	39.01
1.59095	39.01
1.60762	39.01
1.62428	39.00
1.64095	38.98
1.65762	38.96
1.67428	38.93
1.69095	38.89
1.70762	38.85
1.72428	38.82
1.74095	38.79
1.75762	38.76
1.77428	38.73
1.79095	38.70
1.80762	38.66
1.82428	38.63
1.84095	38.60
1.85762	38.57
1.87428	38.54
1.89095	38.51
1.90762	38.48
1.92428	38.45
1.94095	38.42
1.95762	38.38
1.97428	38.36
1.99095	38.33
2.00762	38.30
2.02428	38.27
2.04095	38.24
2.05762	38.21
2.07428	38.18
2.09095	38.15
2.10762	38.12
2.12428	38.09
2.14095	38.06
2.15762	38.03
2.17428	38.00
2.19095	37.97
2.20762	37.94
2.22428	37.91
2.24095	37.88
2.25762	37.85
2.27428	37.82
2.29095	37.79
2.30762	37.76
2.32428	37.73
2.34095	37.71
2.35762	37.68
2.37428	37.66
2.39095	37.66
2.40762	37.66
2.42428	37.66
2.44095	37.66
2.45762	37.66
2.47428	37.65
2.49095	37.65
2.50762	37.65
2.52428	37.64
2.54095	37.65
2.55762	37.65
2.57428	37.65
2.59095	37.65
2.60762	37.64
2.62428	37.64
2.64095	37.64
2.65762	37.64
2.67428	37.64
2.69095	37.64
2.70762	37.64
2.72428	37.64
2.74095	37.64
2.75762	37.64
2.77428	37.64
2.79095	37.64
2.80762	37.64
2.82428	37.64
2.84095	37.64
2.85762	37.64
2.87428	37.64
2.89095	37.64
2.90762	37.63
2.92428	37.63
2.94095	37.63
2.95762	37.63
2.97428	37.63
2.99095	37.63
3.00762	37.63
3.02428	37.63
3.04095	37.63
3.05762	37.62
3.07428	37.62
3.09095	37.62
3.10762	37.62
3.12428	37.62
3.14095	37.62
3.15762	37.62
3.17428	37.62
3.19095	37.62
3.20762	37.62
3.22428	37.62
3.24095	37.62
3.25762	37.62
3.27428	37.62
3.29095	37.62
3.30762	37.62
3.32428	37.62
3.34095	37.62
3.35762	37.62
3.37428	37.62
3.39095	37.62
3.40762	37.63
3.42428	37.63
3.44095	37.63
3.45762	37.63
3.47428	37.63
3.49095	37.63
3.50762	37.63
3.52428	37.63
3.54095	37.63
3.55762	37.63
3.57428	37.63
3.59095	37.63
3.60762	37.62
3.62428	37.62
3.64095	37.62
3.65762	37.62
3.67428	37.62
3.69095	37.62
3.70762	37.62
3.72428	37.62
3.74095	37.62
3.75762	37.62
3.77428	37.62
3.79095	37.62
3.80762	37.62
3.82428	37.62
3.84095	37.62
3.85762	37.62
3.87428	37.62
3.89095	37.62
3.90762	37.62
3.92428	37.62
3.94095	37.62
3.95762	37.62
3.97428	37.62
3.99095	37.62

