[Header]
Application Name	LabSolutions
Version	5.110
Data File Name	C:\Users\User\Desktop\GC Analyses\Jack\UIC Prairie Sampling\9.2.22\220902_019.gcd
Output Date	10/28/2022
Output Time	1:23:52 PM

[File Information]
Type	Data File
Generated	10/25/2022 1:12:55 PM
Generated by	System Administrator
Modified	10/25/2022 1:17:22 PM
Modified by	System Administrator

[Sample Information]
Operator Name	System Administrator
Acquired	10/25/2022 1:13:21 PM
Sample Type	1:Standard
Level	1
Sample Name	220902_UICPrairie
Sample ID	220902_UICPrairie
ISTD Amount1	1
ISTD Amount2	1
ISTD Amount3	1
ISTD Amount4	1
ISTD Amount5	1
ISTD Amount6	1
ISTD Amount7	1
ISTD Amount8	1
ISTD Amount9	1
ISTD Amount10	1
ISTD Amount11	1
ISTD Amount12	1
ISTD Amount13	1
ISTD Amount14	1
ISTD Amount15	1
ISTD Amount16	1
ISTD Amount17	1
ISTD Amount18	1
ISTD Amount19	1
ISTD Amount20	1
ISTD Amount21	1
ISTD Amount22	1
ISTD Amount23	1
ISTD Amount24	1
ISTD Amount25	1
ISTD Amount26	1
ISTD Amount27	1
ISTD Amount28	1
ISTD Amount29	1
ISTD Amount30	1
ISTD Amount31	1
ISTD Amount32	1
Sample Amount	1
Dilution Factor	1
Vial#	1
Injection Volume	1
Injection Count	1
Bar Code	

[Original Files]
Data File	C:\Users\User\Desktop\GC Analyses\Jack\UIC Prairie Sampling\9.2.22\220902_019.gcd
Method File	C:\LabSolutions\Data\GHG_4min_2022\ghg3_togas_w_acet_4 min_new_int.gcm
Batch File	
Report Format File	c:\LabSolutions\System\DEFAULT.lsr

[File Description]


[Configuration]
Instrument Name	C0B7VH3-Instrument1
Instrument #	1
Line #	1
# of Detectors	3
Detector ID	DET#1	DET#2	DET#3
Detector Name	FID	PTCD	ECD
# of Channels	1	1	1

[Peak Table(Ch1)]
# of Peaks	2
Peak#	R.Time	I.Time	F.Time	Area	Height	A/H	Conc.	Mark	ID#	Name	k'	Plate #	Plate Ht.	Tailing	Resolution	Sep.Factor	Area Ratio	Height Ratio	Conc. %	Norm Conc.
1	1.483	1.461	1.527	714	426	1.677	100.000	   	1	CO	0.000	13415	11.182	1.532	0.000	0.000	0	0	20.000	20.000
2	2.011	1.956	2.121	43586	25679	1.697	400.000	   	3	CO2	0.356	26319	5.699	1.187	10.476	0.000	0	0	80.000	80.000

[Peak Table(Ch2)]
# of Peaks	0

[Peak Table(Ch3)]
# of Peaks	2
Peak#	R.Time	I.Time	F.Time	Area	Height	A/H	Conc.	Mark	ID#	Name	k'	Plate #	Plate Ht.	Tailing	Resolution	Sep.Factor	Area Ratio	Height Ratio	Conc. %	Norm Conc.
1	2.620	2.440	2.851	4300	247	17.409	0.000	   			0.000	214	700.595	0.000	0.000	0.000	0	0	0.000	0.000
2	2.891	2.851	3.140	2265	423	5.356	1.000	 V 	1	N2O	0.104	9547	15.711	0.000	0.650	0.000	0	0	100.000	100.000

[Compound Results(Ch1)]
# of IDs	6
ID#	Name	R.Time	Area	Height	Conc.	Curve	3rd	2nd	1st	Constant	Area Ratio	Height Ratio	Conc. %	Norm Conc.
1	CO	1.483	714	426	100.000	Linear	0.000000e+00	0.000000e+00	7.140012e+000	0.000000e+00	0	0	20.000	20.000
2	CH4	0.000	0	0	0.000	Linear	0.000000e+00	0.000000e+00	0.000000e+00	0.000000e+00	0	0	0.000	0.000
3	CO2	2.011	43586	25679	400.000	Linear	0.000000e+00	0.000000e+00	1.089641e+002	0.000000e+00	0	0	80.000	80.000
4	Ethylene	0.000	0	0	0.000	Linear	0.000000e+00	0.000000e+00	0.000000e+00	0.000000e+00	0	0	0.000	0.000
5	Acetylene	0.000	0	0	0.000	Linear	0.000000e+00	0.000000e+00	0.000000e+00	0.000000e+00	0	0	0.000	0.000
6	Ethane	0.000	0	0	0.000	Linear	0.000000e+00	0.000000e+00	0.000000e+00	0.000000e+00	0	0	0.000	0.000

[Compound Results(Ch2)]
# of IDs	5
ID#	Name	R.Time	Area	Height	Conc.	Curve	3rd	2nd	1st	Constant	Area Ratio	Height Ratio	Conc. %	Norm Conc.
1	Hydrogen	0.000	0	0	0.000	Linear	0.000000e+00	0.000000e+00	0.000000e+00	0.000000e+00	0	0	0.000	0.000
2	Oxygen	0.000	0	0	0.000	Linear	0.000000e+00	0.000000e+00	0.000000e+00	0.000000e+00	0	0	0.000	0.000
3	Nitrogen	0.000	0	0	0.000	Linear	0.000000e+00	0.000000e+00	0.000000e+00	0.000000e+00	0	0	0.000	0.000
4	Methane	0.000	0	0	0.000	Linear	0.000000e+00	0.000000e+00	0.000000e+00	0.000000e+00	0	0	0.000	0.000
5	Carbon Monoxide	0.000	0	0	0.000	Linear	0.000000e+00	0.000000e+00	0.000000e+00	0.000000e+00	0	0	0.000	0.000

[Compound Results(Ch3)]
# of IDs	2
ID#	Name	R.Time	Area	Height	Conc.	Curve	3rd	2nd	1st	Constant	Area Ratio	Height Ratio	Conc. %	Norm Conc.
1	N2O	2.891	2265	423	1.000	Linear	0.000000e+00	0.000000e+00	2.264931e+003	0.000000e+00	0	0	100.000	100.000
2	SF6	0.000	0	0	0.000	Linear	0.000000e+00	0.000000e+00	0.000000e+00	0.000000e+00	0	0	0.000	0.000

[Group Results(Ch1)]
# of Groups	0

[Group Results(Ch2)]
# of Groups	0

[Group Results(Ch3)]
# of Groups	0

[Chromatogram (Ch1)]
Interval(msec)	220
# of Points	1091
Start Time(min)	0.002
End Time(min)	3.998
R.Time (min)	Intensity
0.00167	12
0.00533	10
0.00900	11
0.01267	15
0.01633	19
0.02000	23
0.02367	22
0.02733	17
0.03100	16
0.03467	19
0.03833	19
0.04200	12
0.04567	5
0.04933	-0
0.05300	-2
0.05667	1
0.06033	7
0.06400	12
0.06767	13
0.07133	10
0.07500	7
0.07867	5
0.08233	6
0.08600	10
0.08967	14
0.09333	19
0.09700	23
0.10067	21
0.10433	13
0.10800	0
0.11167	-13
0.11533	-23
0.11900	-28
0.12267	-30
0.12633	-29
0.13000	-27
0.13367	-27
0.13733	-28
0.14100	-29
0.14467	-28
0.14833	-27
0.15200	-25
0.15567	-23
0.15933	-23
0.16300	-21
0.16667	-14
0.17033	-5
0.17400	4
0.17767	13
0.18133	20
0.18500	21
0.18867	16
0.19233	9
0.19600	3
0.19967	-5
0.20333	-13
0.20700	-19
0.21067	-23
0.21433	-24
0.21800	-21
0.22167	-15
0.22533	-11
0.22900	-9
0.23267	-9
0.23633	-9
0.24000	-11
0.24367	-14
0.24733	-19
0.25100	-22
0.25467	-23
0.25833	-23
0.26200	-23
0.26567	-19
0.26933	-15
0.27300	-16
0.27667	-21
0.28033	-28
0.28400	-33
0.28767	-34
0.29133	-31
0.29500	-26
0.29867	-21
0.30233	-21
0.30600	-26
0.30967	-33
0.31333	-40
0.31700	-43
0.32067	-44
0.32433	-43
0.32800	-42
0.33167	-40
0.33533	-35
0.33900	-29
0.34267	-22
0.34633	-18
0.35000	-16
0.35367	-11
0.35733	-9
0.36100	-8
0.36467	-10
0.36833	-13
0.37200	-14
0.37567	-12
0.37933	-9
0.38300	-11
0.38667	-17
0.39033	-25
0.39400	-34
0.39767	-40
0.40133	-42
0.40500	-39
0.40867	-36
0.41233	-34
0.41600	-32
0.41967	-29
0.42333	-27
0.42700	-27
0.43067	-25
0.43433	-21
0.43800	-19
0.44167	-20
0.44533	-24
0.44900	-29
0.45267	-28
0.45633	-25
0.46000	-24
0.46367	-25
0.46733	-27
0.47100	-29
0.47467	-31
0.47833	-32
0.48200	-33
0.48567	-36
0.48933	-39
0.49300	-40
0.49667	-41
0.50033	-40
0.50400	-39
0.50767	-39
0.51133	-38
0.51500	-33
0.51867	-26
0.52233	-19
0.52600	-14
0.52967	-12
0.53333	-14
0.53700	-18
0.54067	-22
0.54433	-24
0.54800	-27
0.55167	-32
0.55533	-38
0.55900	-39
0.56267	-38
0.56633	-38
0.57000	-40
0.57367	-41
0.57733	-41
0.58100	-37
0.58467	-34
0.58833	-35
0.59200	-41
0.59567	-49
0.59933	-56
0.60300	-60
0.60667	-62
0.61033	-58
0.61400	-52
0.61767	-48
0.62133	-47
0.62500	-48
0.62867	-48
0.63233	-45
0.63600	-41
0.63967	-38
0.64333	-40
0.64700	-44
0.65067	-48
0.65433	-48
0.65800	-48
0.66167	-46
0.66533	-45
0.66900	-41
0.67267	-38
0.67633	-36
0.68000	-34
0.68367	-34
0.68733	-35
0.69100	-38
0.69467	-41
0.69833	-46
0.70200	-50
0.70567	-53
0.70933	-55
0.71300	-57
0.71667	-59
0.72033	-62
0.72400	-64
0.72767	-65
0.73133	-63
0.73500	-59
0.73867	-52
0.74233	-46
0.74600	-44
0.74967	-43
0.75333	-45
0.75700	-49
0.76067	-50
0.76433	-50
0.76800	-52
0.77167	-58
0.77533	-61
0.77900	-59
0.78267	-55
0.78633	-55
0.79000	-57
0.79367	-59
0.79733	-59
0.80100	-59
0.80467	-57
0.80833	-54
0.81200	-49
0.81567	-44
0.81933	-42
0.82300	-44
0.82667	-49
0.83033	-57
0.83400	-67
0.83767	-75
0.84133	-80
0.84500	-80
0.84867	-78
0.85233	-77
0.85600	-76
0.85967	-74
0.86333	-70
0.86700	-65
0.87067	-61
0.87433	-59
0.87800	-59
0.88167	-57
0.88533	-56
0.88900	-57
0.89267	-56
0.89633	-56
0.90000	-58
0.90367	-59
0.90733	-62
0.91100	-67
0.91467	-72
0.91833	-76
0.92200	-79
0.92567	-80
0.92933	-81
0.93300	-82
0.93667	-78
0.94033	-72
0.94400	-63
0.94767	-59
0.95133	-58
0.95500	-59
0.95867	-64
0.96233	-70
0.96600	-75
0.96967	-79
0.97333	-81
0.97700	-80
0.98067	-74
0.98433	-67
0.98800	-66
0.99167	-67
0.99533	-70
0.99900	-73
1.00267	-76
1.00633	-80
1.01000	-85
1.01367	-88
1.01733	-87
1.02100	-83
1.02467	-80
1.02833	-78
1.03200	-75
1.03567	-73
1.03933	-74
1.04300	-76
1.04667	-78
1.05033	-79
1.05400	-82
1.05767	-85
1.06133	-84
1.06500	-77
1.06867	-68
1.07233	-61
1.07600	-60
1.07967	-61
1.08333	-63
1.08700	-64
1.09067	-66
1.09433	-69
1.09800	-76
1.10167	-80
1.10533	-81
1.10900	-80
1.11267	-79
1.11633	-78
1.12000	-78
1.12367	-79
1.12733	-81
1.13100	-85
1.13467	-87
1.13833	-87
1.14200	-86
1.14567	-85
1.14933	-85
1.15300	-86
1.15667	-89
1.16033	-91
1.16400	-93
1.16767	-96
1.17133	-97
1.17500	-98
1.17867	-99
1.18233	-97
1.18600	-95
1.18967	-92
1.19333	-87
1.19700	-84
1.20067	-81
1.20433	-79
1.20800	-76
1.21167	-73
1.21533	-69
1.21900	-65
1.22267	-64
1.22633	-68
1.23000	-75
1.23367	-81
1.23733	-81
1.24100	-78
1.24467	-74
1.24833	-73
1.25200	-74
1.25567	-76
1.25933	-79
1.26300	-78
1.26667	-75
1.27033	-72
1.27400	-69
1.27767	-68
1.28133	-74
1.28500	-85
1.28867	-98
1.29233	-110
1.29600	-119
1.29967	-122
1.30333	-121
1.30700	-115
1.31067	-110
1.31433	-105
1.31800	-101
1.32167	-101
1.32533	-104
1.32900	-106
1.33267	-104
1.33633	-100
1.34000	-97
1.34367	-94
1.34733	-91
1.35100	-91
1.35467	-94
1.35833	-99
1.36200	-105
1.36567	-109
1.36933	-111
1.37300	-111
1.37667	-111
1.38033	-112
1.38400	-112
1.38767	-113
1.39133	-111
1.39500	-106
1.39867	-101
1.40233	-96
1.40600	-94
1.40967	-91
1.41333	-92
1.41700	-93
1.42067	-94
1.42433	-98
1.42800	-103
1.43167	-107
1.43533	-107
1.43900	-105
1.44267	-103
1.44633	-100
1.45000	-99
1.45367	-99
1.45733	-99
1.46100	-95
1.46467	-72
1.46833	-7
1.47200	104
1.47567	223
1.47933	305
1.48300	332
1.48667	311
1.49033	258
1.49400	193
1.49767	130
1.50133	75
1.50500	32
1.50867	-1
1.51233	-27
1.51600	-46
1.51967	-63
1.52333	-77
1.52700	-90
1.53067	-99
1.53433	-103
1.53800	-103
1.54167	-103
1.54533	-101
1.54900	-96
1.55267	-89
1.55633	-87
1.56000	-84
1.56367	-72
1.56733	-38
1.57100	17
1.57467	72
1.57833	97
1.58200	85
1.58567	50
1.58933	9
1.59300	-25
1.59667	-51
1.60033	-70
1.60400	-85
1.60767	-96
1.61133	-103
1.61500	-108
1.61867	-110
1.62233	-112
1.62600	-115
1.62967	-118
1.63333	-120
1.63700	-116
1.64067	-108
1.64433	-103
1.64800	-101
1.65167	-99
1.65533	-101
1.65900	-107
1.66267	-114
1.66633	-121
1.67000	-125
1.67367	-124
1.67733	-122
1.68100	-120
1.68467	-118
1.68833	-114
1.69200	-109
1.69567	-107
1.69933	-108
1.70300	-112
1.70667	-116
1.71033	-120
1.71400	-126
1.71767	-133
1.72133	-137
1.72500	-134
1.72867	-128
1.73233	-122
1.73600	-119
1.73967	-114
1.74333	-111
1.74700	-109
1.75067	-105
1.75433	-101
1.75800	-100
1.76167	-104
1.76533	-110
1.76900	-116
1.77267	-122
1.77633	-125
1.78000	-126
1.78367	-125
1.78733	-125
1.79100	-125
1.79467	-124
1.79833	-120
1.80200	-114
1.80567	-109
1.80933	-105
1.81300	-103
1.81667	-99
1.82033	-97
1.82400	-97
1.82767	-99
1.83133	-103
1.83500	-104
1.83867	-102
1.84233	-101
1.84600	-102
1.84967	-104
1.85333	-106
1.85700	-106
1.86067	-106
1.86433	-107
1.86800	-108
1.87167	-108
1.87533	-106
1.87900	-103
1.88267	-102
1.88633	-103
1.89000	-103
1.89367	-100
1.89733	-96
1.90100	-92
1.90467	-88
1.90833	-81
1.91200	-72
1.91567	-66
1.91933	-64
1.92300	-66
1.92667	-73
1.93033	-80
1.93400	-89
1.93767	-97
1.94133	-99
1.94500	-96
1.94867	-92
1.95233	-88
1.95600	-84
1.95967	-77
1.96333	-66
1.96700	-50
1.97067	-13
1.97433	64
1.97800	203
1.98167	459
1.98533	1013
1.98900	2335
1.99267	5165
1.99633	9989
2.00000	16241
2.00367	22113
2.00733	25556
2.01100	25616
2.01467	22823
2.01833	18528
2.02200	14016
2.02567	10074
2.02933	6991
2.03300	4744
2.03667	3180
2.04033	2125
2.04400	1423
2.04767	961
2.05133	659
2.05500	458
2.05867	325
2.06233	237
2.06600	175
2.06967	131
2.07333	100
2.07700	78
2.08067	61
2.08433	49
2.08800	40
2.09167	32
2.09533	25
2.09900	21
2.10267	19
2.10633	13
2.11000	2
2.11367	-9
2.11733	-16
2.12100	-21
2.12467	-23
2.12833	-27
2.13200	-29
2.13567	-28
2.13933	-25
2.14300	-25
2.14667	-27
2.15033	-28
2.15400	-28
2.15767	-27
2.16133	-27
2.16500	-30
2.16867	-33
2.17233	-35
2.17600	-38
2.17967	-42
2.18333	-45
2.18700	-48
2.19067	-49
2.19433	-45
2.19800	-37
2.20167	-29
2.20533	-22
2.20900	-15
2.21267	-13
2.21633	-15
2.22000	-20
2.22367	-26
2.22733	-32
2.23100	-37
2.23467	-39
2.23833	-41
2.24200	-42
2.24567	-40
2.24933	-36
2.25300	-30
2.25667	-27
2.26033	-22
2.26400	-13
2.26767	-5
2.27133	-4
2.27500	-10
2.27867	-17
2.28233	-22
2.28600	-20
2.28967	-13
2.29333	-6
2.29700	-2
2.30067	-2
2.30433	-7
2.30800	-15
2.31167	-24
2.31533	-31
2.31900	-34
2.32267	-31
2.32633	-23
2.33000	-14
2.33367	-8
2.33733	-4
2.34100	-3
2.34467	-3
2.34833	-5
2.35200	-11
2.35567	-15
2.35933	-16
2.36300	-18
2.36667	-22
2.37033	-28
2.37400	-31
2.37767	-30
2.38133	-26
2.38500	-18
2.38867	-12
2.39233	-6
2.39600	-0
2.39967	2
2.40333	4
2.40700	7
2.41067	10
2.41433	13
2.41800	14
2.42167	12
2.42533	8
2.42900	5
2.43267	5
2.43633	4
2.44000	2
2.44367	0
2.44733	-2
2.45100	-2
2.45467	-3
2.45833	-3
2.46200	-1
2.46567	-0
2.46933	-1
2.47300	-2
2.47667	-3
2.48033	-4
2.48400	-2
2.48767	-3
2.49133	-4
2.49500	-4
2.49867	-3
2.50233	-2
2.50600	0
2.50967	0
2.51333	0
2.51700	5
2.52067	12
2.52433	19
2.52800	19
2.53167	13
2.53533	6
2.53900	2
2.54267	0
2.54633	-0
2.55000	-1
2.55367	-0
2.55733	2
2.56100	4
2.56467	5
2.56833	10
2.57200	19
2.57567	24
2.57933	21
2.58300	17
2.58667	16
2.59033	17
2.59400	19
2.59767	19
2.60133	18
2.60500	18
2.60867	17
2.61233	14
2.61600	15
2.61967	20
2.62333	26
2.62700	31
2.63067	37
2.63433	42
2.63800	44
2.64167	44
2.64533	40
2.64900	36
2.65267	33
2.65633	32
2.66000	33
2.66367	34
2.66733	33
2.67100	31
2.67467	29
2.67833	24
2.68200	21
2.68567	19
2.68933	19
2.69300	22
2.69667	25
2.70033	27
2.70400	27
2.70767	27
2.71133	26
2.71500	24
2.71867	24
2.72233	28
2.72600	32
2.72967	32
2.73333	32
2.73700	34
2.74067	32
2.74433	31
2.74800	31
2.75167	33
2.75533	38
2.75900	42
2.76267	39
2.76633	34
2.77000	34
2.77367	36
2.77733	40
2.78100	40
2.78467	38
2.78833	36
2.79200	37
2.79567	39
2.79933	42
2.80300	46
2.80667	48
2.81033	49
2.81400	48
2.81767	47
2.82133	47
2.82500	46
2.82867	46
2.83233	49
2.83600	53
2.83967	57
2.84333	63
2.84700	69
2.85067	73
2.85433	77
2.85800	80
2.86167	76
2.86533	67
2.86900	61
2.87267	61
2.87633	61
2.88000	58
2.88367	54
2.88733	51
2.89100	50
2.89467	53
2.89833	57
2.90200	60
2.90567	59
2.90933	57
2.91300	52
2.91667	46
2.92033	42
2.92400	43
2.92767	51
2.93133	59
2.93500	67
2.93867	72
2.94233	74
2.94600	72
2.94967	67
2.95333	61
2.95700	58
2.96067	58
2.96433	60
2.96800	64
2.97167	67
2.97533	67
2.97900	69
2.98267	69
2.98633	67
2.99000	66
2.99367	67
2.99733	67
3.00100	67
3.00467	66
3.00833	66
3.01200	67
3.01567	67
3.01933	64
3.02300	59
3.02667	56
3.03033	57
3.03400	63
3.03767	67
3.04133	67
3.04500	66
3.04867	65
3.05233	63
3.05600	60
3.05967	59
3.06333	61
3.06700	64
3.07067	69
3.07433	75
3.07800	78
3.08167	77
3.08533	72
3.08900	66
3.09267	62
3.09633	60
3.10000	61
3.10367	64
3.10733	69
3.11100	77
3.11467	89
3.11833	101
3.12200	110
3.12567	113
3.12933	108
3.13300	99
3.13667	91
3.14033	84
3.14400	80
3.14767	77
3.15133	78
3.15500	81
3.15867	84
3.16233	82
3.16600	79
3.16967	77
3.17333	78
3.17700	81
3.18067	83
3.18433	81
3.18800	79
3.19167	79
3.19533	84
3.19900	93
3.20267	100
3.20633	97
3.21000	90
3.21367	87
3.21733	87
3.22100	90
3.22467	92
3.22833	93
3.23200	94
3.23567	97
3.23933	101
3.24300	102
3.24667	99
3.25033	90
3.25400	80
3.25767	73
3.26133	68
3.26500	64
3.26867	59
3.27233	55
3.27600	55
3.27967	58
3.28333	62
3.28700	67
3.29067	72
3.29433	76
3.29800	78
3.30167	79
3.30533	80
3.30900	83
3.31267	85
3.31633	87
3.32000	88
3.32367	89
3.32733	93
3.33100	101
3.33467	106
3.33833	106
3.34200	100
3.34567	91
3.34933	83
3.35300	76
3.35667	71
3.36033	68
3.36400	67
3.36767	67
3.37133	67
3.37500	69
3.37867	72
3.38233	76
3.38600	79
3.38967	82
3.39333	86
3.39700	92
3.40067	98
3.40433	104
3.40800	104
3.41167	102
3.41533	99
3.41900	95
3.42267	92
3.42633	91
3.43000	95
3.43367	105
3.43733	112
3.44100	112
3.44467	107
3.44833	99
3.45200	94
3.45567	91
3.45933	87
3.46300	81
3.46667	74
3.47033	66
3.47400	58
3.47767	50
3.48133	46
3.48500	45
3.48867	47
3.49233	51
3.49600	57
3.49967	64
3.50333	71
3.50700	78
3.51067	88
3.51433	97
3.51800	103
3.52167	101
3.52533	92
3.52900	80
3.53267	70
3.53633	63
3.54000	61
3.54367	63
3.54733	67
3.55100	71
3.55467	73
3.55833	70
3.56200	64
3.56567	60
3.56933	61
3.57300	64
3.57667	69
3.58033	71
3.58400	74
3.58767	80
3.59133	86
3.59500	89
3.59867	90
3.60233	90
3.60600	89
3.60967	88
3.61333	88
3.61700	87
3.62067	89
3.62433	92
3.62800	94
3.63167	96
3.63533	99
3.63900	100
3.64267	101
3.64633	100
3.65000	98
3.65367	98
3.65733	99
3.66100	98
3.66467	99
3.66833	100
3.67200	99
3.67567	95
3.67933	89
3.68300	84
3.68667	79
3.69033	78
3.69400	80
3.69767	83
3.70133	84
3.70500	82
3.70867	79
3.71233	77
3.71600	78
3.71967	80
3.72333	83
3.72700	84
3.73067	82
3.73433	77
3.73800	71
3.74167	67
3.74533	65
3.74900	65
3.75267	67
3.75633	73
3.76000	79
3.76367	83
3.76733	88
3.77100	94
3.77467	99
3.77833	104
3.78200	107
3.78567	104
3.78933	99
3.79300	94
3.79667	89
3.80033	84
3.80400	80
3.80767	78
3.81133	75
3.81500	73
3.81867	73
3.82233	66
3.82600	73
3.82967	82
3.83333	86
3.83700	88
3.84067	91
3.84433	95
3.84800	101
3.85167	104
3.85533	104
3.85900	102
3.86267	97
3.86633	92
3.87000	88
3.87367	83
3.87733	77
3.88100	70
3.88467	65
3.88833	66
3.89200	71
3.89567	76
3.89933	81
3.90300	84
3.90667	87
3.91033	90
3.91400	95
3.91767	100
3.92133	101
3.92500	100
3.92867	97
3.93233	93
3.93600	90
3.93967	84
3.94333	79
3.94700	77
3.95067	74
3.95433	72
3.95800	75
3.96167	81
3.96533	88
3.96900	95
3.97267	96
3.97633	93
3.98000	89
3.98367	83
3.98733	75
3.99100	65
3.99467	56
3.99833	52

[Chromatogram (Ch2)]
Interval(msec)	220
# of Points	1091
Start Time(min)	0.002
End Time(min)	3.998
R.Time (min)	Intensity
0.00167	0
0.00533	0
0.00900	0
0.01267	1
0.01633	0
0.02000	0
0.02367	0
0.02733	-0
0.03100	-1
0.03467	-1
0.03833	-2
0.04200	-2
0.04567	-2
0.04933	-2
0.05300	-2
0.05667	-2
0.06033	-2
0.06400	-3
0.06767	-3
0.07133	-3
0.07500	-3
0.07867	-3
0.08233	-3
0.08600	-2
0.08967	-2
0.09333	-2
0.09700	-2
0.10067	-2
0.10433	-2
0.10800	-2
0.11167	-2
0.11533	-1
0.11900	-1
0.12267	-0
0.12633	-0
0.13000	-0
0.13367	-0
0.13733	-0
0.14100	0
0.14467	0
0.14833	0
0.15200	0
0.15567	-0
0.15933	-0
0.16300	-0
0.16667	-0
0.17033	-1
0.17400	-1
0.17767	-0
0.18133	-0
0.18500	-1
0.18867	-1
0.19233	-1
0.19600	-1
0.19967	-1
0.20333	-1
0.20700	-2
0.21067	-2
0.21433	-2
0.21800	-1
0.22167	-1
0.22533	-1
0.22900	-1
0.23267	-2
0.23633	-2
0.24000	-2
0.24367	-2
0.24733	-2
0.25100	-2
0.25467	-2
0.25833	-2
0.26200	-2
0.26567	-2
0.26933	-1
0.27300	-1
0.27667	-1
0.28033	-1
0.28400	-0
0.28767	-0
0.29133	-0
0.29500	-0
0.29867	0
0.30233	0
0.30600	0
0.30967	0
0.31333	0
0.31700	0
0.32067	0
0.32433	-0
0.32800	-0
0.33167	-0
0.33533	-0
0.33900	-1
0.34267	-1
0.34633	-1
0.35000	-2
0.35367	-2
0.35733	-2
0.36100	-2
0.36467	-3
0.36833	-3
0.37200	-3
0.37567	-3
0.37933	-3
0.38300	-3
0.38667	-3
0.39033	-3
0.39400	-3
0.39767	-3
0.40133	-3
0.40500	-3
0.40867	-3
0.41233	-3
0.41600	-3
0.41967	-3
0.42333	-3
0.42700	-3
0.43067	-3
0.43433	-3
0.43800	-3
0.44167	-3
0.44533	-3
0.44900	-3
0.45267	-3
0.45633	-3
0.46000	-3
0.46367	-2
0.46733	-2
0.47100	-2
0.47467	-2
0.47833	-2
0.48200	-3
0.48567	-3
0.48933	-3
0.49300	-3
0.49667	-3
0.50033	-3
0.50400	-3
0.50767	-3
0.51133	-3
0.51500	-2
0.51867	-2
0.52233	-2
0.52600	-2
0.52967	-2
0.53333	-2
0.53700	-1
0.54067	-1
0.54433	-1
0.54800	-1
0.55167	-1
0.55533	-1
0.55900	-1
0.56267	-1
0.56633	-1
0.57000	-1
0.57367	-1
0.57733	-1
0.58100	-1
0.58467	-1
0.58833	-2
0.59200	-1
0.59567	-1
0.59933	-1
0.60300	-1
0.60667	-1
0.61033	-2
0.61400	-2
0.61767	-2
0.62133	-2
0.62500	-2
0.62867	-2
0.63233	-2
0.63600	-3
0.63967	-3
0.64333	-3
0.64700	-3
0.65067	-3
0.65433	-4
0.65800	-4
0.66167	-4
0.66533	-4
0.66900	-4
0.67267	-4
0.67633	-4
0.68000	-5
0.68367	-5
0.68733	-5
0.69100	-6
0.69467	-6
0.69833	-6
0.70200	-7
0.70567	-7
0.70933	-7
0.71300	-7
0.71667	-7
0.72033	-7
0.72400	-7
0.72767	-7
0.73133	-6
0.73500	-6
0.73867	-5
0.74233	-5
0.74600	-4
0.74967	-4
0.75333	-3
0.75700	-3
0.76067	-3
0.76433	-2
0.76800	-2
0.77167	-1
0.77533	-1
0.77900	-1
0.78267	-0
0.78633	-0
0.79000	-0
0.79367	-0
0.79733	-0
0.80100	-0
0.80467	-0
0.80833	-0
0.81200	-0
0.81567	0
0.81933	-0
0.82300	-0
0.82667	-0
0.83033	-0
0.83400	-0
0.83767	-0
0.84133	-0
0.84500	-0
0.84867	-0
0.85233	-1
0.85600	-1
0.85967	-1
0.86333	-1
0.86700	-2
0.87067	-2
0.87433	-2
0.87800	-2
0.88167	-2
0.88533	-2
0.88900	-2
0.89267	-2
0.89633	-2
0.90000	-2
0.90367	-2
0.90733	-3
0.91100	-3
0.91467	-3
0.91833	-3
0.92200	-3
0.92567	-3
0.92933	-3
0.93300	-3
0.93667	-3
0.94033	-3
0.94400	-3
0.94767	-3
0.95133	-2
0.95500	-2
0.95867	-2
0.96233	-2
0.96600	-2
0.96967	-2
0.97333	-2
0.97700	-2
0.98067	-2
0.98433	-2
0.98800	-2
0.99167	-2
0.99533	-2
0.99900	-2
1.00267	-2
1.00633	-2
1.01000	-2
1.01367	-1
1.01733	-1
1.02100	-2
1.02467	-2
1.02833	-2
1.03200	-2
1.03567	-3
1.03933	-3
1.04300	-3
1.04667	-3
1.05033	-4
1.05400	-4
1.05767	-4
1.06133	-4
1.06500	-4
1.06867	-4
1.07233	-4
1.07600	-4
1.07967	-4
1.08333	-4
1.08700	-3
1.09067	-3
1.09433	-3
1.09800	-3
1.10167	-3
1.10533	-3
1.10900	-3
1.11267	-3
1.11633	-3
1.12000	-3
1.12367	-2
1.12733	-2
1.13100	-2
1.13467	-3
1.13833	-3
1.14200	-3
1.14567	-3
1.14933	-3
1.15300	-3
1.15667	-3
1.16033	-3
1.16400	-3
1.16767	-3
1.17133	-3
1.17500	-2
1.17867	-3
1.18233	-3
1.18600	-3
1.18967	-3
1.19333	-3
1.19700	-3
1.20067	-3
1.20433	-3
1.20800	-3
1.21167	-3
1.21533	-3
1.21900	-3
1.22267	-3
1.22633	-3
1.23000	-3
1.23367	-3
1.23733	-3
1.24100	-3
1.24467	-3
1.24833	-4
1.25200	-4
1.25567	-4
1.25933	-4
1.26300	-4
1.26667	-5
1.27033	-5
1.27400	-5
1.27767	-5
1.28133	-5
1.28500	-6
1.28867	-6
1.29233	-6
1.29600	-6
1.29967	-6
1.30333	-6
1.30700	-6
1.31067	-6
1.31433	-6
1.31800	-6
1.32167	-5
1.32533	-5
1.32900	-5
1.33267	-5
1.33633	-5
1.34000	-5
1.34367	-5
1.34733	-5
1.35100	-5
1.35467	-5
1.35833	-5
1.36200	-5
1.36567	-5
1.36933	-4
1.37300	-4
1.37667	-4
1.38033	-3
1.38400	-3
1.38767	-3
1.39133	-4
1.39500	-4
1.39867	-4
1.40233	-4
1.40600	-4
1.40967	-5
1.41333	-5
1.41700	-4
1.42067	-4
1.42433	-4
1.42800	-4
1.43167	-4
1.43533	-4
1.43900	-4
1.44267	-4
1.44633	-4
1.45000	-4
1.45367	-4
1.45733	-4
1.46100	-4
1.46467	-4
1.46833	-4
1.47200	-5
1.47567	-5
1.47933	-5
1.48300	-5
1.48667	-5
1.49033	-5
1.49400	-5
1.49767	-5
1.50133	-5
1.50500	-5
1.50867	-6
1.51233	-6
1.51600	-6
1.51967	-6
1.52333	-6
1.52700	-7
1.53067	-7
1.53433	-6
1.53800	-6
1.54167	-6
1.54533	-6
1.54900	-6
1.55267	-6
1.55633	-6
1.56000	-6
1.56367	-5
1.56733	-5
1.57100	-6
1.57467	-6
1.57833	-6
1.58200	-6
1.58567	-6
1.58933	-6
1.59300	-7
1.59667	-7
1.60033	-8
1.60400	-8
1.60767	-9
1.61133	-10
1.61500	-12
1.61867	-14
1.62233	-16
1.62600	-19
1.62967	-22
1.63333	-24
1.63700	-28
1.64067	-31
1.64433	-34
1.64800	-37
1.65167	-41
1.65533	-44
1.65900	-48
1.66267	-52
1.66633	-56
1.67000	-60
1.67367	-65
1.67733	-70
1.68100	-76
1.68467	-81
1.68833	-86
1.69200	-90
1.69567	-94
1.69933	-98
1.70300	-101
1.70667	-103
1.71033	-105
1.71400	-106
1.71767	-107
1.72133	-108
1.72500	-110
1.72867	-110
1.73233	-112
1.73600	-112
1.73967	-113
1.74333	-114
1.74700	-115
1.75067	-116
1.75433	-116
1.75800	-117
1.76167	-118
1.76533	-119
1.76900	-119
1.77267	-119
1.77633	-119
1.78000	-119
1.78367	-119
1.78733	-118
1.79100	-119
1.79467	-119
1.79833	-119
1.80200	-120
1.80567	-121
1.80933	-121
1.81300	-122
1.81667	-122
1.82033	-122
1.82400	-122
1.82767	-122
1.83133	-122
1.83500	-122
1.83867	-122
1.84233	-122
1.84600	-123
1.84967	-123
1.85333	-123
1.85700	-123
1.86067	-122
1.86433	-122
1.86800	-122
1.87167	-122
1.87533	-121
1.87900	-122
1.88267	-122
1.88633	-122
1.89000	-122
1.89367	-123
1.89733	-123
1.90100	-123
1.90467	-123
1.90833	-123
1.91200	-123
1.91567	-122
1.91933	-122
1.92300	-121
1.92667	-121
1.93033	-120
1.93400	-120
1.93767	-120
1.94133	-119
1.94500	-119
1.94867	-119
1.95233	-119
1.95600	-119
1.95967	-119
1.96333	-120
1.96700	-120
1.97067	-120
1.97433	-120
1.97800	-120
1.98167	-119
1.98533	-119
1.98900	-118
1.99267	-118
1.99633	-117
2.00000	-116
2.00367	-116
2.00733	-116
2.01100	-115
2.01467	-115
2.01833	-114
2.02200	-113
2.02567	-113
2.02933	-112
2.03300	-111
2.03667	-111
2.04033	-111
2.04400	-110
2.04767	-110
2.05133	-110
2.05500	-110
2.05867	-109
2.06233	-109
2.06600	-108
2.06967	-108
2.07333	-107
2.07700	-107
2.08067	-106
2.08433	-106
2.08800	-106
2.09167	-106
2.09533	-106
2.09900	-106
2.10267	-106
2.10633	-106
2.11000	-106
2.11367	-106
2.11733	-105
2.12100	-105
2.12467	-104
2.12833	-104
2.13200	-104
2.13567	-103
2.13933	-103
2.14300	-103
2.14667	-102
2.15033	-102
2.15400	-102
2.15767	-102
2.16133	-102
2.16500	-101
2.16867	-101
2.17233	-100
2.17600	-100
2.17967	-100
2.18333	-99
2.18700	-99
2.19067	-99
2.19433	-98
2.19800	-98
2.20167	-98
2.20533	-97
2.20900	-97
2.21267	-97
2.21633	-97
2.22000	-97
2.22367	-96
2.22733	-96
2.23100	-96
2.23467	-95
2.23833	-95
2.24200	-94
2.24567	-94
2.24933	-94
2.25300	-94
2.25667	-94
2.26033	-94
2.26400	-93
2.26767	-93
2.27133	-93
2.27500	-93
2.27867	-93
2.28233	-92
2.28600	-92
2.28967	-91
2.29333	-90
2.29700	-90
2.30067	-90
2.30433	-89
2.30800	-89
2.31167	-89
2.31533	-89
2.31900	-89
2.32267	-88
2.32633	-88
2.33000	-87
2.33367	-87
2.33733	-86
2.34100	-85
2.34467	-85
2.34833	-84
2.35200	-84
2.35567	-84
2.35933	-85
2.36300	-84
2.36667	-84
2.37033	-82
2.37400	-81
2.37767	-78
2.38133	-75
2.38500	-71
2.38867	-66
2.39233	-62
2.39600	-57
2.39967	-52
2.40333	-47
2.40700	-43
2.41067	-38
2.41433	-33
2.41800	-29
2.42167	-24
2.42533	-21
2.42900	-18
2.43267	-16
2.43633	-14
2.44000	-12
2.44367	-10
2.44733	-8
2.45100	-7
2.45467	-5
2.45833	-4
2.46200	-3
2.46567	-2
2.46933	-1
2.47300	-0
2.47667	1
2.48033	2
2.48400	3
2.48767	4
2.49133	4
2.49500	5
2.49867	5
2.50233	6
2.50600	6
2.50967	7
2.51333	8
2.51700	9
2.52067	9
2.52433	10
2.52800	10
2.53167	11
2.53533	11
2.53900	11
2.54267	11
2.54633	11
2.55000	12
2.55367	12
2.55733	13
2.56100	14
2.56467	14
2.56833	15
2.57200	15
2.57567	15
2.57933	15
2.58300	15
2.58667	14
2.59033	14
2.59400	13
2.59767	13
2.60133	13
2.60500	14
2.60867	15
2.61233	15
2.61600	17
2.61967	18
2.62333	18
2.62700	19
2.63067	19
2.63433	19
2.63800	19
2.64167	19
2.64533	19
2.64900	19
2.65267	19
2.65633	19
2.66000	20
2.66367	20
2.66733	21
2.67100	22
2.67467	22
2.67833	22
2.68200	22
2.68567	22
2.68933	21
2.69300	21
2.69667	20
2.70033	20
2.70400	20
2.70767	20
2.71133	20
2.71500	21
2.71867	21
2.72233	22
2.72600	22
2.72967	22
2.73333	23
2.73700	23
2.74067	23
2.74433	23
2.74800	22
2.75167	22
2.75533	21
2.75900	21
2.76267	20
2.76633	20
2.77000	19
2.77367	19
2.77733	19
2.78100	19
2.78467	19
2.78833	19
2.79200	19
2.79567	19
2.79933	20
2.80300	20
2.80667	20
2.81033	20
2.81400	21
2.81767	21
2.82133	21
2.82500	21
2.82867	22
2.83233	22
2.83600	22
2.83967	22
2.84333	23
2.84700	23
2.85067	23
2.85433	23
2.85800	23
2.86167	23
2.86533	23
2.86900	23
2.87267	23
2.87633	23
2.88000	23
2.88367	22
2.88733	20
2.89100	18
2.89467	15
2.89833	11
2.90200	6
2.90567	-0
2.90933	-6
2.91300	-12
2.91667	-18
2.92033	-22
2.92400	-26
2.92767	-28
2.93133	-30
2.93500	-29
2.93867	-28
2.94233	-26
2.94600	-24
2.94967	-21
2.95333	-17
2.95700	-13
2.96067	-10
2.96433	-6
2.96800	-3
2.97167	0
2.97533	3
2.97900	5
2.98267	8
2.98633	9
2.99000	11
2.99367	13
2.99733	14
3.00100	15
3.00467	16
3.00833	17
3.01200	18
3.01567	19
3.01933	19
3.02300	20
3.02667	20
3.03033	21
3.03400	21
3.03767	21
3.04133	21
3.04500	22
3.04867	22
3.05233	22
3.05600	22
3.05967	22
3.06333	22
3.06700	22
3.07067	22
3.07433	22
3.07800	22
3.08167	22
3.08533	22
3.08900	22
3.09267	22
3.09633	22
3.10000	22
3.10367	22
3.10733	22
3.11100	22
3.11467	22
3.11833	22
3.12200	22
3.12567	22
3.12933	22
3.13300	22
3.13667	22
3.14033	22
3.14400	22
3.14767	22
3.15133	22
3.15500	23
3.15867	23
3.16233	23
3.16600	23
3.16967	23
3.17333	23
3.17700	23
3.18067	23
3.18433	23
3.18800	23
3.19167	23
3.19533	23
3.19900	23
3.20267	23
3.20633	23
3.21000	23
3.21367	23
3.21733	23
3.22100	23
3.22467	23
3.22833	23
3.23200	23
3.23567	23
3.23933	23
3.24300	23
3.24667	23
3.25033	24
3.25400	24
3.25767	24
3.26133	24
3.26500	25
3.26867	25
3.27233	25
3.27600	25
3.27967	25
3.28333	26
3.28700	27
3.29067	27
3.29433	27
3.29800	28
3.30167	28
3.30533	28
3.30900	29
3.31267	29
3.31633	29
3.32000	30
3.32367	30
3.32733	30
3.33100	30
3.33467	30
3.33833	30
3.34200	30
3.34567	30
3.34933	29
3.35300	29
3.35667	29
3.36033	29
3.36400	29
3.36767	29
3.37133	28
3.37500	28
3.37867	28
3.38233	28
3.38600	28
3.38967	28
3.39333	27
3.39700	27
3.40067	27
3.40433	27
3.40800	27
3.41167	27
3.41533	27
3.41900	27
3.42267	27
3.42633	27
3.43000	27
3.43367	26
3.43733	26
3.44100	26
3.44467	26
3.44833	25
3.45200	25
3.45567	25
3.45933	25
3.46300	25
3.46667	25
3.47033	25
3.47400	25
3.47767	25
3.48133	25
3.48500	25
3.48867	25
3.49233	25
3.49600	25
3.49967	25
3.50333	25
3.50700	24
3.51067	24
3.51433	24
3.51800	24
3.52167	24
3.52533	24
3.52900	24
3.53267	24
3.53633	24
3.54000	24
3.54367	23
3.54733	23
3.55100	23
3.55467	23
3.55833	23
3.56200	23
3.56567	23
3.56933	23
3.57300	23
3.57667	22
3.58033	22
3.58400	22
3.58767	22
3.59133	22
3.59500	22
3.59867	23
3.60233	23
3.60600	23
3.60967	23
3.61333	24
3.61700	24
3.62067	24
3.62433	24
3.62800	24
3.63167	24
3.63533	25
3.63900	25
3.64267	25
3.64633	25
3.65000	25
3.65367	26
3.65733	26
3.66100	26
3.66467	26
3.66833	26
3.67200	26
3.67567	25
3.67933	25
3.68300	25
3.68667	25
3.69033	25
3.69400	26
3.69767	26
3.70133	26
3.70500	26
3.70867	26
3.71233	26
3.71600	26
3.71967	26
3.72333	26
3.72700	26
3.73067	26
3.73433	26
3.73800	25
3.74167	25
3.74533	25
3.74900	25
3.75267	25
3.75633	25
3.76000	25
3.76367	25
3.76733	25
3.77100	25
3.77467	25
3.77833	25
3.78200	24
3.78567	24
3.78933	24
3.79300	24
3.79667	24
3.80033	24
3.80400	24
3.80767	24
3.81133	24
3.81500	24
3.81867	24
3.82233	23
3.82600	23
3.82967	23
3.83333	23
3.83700	23
3.84067	23
3.84433	24
3.84800	24
3.85167	24
3.85533	24
3.85900	24
3.86267	24
3.86633	24
3.87000	24
3.87367	24
3.87733	24
3.88100	24
3.88467	24
3.88833	24
3.89200	25
3.89567	25
3.89933	25
3.90300	25
3.90667	26
3.91033	26
3.91400	26
3.91767	26
3.92133	26
3.92500	26
3.92867	26
3.93233	26
3.93600	26
3.93967	26
3.94333	26
3.94700	26
3.95067	26
3.95433	26
3.95800	26
3.96167	26
3.96533	26
3.96900	26
3.97267	26
3.97633	26
3.98000	26
3.98367	26
3.98733	26
3.99100	26
3.99467	25
3.99833	25

[Chromatogram (Ch3)]
Interval(msec)	220
# of Points	1091
Start Time(min)	0.002
End Time(min)	3.998
R.Time (min)	Intensity
0.00167	-0
0.00533	-1
0.00900	-1
0.01267	-3
0.01633	-4
0.02000	-3
0.02367	-2
0.02733	-2
0.03100	-2
0.03467	-2
0.03833	-1
0.04200	1
0.04567	4
0.04933	6
0.05300	7
0.05667	5
0.06033	5
0.06400	6
0.06767	4
0.07133	3
0.07500	3
0.07867	4
0.08233	2
0.08600	1
0.08967	1
0.09333	2
0.09700	3
0.10067	2
0.10433	2
0.10800	1
0.11167	-2
0.11533	-2
0.11900	-3
0.12267	-3
0.12633	-1
0.13000	-1
0.13367	-2
0.13733	-2
0.14100	-3
0.14467	-5
0.14833	-5
0.15200	-6
0.15567	-9
0.15933	-9
0.16300	-7
0.16667	-5
0.17033	-4
0.17400	-3
0.17767	-4
0.18133	-4
0.18500	-4
0.18867	-3
0.19233	-3
0.19600	-6
0.19967	-7
0.20333	-6
0.20700	-5
0.21067	-5
0.21433	-7
0.21800	-8
0.22167	-9
0.22533	-7
0.22900	-3
0.23267	-2
0.23633	-1
0.24000	-1
0.24367	-1
0.24733	-0
0.25100	-1
0.25467	-1
0.25833	-1
0.26200	-3
0.26567	-3
0.26933	-5
0.27300	-5
0.27667	-5
0.28033	-4
0.28400	-4
0.28767	-4
0.29133	-1
0.29500	-1
0.29867	-1
0.30233	-4
0.30600	-6
0.30967	-5
0.31333	-5
0.31700	-4
0.32067	-2
0.32433	-1
0.32800	-0
0.33167	0
0.33533	-0
0.33900	-0
0.34267	-0
0.34633	1
0.35000	-1
0.35367	-5
0.35733	-12
0.36100	-13
0.36467	-11
0.36833	-11
0.37200	-9
0.37567	-8
0.37933	-12
0.38300	-11
0.38667	-12
0.39033	-12
0.39400	-10
0.39767	-8
0.40133	-10
0.40500	-10
0.40867	-9
0.41233	-7
0.41600	-5
0.41967	-3
0.42333	-4
0.42700	-5
0.43067	-4
0.43433	-4
0.43800	-5
0.44167	-5
0.44533	-3
0.44900	-3
0.45267	-1
0.45633	-2
0.46000	-5
0.46367	-6
0.46733	-6
0.47100	-6
0.47467	-7
0.47833	-7
0.48200	-7
0.48567	-7
0.48933	-6
0.49300	-6
0.49667	-4
0.50033	-3
0.50400	-4
0.50767	-3
0.51133	-5
0.51500	-6
0.51867	-7
0.52233	-6
0.52600	-2
0.52967	2
0.53333	3
0.53700	2
0.54067	-2
0.54433	-3
0.54800	-4
0.55167	-7
0.55533	-9
0.55900	-7
0.56267	-5
0.56633	-2
0.57000	-2
0.57367	-4
0.57733	-3
0.58100	-3
0.58467	-3
0.58833	-1
0.59200	-0
0.59567	-3
0.59933	-6
0.60300	-7
0.60667	-7
0.61033	-6
0.61400	-5
0.61767	-5
0.62133	-5
0.62500	-5
0.62867	-5
0.63233	-5
0.63600	-8
0.63967	-9
0.64333	-7
0.64700	-6
0.65067	-7
0.65433	-7
0.65800	-6
0.66167	-5
0.66533	-4
0.66900	-5
0.67267	-5
0.67633	-6
0.68000	-7
0.68367	-7
0.68733	-7
0.69100	-6
0.69467	-6
0.69833	-7
0.70200	-4
0.70567	-3
0.70933	-3
0.71300	-1
0.71667	-1
0.72033	-2
0.72400	-1
0.72767	-1
0.73133	-1
0.73500	1
0.73867	2
0.74233	2
0.74600	-1
0.74967	-3
0.75333	-3
0.75700	-4
0.76067	-6
0.76433	-8
0.76800	-6
0.77167	-6
0.77533	-5
0.77900	-5
0.78267	-6
0.78633	-7
0.79000	-7
0.79367	-5
0.79733	-3
0.80100	-3
0.80467	-3
0.80833	-3
0.81200	-2
0.81567	-3
0.81933	-3
0.82300	-4
0.82667	-3
0.83033	-3
0.83400	-5
0.83767	-5
0.84133	-5
0.84500	-5
0.84867	-5
0.85233	-6
0.85600	-8
0.85967	-9
0.86333	-9
0.86700	-9
0.87067	-7
0.87433	-5
0.87800	-5
0.88167	-5
0.88533	-8
0.88900	-10
0.89267	-12
0.89633	-11
0.90000	-7
0.90367	-6
0.90733	-5
0.91100	-4
0.91467	-3
0.91833	-4
0.92200	-4
0.92567	-4
0.92933	-5
0.93300	-5
0.93667	-5
0.94033	-3
0.94400	-4
0.94767	-5
0.95133	-7
0.95500	-8
0.95867	-8
0.96233	-8
0.96600	-7
0.96967	-8
0.97333	-7
0.97700	-5
0.98067	-3
0.98433	-5
0.98800	-7
0.99167	-6
0.99533	-5
0.99900	-5
1.00267	-4
1.00633	-3
1.01000	-5
1.01367	-6
1.01733	-7
1.02100	-6
1.02467	-3
1.02833	-3
1.03200	-1
1.03567	2
1.03933	2
1.04300	-1
1.04667	-4
1.05033	-5
1.05400	-6
1.05767	-6
1.06133	-6
1.06500	-5
1.06867	-6
1.07233	-6
1.07600	-5
1.07967	-5
1.08333	-6
1.08700	-7
1.09067	-6
1.09433	-6
1.09800	-7
1.10167	-7
1.10533	-8
1.10900	-7
1.11267	-8
1.11633	-9
1.12000	-8
1.12367	-7
1.12733	-6
1.13100	-5
1.13467	-4
1.13833	-5
1.14200	-5
1.14567	-6
1.14933	-7
1.15300	-8
1.15667	-8
1.16033	-7
1.16400	-7
1.16767	-9
1.17133	-12
1.17500	-11
1.17867	-7
1.18233	-5
1.18600	-4
1.18967	-3
1.19333	0
1.19700	1
1.20067	0
1.20433	-1
1.20800	-3
1.21167	-4
1.21533	-5
1.21900	-7
1.22267	-8
1.22633	-8
1.23000	-9
1.23367	-11
1.23733	-13
1.24100	-11
1.24467	-6
1.24833	-5
1.25200	-3
1.25567	-2
1.25933	-1
1.26300	-4
1.26667	-6
1.27033	-7
1.27400	-8
1.27767	-10
1.28133	-9
1.28500	-9
1.28867	-8
1.29233	-8
1.29600	-10
1.29967	-10
1.30333	-9
1.30700	-7
1.31067	-5
1.31433	-5
1.31800	-5
1.32167	-6
1.32533	-8
1.32900	-8
1.33267	-8
1.33633	-9
1.34000	-11
1.34367	-10
1.34733	-8
1.35100	-9
1.35467	-10
1.35833	-11
1.36200	-9
1.36567	-9
1.36933	-10
1.37300	-9
1.37667	-10
1.38033	-9
1.38400	-7
1.38767	-5
1.39133	-5
1.39500	-3
1.39867	-0
1.40233	-1
1.40600	-4
1.40967	-8
1.41333	-10
1.41700	-10
1.42067	-8
1.42433	-6
1.42800	-6
1.43167	-8
1.43533	-9
1.43900	-12
1.44267	-13
1.44633	-11
1.45000	-10
1.45367	-12
1.45733	-10
1.46100	-8
1.46467	-7
1.46833	-8
1.47200	-10
1.47567	-11
1.47933	-13
1.48300	-14
1.48667	-15
1.49033	-15
1.49400	-15
1.49767	-15
1.50133	-15
1.50500	-15
1.50867	-14
1.51233	-13
1.51600	-12
1.51967	-11
1.52333	-13
1.52700	-15
1.53067	-13
1.53433	-12
1.53800	-11
1.54167	-8
1.54533	-6
1.54900	-7
1.55267	-9
1.55633	-10
1.56000	-10
1.56367	-11
1.56733	-12
1.57100	-13
1.57467	-15
1.57833	-17
1.58200	-17
1.58567	-16
1.58933	-16
1.59300	-15
1.59667	-13
1.60033	-11
1.60400	-9
1.60767	-8
1.61133	-8
1.61500	-11
1.61867	-13
1.62233	-13
1.62600	-12
1.62967	-11
1.63333	-10
1.63700	-9
1.64067	-7
1.64433	-5
1.64800	-3
1.65167	-2
1.65533	-2
1.65900	-3
1.66267	-6
1.66633	-7
1.67000	-9
1.67367	-8
1.67733	-8
1.68100	-7
1.68467	-6
1.68833	-5
1.69200	-1
1.69567	-0
1.69933	-3
1.70300	-3
1.70667	-2
1.71033	-3
1.71400	-3
1.71767	-3
1.72133	-3
1.72500	-3
1.72867	-1
1.73233	1
1.73600	4
1.73967	3
1.74333	0
1.74700	-0
1.75067	0
1.75433	1
1.75800	1
1.76167	2
1.76533	2
1.76900	2
1.77267	4
1.77633	5
1.78000	5
1.78367	4
1.78733	3
1.79100	2
1.79467	2
1.79833	3
1.80200	6
1.80567	9
1.80933	9
1.81300	8
1.81667	5
1.82033	5
1.82400	8
1.82767	10
1.83133	11
1.83500	11
1.83867	11
1.84233	12
1.84600	12
1.84967	10
1.85333	11
1.85700	14
1.86067	15
1.86433	14
1.86800	14
1.87167	14
1.87533	14
1.87900	15
1.88267	17
1.88633	17
1.89000	17
1.89367	16
1.89733	15
1.90100	17
1.90467	17
1.90833	17
1.91200	18
1.91567	21
1.91933	24
1.92300	26
1.92667	25
1.93033	22
1.93400	21
1.93767	20
1.94133	22
1.94500	24
1.94867	25
1.95233	26
1.95600	28
1.95967	31
1.96333	33
1.96700	34
1.97067	34
1.97433	32
1.97800	31
1.98167	32
1.98533	32
1.98900	32
1.99267	34
1.99633	36
2.00000	36
2.00367	35
2.00733	36
2.01100	38
2.01467	38
2.01833	39
2.02200	38
2.02567	37
2.02933	39
2.03300	40
2.03667	42
2.04033	44
2.04400	47
2.04767	52
2.05133	54
2.05500	55
2.05867	55
2.06233	55
2.06600	56
2.06967	58
2.07333	59
2.07700	60
2.08067	60
2.08433	59
2.08800	60
2.09167	61
2.09533	62
2.09900	65
2.10267	70
2.10633	72
2.11000	72
2.11367	71
2.11733	71
2.12100	72
2.12467	71
2.12833	69
2.13200	68
2.13567	68
2.13933	70
2.14300	72
2.14667	73
2.15033	74
2.15400	72
2.15767	73
2.16133	77
2.16500	79
2.16867	79
2.17233	79
2.17600	79
2.17967	79
2.18333	78
2.18700	78
2.19067	80
2.19433	82
2.19800	83
2.20167	83
2.20533	83
2.20900	86
2.21267	88
2.21633	91
2.22000	93
2.22367	91
2.22733	91
2.23100	90
2.23467	91
2.23833	93
2.24200	96
2.24567	96
2.24933	98
2.25300	98
2.25667	95
2.26033	93
2.26400	95
2.26767	96
2.27133	96
2.27500	98
2.27867	102
2.28233	106
2.28600	107
2.28967	108
2.29333	112
2.29700	114
2.30067	115
2.30433	116
2.30800	116
2.31167	117
2.31533	119
2.31900	121
2.32267	120
2.32633	121
2.33000	124
2.33367	126
2.33733	124
2.34100	126
2.34467	128
2.34833	127
2.35200	124
2.35567	124
2.35933	126
2.36300	127
2.36667	129
2.37033	131
2.37400	132
2.37767	134
2.38133	137
2.38500	138
2.38867	138
2.39233	138
2.39600	137
2.39967	137
2.40333	138
2.40700	139
2.41067	140
2.41433	140
2.41800	139
2.42167	141
2.42533	143
2.42900	146
2.43267	149
2.43633	147
2.44000	146
2.44367	152
2.44733	169
2.45100	188
2.45467	202
2.45833	211
2.46200	212
2.46567	213
2.46933	216
2.47300	223
2.47667	230
2.48033	237
2.48400	243
2.48767	248
2.49133	254
2.49500	262
2.49867	270
2.50233	280
2.50600	290
2.50967	300
2.51333	311
2.51700	320
2.52067	327
2.52433	332
2.52800	338
2.53167	344
2.53533	349
2.53900	353
2.54267	356
2.54633	360
2.55000	365
2.55367	370
2.55733	377
2.56100	382
2.56467	387
2.56833	391
2.57200	396
2.57567	401
2.57933	407
2.58300	410
2.58667	412
2.59033	415
2.59400	420
2.59767	423
2.60133	424
2.60500	426
2.60867	431
2.61233	433
2.61600	437
2.61967	440
2.62333	440
2.62700	439
2.63067	436
2.63433	432
2.63800	427
2.64167	422
2.64533	418
2.64900	414
2.65267	412
2.65633	411
2.66000	407
2.66367	403
2.66733	403
2.67100	406
2.67467	407
2.67833	411
2.68200	415
2.68567	417
2.68933	418
2.69300	418
2.69667	416
2.70033	414
2.70400	412
2.70767	414
2.71133	417
2.71500	421
2.71867	421
2.72233	421
2.72600	420
2.72967	417
2.73333	415
2.73700	415
2.74067	415
2.74433	416
2.74800	417
2.75167	419
2.75533	417
2.75900	417
2.76267	415
2.76633	414
2.77000	412
2.77367	411
2.77733	411
2.78100	411
2.78467	413
2.78833	415
2.79200	415
2.79567	415
2.79933	413
2.80300	411
2.80667	412
2.81033	413
2.81400	413
2.81767	411
2.82133	410
2.82500	409
2.82867	408
2.83233	409
2.83600	407
2.83967	406
2.84333	407
2.84700	405
2.85067	404
2.85433	408
2.85800	416
2.86167	431
2.86533	455
2.86900	486
2.87267	524
2.87633	570
2.88000	615
2.88367	650
2.88733	674
2.89100	687
2.89467	687
2.89833	680
2.90200	664
2.90567	641
2.90933	617
2.91300	594
2.91667	571
2.92033	545
2.92400	521
2.92767	503
2.93133	483
2.93500	467
2.93867	454
2.94233	443
2.94600	435
2.94967	427
2.95333	418
2.95700	409
2.96067	402
2.96433	396
2.96800	392
2.97167	389
2.97533	387
2.97900	383
2.98267	380
2.98633	377
2.99000	374
2.99367	370
2.99733	367
3.00100	366
3.00467	366
3.00833	366
3.01200	365
3.01567	362
3.01933	360
3.02300	359
3.02667	358
3.03033	358
3.03400	358
3.03767	358
3.04133	357
3.04500	354
3.04867	352
3.05233	350
3.05600	350
3.05967	351
3.06333	352
3.06700	351
3.07067	348
3.07433	346
3.07800	345
3.08167	347
3.08533	349
3.08900	350
3.09267	348
3.09633	346
3.10000	346
3.10367	345
3.10733	345
3.11100	343
3.11467	341
3.11833	340
3.12200	337
3.12567	335
3.12933	335
3.13300	332
3.13667	330
3.14033	330
3.14400	332
3.14767	333
3.15133	334
3.15500	337
3.15867	338
3.16233	339
3.16600	337
3.16967	332
3.17333	330
3.17700	329
3.18067	330
3.18433	330
3.18800	329
3.19167	326
3.19533	323
3.19900	322
3.20267	322
3.20633	319
3.21000	317
3.21367	317
3.21733	316
3.22100	317
3.22467	316
3.22833	317
3.23200	317
3.23567	314
3.23933	313
3.24300	310
3.24667	307
3.25033	306
3.25400	304
3.25767	304
3.26133	303
3.26500	303
3.26867	304
3.27233	306
3.27600	305
3.27967	303
3.28333	301
3.28700	301
3.29067	301
3.29433	300
3.29800	300
3.30167	300
3.30533	298
3.30900	296
3.31267	295
3.31633	293
3.32000	291
3.32367	288
3.32733	286
3.33100	285
3.33467	283
3.33833	283
3.34200	284
3.34567	284
3.34933	283
3.35300	282
3.35667	281
3.36033	279
3.36400	278
3.36767	277
3.37133	276
3.37500	275
3.37867	273
3.38233	272
3.38600	271
3.38967	272
3.39333	272
3.39700	271
3.40067	267
3.40433	264
3.40800	261
3.41167	259
3.41533	256
3.41900	253
3.42267	251
3.42633	251
3.43000	253
3.43367	251
3.43733	250
3.44100	248
3.44467	247
3.44833	246
3.45200	244
3.45567	242
3.45933	241
3.46300	240
3.46667	237
3.47033	235
3.47400	233
3.47767	232
3.48133	233
3.48500	234
3.48867	234
3.49233	232
3.49600	231
3.49967	229
3.50333	226
3.50700	224
3.51067	223
3.51433	221
3.51800	220
3.52167	220
3.52533	221
3.52900	224
3.53267	224
3.53633	223
3.54000	222
3.54367	220
3.54733	217
3.55100	216
3.55467	214
3.55833	212
3.56200	210
3.56567	208
3.56933	206
3.57300	207
3.57667	210
3.58033	209
3.58400	207
3.58767	206
3.59133	205
3.59500	203
3.59867	201
3.60233	199
3.60600	195
3.60967	195
3.61333	196
3.61700	195
3.62067	193
3.62433	194
3.62800	196
3.63167	195
3.63533	194
3.63900	194
3.64267	193
3.64633	190
3.65000	189
3.65367	189
3.65733	190
3.66100	190
3.66467	189
3.66833	191
3.67200	193
3.67567	196
3.67933	197
3.68300	195
3.68667	192
3.69033	191
3.69400	189
3.69767	188
3.70133	187
3.70500	186
3.70867	185
3.71233	182
3.71600	181
3.71967	181
3.72333	181
3.72700	180
3.73067	176
3.73433	174
3.73800	172
3.74167	169
3.74533	166
3.74900	162
3.75267	160
3.75633	161
3.76000	162
3.76367	164
3.76733	164
3.77100	162
3.77467	160
3.77833	159
3.78200	161
3.78567	162
3.78933	163
3.79300	164
3.79667	163
3.80033	162
3.80400	162
3.80767	160
3.81133	158
3.81500	158
3.81867	159
3.82233	157
3.82600	155
3.82967	152
3.83333	151
3.83700	152
3.84067	153
3.84433	154
3.84800	155
3.85167	155
3.85533	153
3.85900	150
3.86267	148
3.86633	147
3.87000	149
3.87367	152
3.87733	153
3.88100	153
3.88467	152
3.88833	148
3.89200	144
3.89567	144
3.89933	146
3.90300	146
3.90667	147
3.91033	147
3.91400	147
3.91767	146
3.92133	146
3.92500	144
3.92867	140
3.93233	136
3.93600	133
3.93967	133
3.94333	136
3.94700	139
3.95067	138
3.95433	137
3.95800	136
3.96167	135
3.96533	135
3.96900	135
3.97267	136
3.97633	137
3.98000	136
3.98367	134
3.98733	132
3.99100	130
3.99467	131
3.99833	131

[Status Trace (Column Oven Temperature)]
Interval(msec)	1000
# of Points	239
Start Time(min)	0.015
End Time(min)	3.982
Intensity Units	
Intensity Multiplier	1
R.Time (min)	Intensity
0.01517	34.98
0.03183	34.99
0.04850	34.99
0.06517	35.00
0.08183	35.02
0.09850	35.02
0.11517	35.02
0.13183	35.02
0.14850	35.02
0.16517	35.01
0.18183	35.01
0.19850	35.01
0.21517	35.00
0.23183	35.00
0.24850	35.00
0.26517	35.00
0.28183	34.99
0.29850	34.98
0.31517	34.98
0.33183	34.97
0.34850	34.97
0.36517	34.98
0.38183	34.99
0.39850	34.99
0.41517	34.99
0.43183	34.99
0.44850	34.99
0.46517	34.98
0.48183	34.99
0.49850	34.99
0.51517	34.99
0.53183	34.98
0.54850	34.98
0.56517	34.97
0.58183	34.97
0.59850	34.96
0.61517	34.97
0.63183	34.98
0.64850	34.99
0.66517	35.01
0.68183	35.03
0.69850	35.04
0.71517	35.05
0.73183	35.05
0.74850	35.03
0.76517	35.01
0.78183	35.00
0.79850	34.99
0.81517	34.99
0.83183	34.98
0.84850	34.98
0.86517	34.99
0.88183	34.99
0.89850	34.98
0.91517	34.98
0.93183	34.98
0.94850	34.97
0.96517	34.96
0.98183	34.97
0.99850	34.97
1.01517	34.96
1.03183	34.98
1.04850	34.99
1.06517	34.99
1.08183	34.99
1.09850	34.99
1.11517	34.99
1.13183	34.99
1.14850	34.98
1.16517	34.97
1.18183	34.97
1.19850	34.97
1.21517	34.97
1.23183	34.97
1.24850	34.97
1.26517	34.97
1.28183	34.99
1.29850	34.98
1.31517	34.99
1.33183	35.00
1.34850	35.00
1.36517	34.99
1.38183	34.98
1.39850	34.98
1.41517	34.99
1.43183	34.98
1.44850	34.98
1.46517	34.99
1.48183	34.99
1.49850	35.00
1.51517	35.01
1.53183	35.00
1.54850	35.01
1.56517	35.01
1.58183	35.02
1.59850	35.04
1.61517	35.12
1.63183	35.27
1.64850	35.47
1.66517	35.75
1.68183	36.12
1.69850	36.48
1.71517	36.82
1.73183	37.16
1.74850	37.51
1.76517	37.83
1.78183	38.14
1.79850	38.50
1.81517	38.82
1.83183	39.15
1.84850	39.50
1.86517	39.81
1.88183	40.14
1.89850	40.49
1.91517	40.81
1.93183	41.14
1.94850	41.48
1.96517	41.81
1.98183	42.14
1.99850	42.47
2.01517	42.78
2.03183	43.10
2.04850	43.45
2.06517	43.76
2.08183	44.09
2.09850	44.42
2.11517	44.75
2.13183	45.07
2.14850	45.39
2.16517	45.70
2.18183	46.02
2.19850	46.35
2.21517	46.69
2.23183	47.01
2.24850	47.35
2.26517	47.66
2.28183	47.99
2.29850	48.31
2.31517	48.65
2.33183	48.97
2.34850	49.29
2.36517	49.59
2.38183	49.73
2.39850	49.76
2.41517	49.72
2.43183	49.74
2.44850	49.73
2.46517	49.75
2.48183	49.75
2.49850	49.77
2.51517	49.77
2.53183	49.79
2.54850	49.81
2.56517	49.80
2.58183	49.85
2.59850	49.86
2.61517	49.84
2.63183	49.85
2.64850	49.86
2.66517	49.84
2.68183	49.85
2.69850	49.86
2.71517	49.85
2.73183	49.84
2.74850	49.86
2.76517	49.89
2.78183	49.91
2.79850	49.92
2.81517	49.92
2.83183	49.92
2.84850	49.91
2.86517	49.91
2.88183	49.93
2.89850	49.95
2.91517	49.97
2.93183	49.98
2.94850	50.00
2.96517	50.00
2.98183	50.01
2.99850	50.02
3.01517	50.02
3.03183	50.03
3.04850	50.03
3.06517	50.04
3.08183	50.05
3.09850	50.05
3.11517	50.06
3.13183	50.07
3.14850	50.08
3.16517	50.09
3.18183	50.09
3.19850	50.10
3.21517	50.11
3.23183	50.12
3.24850	50.11
3.26517	50.10
3.28183	50.09
3.29850	50.07
3.31517	50.04
3.33183	50.02
3.34850	50.00
3.36517	49.99
3.38183	49.99
3.39850	49.99
3.41517	49.99
3.43183	50.00
3.44850	50.00
3.46517	50.01
3.48183	50.01
3.49850	50.01
3.51517	50.01
3.53183	50.02
3.54850	50.03
3.56517	50.05
3.58183	50.05
3.59850	50.05
3.61517	50.05
3.63183	50.05
3.64850	50.05
3.66517	50.04
3.68183	50.04
3.69850	50.04
3.71517	50.03
3.73183	50.03
3.74850	50.03
3.76517	50.03
3.78183	50.03
3.79850	50.04
3.81517	50.06
3.83183	50.07
3.84850	50.08
3.86517	50.08
3.88183	50.07
3.89850	50.07
3.91517	50.07
3.93183	50.07
3.94850	50.06
3.96517	50.06
3.98183	50.05

[Status Trace (Injection Unit Temperature)]
Interval(msec)	1000
# of Points	239
Start Time(min)	0.015
End Time(min)	3.982
Intensity Units	
Intensity Multiplier	1
R.Time (min)	Intensity
0.01517	99.99
0.03183	99.99
0.04850	99.99
0.06517	99.99
0.08183	99.99
0.09850	99.99
0.11517	99.98
0.13183	99.99
0.14850	99.99
0.16517	99.99
0.18183	99.99
0.19850	99.99
0.21517	99.99
0.23183	99.99
0.24850	99.98
0.26517	99.99
0.28183	99.99
0.29850	99.99
0.31517	99.99
0.33183	99.99
0.34850	99.99
0.36517	99.99
0.38183	99.99
0.39850	99.99
0.41517	99.99
0.43183	99.99
0.44850	99.99
0.46517	99.98
0.48183	99.99
0.49850	99.99
0.51517	99.99
0.53183	99.99
0.54850	99.99
0.56517	99.99
0.58183	99.99
0.59850	99.99
0.61517	99.99
0.63183	99.99
0.64850	99.99
0.66517	99.99
0.68183	99.99
0.69850	99.99
0.71517	100.00
0.73183	99.99
0.74850	99.99
0.76517	100.00
0.78183	99.99
0.79850	99.99
0.81517	99.99
0.83183	99.99
0.84850	99.99
0.86517	99.99
0.88183	99.99
0.89850	99.99
0.91517	99.99
0.93183	99.99
0.94850	99.99
0.96517	99.99
0.98183	99.99
0.99850	99.99
1.01517	99.99
1.03183	99.99
1.04850	99.99
1.06517	100.00
1.08183	100.00
1.09850	99.99
1.11517	99.99
1.13183	99.99
1.14850	99.99
1.16517	99.99
1.18183	100.00
1.19850	99.99
1.21517	99.99
1.23183	100.00
1.24850	100.00
1.26517	99.99
1.28183	99.99
1.29850	100.00
1.31517	100.00
1.33183	100.00
1.34850	100.00
1.36517	100.00
1.38183	99.99
1.39850	99.99
1.41517	99.99
1.43183	99.99
1.44850	100.00
1.46517	99.99
1.48183	99.99
1.49850	100.00
1.51517	99.99
1.53183	99.99
1.54850	99.99
1.56517	99.99
1.58183	99.99
1.59850	100.00
1.61517	99.99
1.63183	100.00
1.64850	99.99
1.66517	99.99
1.68183	99.99
1.69850	100.00
1.71517	99.99
1.73183	99.99
1.74850	99.99
1.76517	99.99
1.78183	99.99
1.79850	99.99
1.81517	99.99
1.83183	99.99
1.84850	99.99
1.86517	99.99
1.88183	99.99
1.89850	99.99
1.91517	99.98
1.93183	99.99
1.94850	99.98
1.96517	99.98
1.98183	99.99
1.99850	99.98
2.01517	99.98
2.03183	99.98
2.04850	99.98
2.06517	99.98
2.08183	99.98
2.09850	99.98
2.11517	99.98
2.13183	99.98
2.14850	99.98
2.16517	99.97
2.18183	99.97
2.19850	99.98
2.21517	99.98
2.23183	99.97
2.24850	99.98
2.26517	99.98
2.28183	99.97
2.29850	99.98
2.31517	99.97
2.33183	99.98
2.34850	99.98
2.36517	99.97
2.38183	99.97
2.39850	99.97
2.41517	99.98
2.43183	99.97
2.44850	99.98
2.46517	99.98
2.48183	99.98
2.49850	99.98
2.51517	99.98
2.53183	99.98
2.54850	99.98
2.56517	99.98
2.58183	99.98
2.59850	99.99
2.61517	99.98
2.63183	99.99
2.64850	99.99
2.66517	99.99
2.68183	99.98
2.69850	99.99
2.71517	99.99
2.73183	99.99
2.74850	99.99
2.76517	100.00
2.78183	99.99
2.79850	100.00
2.81517	99.99
2.83183	100.00
2.84850	100.00
2.86517	100.00
2.88183	100.00
2.89850	100.00
2.91517	100.01
2.93183	100.01
2.94850	100.01
2.96517	100.01
2.98183	100.01
2.99850	100.01
3.01517	100.02
3.03183	100.02
3.04850	100.02
3.06517	100.02
3.08183	100.02
3.09850	100.02
3.11517	100.02
3.13183	100.02
3.14850	100.03
3.16517	100.03
3.18183	100.02
3.19850	100.03
3.21517	100.03
3.23183	100.03
3.24850	100.03
3.26517	100.03
3.28183	100.03
3.29850	100.04
3.31517	100.04
3.33183	100.04
3.34850	100.04
3.36517	100.04
3.38183	100.04
3.39850	100.05
3.41517	100.04
3.43183	100.04
3.44850	100.04
3.46517	100.04
3.48183	100.04
3.49850	100.05
3.51517	100.05
3.53183	100.05
3.54850	100.04
3.56517	100.04
3.58183	100.04
3.59850	100.05
3.61517	100.05
3.63183	100.05
3.64850	100.05
3.66517	100.05
3.68183	100.05
3.69850	100.05
3.71517	100.05
3.73183	100.05
3.74850	100.05
3.76517	100.05
3.78183	100.05
3.79850	100.05
3.81517	100.05
3.83183	100.06
3.84850	100.05
3.86517	100.06
3.88183	100.05
3.89850	100.05
3.91517	100.06
3.93183	100.05
3.94850	100.05
3.96517	100.06
3.98183	100.06

[Status Trace (Carrier Gas Pressure)]
Interval(msec)	1000
# of Points	239
Start Time(min)	0.015
End Time(min)	3.982
Intensity Units	
Intensity Multiplier	1
R.Time (min)	Intensity
0.01517	57.08
0.03183	55.59
0.04850	58.05
0.06517	59.89
0.08183	58.66
0.09850	57.97
0.11517	58.00
0.13183	58.01
0.14850	58.01
0.16517	58.00
0.18183	58.00
0.19850	58.00
0.21517	58.00
0.23183	58.00
0.24850	58.00
0.26517	58.00
0.28183	58.00
0.29850	58.00
0.31517	58.00
0.33183	58.00
0.34850	58.00
0.36517	58.00
0.38183	58.00
0.39850	58.00
0.41517	58.00
0.43183	58.00
0.44850	58.00
0.46517	58.00
0.48183	58.00
0.49850	58.00
0.51517	58.00
0.53183	58.00
0.54850	58.00
0.56517	58.00
0.58183	58.00
0.59850	58.00
0.61517	58.00
0.63183	58.00
0.64850	58.00
0.66517	58.00
0.68183	58.00
0.69850	58.00
0.71517	58.00
0.73183	58.00
0.74850	58.00
0.76517	58.00
0.78183	58.00
0.79850	58.00
0.81517	58.00
0.83183	58.00
0.84850	58.00
0.86517	58.00
0.88183	58.00
0.89850	58.00
0.91517	58.00
0.93183	58.00
0.94850	58.00
0.96517	58.00
0.98183	58.00
0.99850	58.00
1.01517	58.00
1.03183	58.00
1.04850	58.00
1.06517	58.00
1.08183	58.00
1.09850	58.00
1.11517	58.00
1.13183	58.00
1.14850	58.00
1.16517	58.00
1.18183	58.00
1.19850	58.00
1.21517	58.00
1.23183	58.00
1.24850	58.00
1.26517	58.00
1.28183	58.00
1.29850	58.00
1.31517	58.00
1.33183	58.00
1.34850	58.00
1.36517	58.00
1.38183	58.00
1.39850	58.00
1.41517	58.00
1.43183	58.00
1.44850	58.00
1.46517	58.00
1.48183	58.00
1.49850	58.00
1.51517	58.00
1.53183	58.00
1.54850	58.00
1.56517	58.00
1.58183	58.00
1.59850	58.00
1.61517	58.00
1.63183	58.00
1.64850	58.00
1.66517	58.00
1.68183	58.01
1.69850	58.00
1.71517	58.00
1.73183	58.00
1.74850	58.00
1.76517	58.00
1.78183	58.00
1.79850	58.00
1.81517	58.00
1.83183	58.00
1.84850	58.00
1.86517	58.00
1.88183	58.00
1.89850	58.00
1.91517	58.00
1.93183	58.00
1.94850	58.00
1.96517	58.00
1.98183	58.00
1.99850	58.00
2.01517	58.00
2.03183	58.00
2.04850	58.00
2.06517	58.00
2.08183	58.00
2.09850	58.00
2.11517	58.00
2.13183	58.00
2.14850	58.00
2.16517	58.00
2.18183	58.00
2.19850	58.00
2.21517	58.00
2.23183	58.00
2.24850	58.00
2.26517	58.00
2.28183	58.00
2.29850	58.00
2.31517	58.00
2.33183	58.00
2.34850	58.00
2.36517	58.00
2.38183	57.99
2.39850	57.99
2.41517	57.99
2.43183	58.00
2.44850	58.00
2.46517	58.00
2.48183	58.00
2.49850	58.00
2.51517	57.99
2.53183	57.99
2.54850	58.00
2.56517	58.00
2.58183	58.00
2.59850	58.00
2.61517	58.00
2.63183	58.00
2.64850	58.00
2.66517	58.00
2.68183	58.00
2.69850	58.00
2.71517	58.00
2.73183	58.00
2.74850	58.00
2.76517	58.00
2.78183	58.00
2.79850	58.00
2.81517	58.00
2.83183	58.00
2.84850	58.00
2.86517	58.00
2.88183	58.00
2.89850	58.00
2.91517	58.00
2.93183	58.00
2.94850	58.00
2.96517	58.00
2.98183	58.00
2.99850	58.00
3.01517	58.00
3.03183	58.00
3.04850	58.00
3.06517	58.00
3.08183	58.00
3.09850	58.00
3.11517	58.00
3.13183	58.00
3.14850	58.00
3.16517	58.00
3.18183	58.00
3.19850	58.00
3.21517	58.00
3.23183	58.00
3.24850	58.00
3.26517	58.00
3.28183	58.00
3.29850	58.00
3.31517	58.00
3.33183	58.00
3.34850	58.00
3.36517	58.00
3.38183	58.00
3.39850	58.00
3.41517	58.00
3.43183	58.00
3.44850	58.00
3.46517	58.00
3.48183	58.00
3.49850	58.00
3.51517	58.00
3.53183	58.00
3.54850	58.00
3.56517	58.00
3.58183	58.00
3.59850	58.00
3.61517	58.00
3.63183	58.00
3.64850	58.00
3.66517	58.00
3.68183	58.00
3.69850	58.00
3.71517	58.00
3.73183	58.00
3.74850	58.00
3.76517	58.00
3.78183	58.00
3.79850	58.00
3.81517	58.00
3.83183	58.00
3.84850	58.00
3.86517	58.00
3.88183	58.00
3.89850	58.00
3.91517	58.00
3.93183	58.00
3.94850	58.00
3.96517	58.00
3.98183	58.00

[Status Trace (Carrier Gas Flow)]
Interval(msec)	1000
# of Points	239
Start Time(min)	0.015
End Time(min)	3.982
Intensity Units	
Intensity Multiplier	1
R.Time (min)	Intensity
0.01517	33.88
0.03183	34.53
0.04850	34.55
0.06517	34.52
0.08183	34.50
0.09850	34.52
0.11517	34.52
0.13183	34.52
0.14850	34.52
0.16517	34.52
0.18183	34.52
0.19850	34.52
0.21517	34.52
0.23183	34.52
0.24850	34.52
0.26517	34.52
0.28183	34.52
0.29850	34.52
0.31517	34.52
0.33183	34.52
0.34850	34.52
0.36517	34.52
0.38183	34.52
0.39850	34.52
0.41517	34.52
0.43183	34.52
0.44850	34.52
0.46517	34.52
0.48183	34.52
0.49850	34.52
0.51517	34.52
0.53183	34.52
0.54850	34.52
0.56517	34.52
0.58183	34.52
0.59850	34.52
0.61517	34.52
0.63183	34.52
0.64850	34.52
0.66517	34.52
0.68183	34.52
0.69850	34.52
0.71517	34.52
0.73183	34.52
0.74850	34.52
0.76517	34.52
0.78183	34.52
0.79850	34.52
0.81517	34.52
0.83183	34.52
0.84850	34.52
0.86517	34.52
0.88183	34.52
0.89850	34.52
0.91517	34.52
0.93183	34.52
0.94850	34.52
0.96517	34.52
0.98183	34.52
0.99850	34.52
1.01517	34.52
1.03183	34.52
1.04850	34.52
1.06517	34.52
1.08183	34.52
1.09850	34.52
1.11517	34.52
1.13183	34.52
1.14850	34.52
1.16517	34.52
1.18183	34.52
1.19850	34.52
1.21517	34.52
1.23183	34.52
1.24850	34.52
1.26517	34.52
1.28183	34.52
1.29850	34.52
1.31517	34.52
1.33183	34.52
1.34850	34.52
1.36517	34.52
1.38183	34.52
1.39850	34.52
1.41517	34.52
1.43183	34.52
1.44850	34.52
1.46517	34.52
1.48183	34.52
1.49850	34.52
1.51517	34.52
1.53183	34.52
1.54850	34.52
1.56517	34.52
1.58183	34.52
1.59850	34.52
1.61517	34.52
1.63183	34.52
1.64850	34.52
1.66517	34.52
1.68183	34.52
1.69850	34.52
1.71517	34.52
1.73183	34.52
1.74850	34.53
1.76517	34.52
1.78183	34.52
1.79850	34.51
1.81517	34.52
1.83183	34.53
1.84850	34.51
1.86517	34.52
1.88183	34.52
1.89850	34.53
1.91517	34.52
1.93183	34.52
1.94850	34.52
1.96517	34.52
1.98183	34.52
1.99850	34.52
2.01517	34.52
2.03183	34.53
2.04850	34.53
2.06517	34.52
2.08183	34.52
2.09850	34.54
2.11517	34.52
2.13183	34.52
2.14850	34.52
2.16517	34.52
2.18183	34.52
2.19850	34.52
2.21517	34.51
2.23183	34.52
2.24850	34.52
2.26517	34.52
2.28183	34.51
2.29850	34.52
2.31517	34.52
2.33183	34.52
2.34850	34.52
2.36517	34.52
2.38183	34.52
2.39850	34.52
2.41517	34.52
2.43183	34.52
2.44850	34.53
2.46517	34.52
2.48183	34.52
2.49850	34.51
2.51517	34.52
2.53183	34.52
2.54850	34.52
2.56517	34.52
2.58183	34.52
2.59850	34.52
2.61517	34.52
2.63183	34.52
2.64850	34.52
2.66517	34.52
2.68183	34.52
2.69850	34.52
2.71517	34.52
2.73183	34.52
2.74850	34.52
2.76517	34.52
2.78183	34.52
2.79850	34.52
2.81517	34.52
2.83183	34.52
2.84850	34.52
2.86517	34.52
2.88183	34.52
2.89850	34.52
2.91517	34.52
2.93183	34.52
2.94850	34.52
2.96517	34.52
2.98183	34.52
2.99850	34.52
3.01517	34.52
3.03183	34.52
3.04850	34.52
3.06517	34.52
3.08183	34.52
3.09850	34.52
3.11517	34.52
3.13183	34.52
3.14850	34.52
3.16517	34.52
3.18183	34.52
3.19850	34.52
3.21517	34.52
3.23183	34.52
3.24850	34.52
3.26517	34.52
3.28183	34.52
3.29850	34.52
3.31517	34.52
3.33183	34.52
3.34850	34.52
3.36517	34.52
3.38183	34.52
3.39850	34.52
3.41517	34.52
3.43183	34.52
3.44850	34.52
3.46517	34.52
3.48183	34.52
3.49850	34.52
3.51517	34.52
3.53183	34.52
3.54850	34.51
3.56517	34.52
3.58183	34.52
3.59850	34.52
3.61517	34.52
3.63183	34.53
3.64850	34.51
3.66517	34.52
3.68183	34.51
3.69850	34.50
3.71517	34.51
3.73183	34.52
3.74850	34.52
3.76517	34.51
3.78183	34.52
3.79850	34.53
3.81517	34.51
3.83183	34.52
3.84850	34.50
3.86517	34.52
3.88183	34.51
3.89850	34.52
3.91517	34.51
3.93183	34.53
3.94850	34.52
3.96517	34.52
3.98183	34.52

[Status Trace (Column Flow)]
Interval(msec)	1000
# of Points	239
Start Time(min)	0.015
End Time(min)	3.982
Intensity Units	
Intensity Multiplier	1
R.Time (min)	Intensity
0.01517	5.35
0.03183	5.18
0.04850	5.46
0.06517	5.68
0.08183	5.53
0.09850	5.45
0.11517	5.46
0.13183	5.46
0.14850	5.46
0.16517	5.46
0.18183	5.46
0.19850	5.46
0.21517	5.46
0.23183	5.46
0.24850	5.46
0.26517	5.46
0.28183	5.46
0.29850	5.46
0.31517	5.46
0.33183	5.46
0.34850	5.46
0.36517	5.46
0.38183	5.46
0.39850	5.46
0.41517	5.46
0.43183	5.46
0.44850	5.46
0.46517	5.46
0.48183	5.46
0.49850	5.46
0.51517	5.46
0.53183	5.46
0.54850	5.46
0.56517	5.46
0.58183	5.46
0.59850	5.46
0.61517	5.46
0.63183	5.46
0.64850	5.46
0.66517	5.46
0.68183	5.46
0.69850	5.46
0.71517	5.46
0.73183	5.46
0.74850	5.46
0.76517	5.46
0.78183	5.46
0.79850	5.46
0.81517	5.46
0.83183	5.46
0.84850	5.46
0.86517	5.46
0.88183	5.46
0.89850	5.46
0.91517	5.46
0.93183	5.46
0.94850	5.46
0.96517	5.46
0.98183	5.46
0.99850	5.46
1.01517	5.46
1.03183	5.46
1.04850	5.46
1.06517	5.46
1.08183	5.46
1.09850	5.46
1.11517	5.46
1.13183	5.46
1.14850	5.46
1.16517	5.46
1.18183	5.46
1.19850	5.46
1.21517	5.46
1.23183	5.46
1.24850	5.46
1.26517	5.46
1.28183	5.46
1.29850	5.46
1.31517	5.46
1.33183	5.46
1.34850	5.46
1.36517	5.46
1.38183	5.46
1.39850	5.46
1.41517	5.46
1.43183	5.46
1.44850	5.46
1.46517	5.46
1.48183	5.46
1.49850	5.46
1.51517	5.46
1.53183	5.46
1.54850	5.46
1.56517	5.46
1.58183	5.46
1.59850	5.46
1.61517	5.45
1.63183	5.45
1.64850	5.44
1.66517	5.43
1.68183	5.42
1.69850	5.41
1.71517	5.40
1.73183	5.39
1.74850	5.38
1.76517	5.37
1.78183	5.36
1.79850	5.35
1.81517	5.34
1.83183	5.33
1.84850	5.32
1.86517	5.31
1.88183	5.30
1.89850	5.29
1.91517	5.28
1.93183	5.27
1.94850	5.26
1.96517	5.25
1.98183	5.24
1.99850	5.23
2.01517	5.22
2.03183	5.21
2.04850	5.20
2.06517	5.19
2.08183	5.19
2.09850	5.18
2.11517	5.17
2.13183	5.16
2.14850	5.15
2.16517	5.14
2.18183	5.13
2.19850	5.12
2.21517	5.11
2.23183	5.10
2.24850	5.09
2.26517	5.08
2.28183	5.08
2.29850	5.07
2.31517	5.06
2.33183	5.05
2.34850	5.04
2.36517	5.03
2.38183	5.03
2.39850	5.03
2.41517	5.03
2.43183	5.03
2.44850	5.03
2.46517	5.03
2.48183	5.03
2.49850	5.03
2.51517	5.02
2.53183	5.02
2.54850	5.02
2.56517	5.02
2.58183	5.02
2.59850	5.02
2.61517	5.02
2.63183	5.02
2.64850	5.02
2.66517	5.02
2.68183	5.02
2.69850	5.02
2.71517	5.02
2.73183	5.02
2.74850	5.02
2.76517	5.02
2.78183	5.02
2.79850	5.02
2.81517	5.02
2.83183	5.02
2.84850	5.02
2.86517	5.02
2.88183	5.02
2.89850	5.02
2.91517	5.02
2.93183	5.02
2.94850	5.02
2.96517	5.02
2.98183	5.02
2.99850	5.02
3.01517	5.02
3.03183	5.02
3.04850	5.02
3.06517	5.02
3.08183	5.02
3.09850	5.02
3.11517	5.02
3.13183	5.02
3.14850	5.02
3.16517	5.02
3.18183	5.02
3.19850	5.02
3.21517	5.02
3.23183	5.02
3.24850	5.02
3.26517	5.02
3.28183	5.02
3.29850	5.02
3.31517	5.02
3.33183	5.02
3.34850	5.02
3.36517	5.02
3.38183	5.02
3.39850	5.02
3.41517	5.02
3.43183	5.02
3.44850	5.02
3.46517	5.02
3.48183	5.02
3.49850	5.02
3.51517	5.02
3.53183	5.02
3.54850	5.02
3.56517	5.02
3.58183	5.02
3.59850	5.02
3.61517	5.02
3.63183	5.02
3.64850	5.02
3.66517	5.02
3.68183	5.02
3.69850	5.02
3.71517	5.02
3.73183	5.02
3.74850	5.02
3.76517	5.02
3.78183	5.02
3.79850	5.02
3.81517	5.02
3.83183	5.02
3.84850	5.02
3.86517	5.02
3.88183	5.02
3.89850	5.02
3.91517	5.02
3.93183	5.02
3.94850	5.02
3.96517	5.02
3.98183	5.02

[Status Trace (Linear Velocity)]
Interval(msec)	1000
# of Points	239
Start Time(min)	0.015
End Time(min)	3.982
Intensity Units	
Intensity Multiplier	1
R.Time (min)	Intensity
0.01517	38.40
0.03183	37.42
0.04850	39.03
0.06517	40.24
0.08183	39.43
0.09850	38.98
0.11517	39.00
0.13183	39.01
0.14850	39.00
0.16517	39.00
0.18183	39.00
0.19850	39.00
0.21517	39.00
0.23183	39.00
0.24850	39.00
0.26517	39.00
0.28183	39.00
0.29850	39.00
0.31517	39.00
0.33183	39.01
0.34850	39.00
0.36517	39.00
0.38183	39.00
0.39850	39.00
0.41517	39.00
0.43183	39.00
0.44850	39.00
0.46517	39.00
0.48183	39.00
0.49850	39.00
0.51517	39.00
0.53183	39.00
0.54850	39.00
0.56517	39.00
0.58183	39.00
0.59850	39.00
0.61517	39.00
0.63183	39.00
0.64850	39.00
0.66517	39.00
0.68183	39.00
0.69850	39.00
0.71517	39.00
0.73183	39.00
0.74850	39.00
0.76517	39.00
0.78183	39.00
0.79850	39.00
0.81517	39.00
0.83183	39.00
0.84850	39.00
0.86517	39.00
0.88183	39.00
0.89850	39.00
0.91517	39.00
0.93183	39.00
0.94850	39.00
0.96517	39.01
0.98183	39.00
0.99850	39.00
1.01517	39.00
1.03183	39.00
1.04850	39.00
1.06517	39.00
1.08183	39.00
1.09850	39.00
1.11517	39.00
1.13183	39.00
1.14850	39.00
1.16517	39.00
1.18183	39.00
1.19850	39.00
1.21517	39.00
1.23183	39.00
1.24850	39.00
1.26517	39.00
1.28183	39.00
1.29850	39.00
1.31517	39.00
1.33183	39.00
1.34850	39.00
1.36517	39.00
1.38183	39.00
1.39850	39.00
1.41517	39.00
1.43183	39.00
1.44850	39.00
1.46517	39.00
1.48183	39.00
1.49850	39.00
1.51517	39.00
1.53183	39.00
1.54850	39.00
1.56517	39.00
1.58183	39.00
1.59850	39.00
1.61517	38.99
1.63183	38.98
1.64850	38.96
1.66517	38.93
1.68183	38.90
1.69850	38.86
1.71517	38.83
1.73183	38.80
1.74850	38.77
1.76517	38.73
1.78183	38.70
1.79850	38.67
1.81517	38.64
1.83183	38.61
1.84850	38.58
1.86517	38.54
1.88183	38.52
1.89850	38.48
1.91517	38.45
1.93183	38.42
1.94850	38.39
1.96517	38.36
1.98183	38.33
1.99850	38.30
2.01517	38.27
2.03183	38.24
2.04850	38.21
2.06517	38.18
2.08183	38.15
2.09850	38.12
2.11517	38.09
2.13183	38.06
2.14850	38.03
2.16517	38.00
2.18183	37.98
2.19850	37.95
2.21517	37.91
2.23183	37.89
2.24850	37.86
2.26517	37.83
2.28183	37.80
2.29850	37.77
2.31517	37.74
2.33183	37.71
2.34850	37.68
2.36517	37.65
2.38183	37.64
2.39850	37.63
2.41517	37.64
2.43183	37.64
2.44850	37.64
2.46517	37.64
2.48183	37.64
2.49850	37.64
2.51517	37.63
2.53183	37.63
2.54850	37.64
2.56517	37.63
2.58183	37.63
2.59850	37.63
2.61517	37.63
2.63183	37.63
2.64850	37.63
2.66517	37.63
2.68183	37.63
2.69850	37.63
2.71517	37.63
2.73183	37.63
2.74850	37.63
2.76517	37.63
2.78183	37.63
2.79850	37.63
2.81517	37.62
2.83183	37.62
2.84850	37.63
2.86517	37.63
2.88183	37.62
2.89850	37.62
2.91517	37.62
2.93183	37.62
2.94850	37.62
2.96517	37.62
2.98183	37.62
2.99850	37.62
3.01517	37.62
3.03183	37.62
3.04850	37.62
3.06517	37.61
3.08183	37.61
3.09850	37.61
3.11517	37.61
3.13183	37.61
3.14850	37.61
3.16517	37.61
3.18183	37.61
3.19850	37.61
3.21517	37.61
3.23183	37.61
3.24850	37.61
3.26517	37.61
3.28183	37.61
3.29850	37.61
3.31517	37.61
3.33183	37.62
3.34850	37.62
3.36517	37.62
3.38183	37.62
3.39850	37.62
3.41517	37.62
3.43183	37.62
3.44850	37.62
3.46517	37.62
3.48183	37.62
3.49850	37.62
3.51517	37.62
3.53183	37.62
3.54850	37.62
3.56517	37.61
3.58183	37.61
3.59850	37.61
3.61517	37.61
3.63183	37.61
3.64850	37.61
3.66517	37.61
3.68183	37.61
3.69850	37.61
3.71517	37.61
3.73183	37.62
3.74850	37.62
3.76517	37.62
3.78183	37.61
3.79850	37.61
3.81517	37.61
3.83183	37.61
3.84850	37.61
3.86517	37.61
3.88183	37.61
3.89850	37.61
3.91517	37.61
3.93183	37.61
3.94850	37.61
3.96517	37.61
3.98183	37.61

