[Header]
Application Name	LabSolutions
Version	5.110
Data File Name	C:\Users\User\Desktop\GC Analyses\Jack\UIC Prairie Sampling\9.2.22\220902_097.gcd
Output Date	10/28/2022
Output Time	1:23:57 PM

[File Information]
Type	Data File
Generated	10/27/2022 3:35:43 PM
Generated by	System Administrator
Modified	10/27/2022 3:40:25 PM
Modified by	System Administrator

[Sample Information]
Operator Name	System Administrator
Acquired	10/27/2022 3:36:24 PM
Sample Type	1:Standard
Level	1
Sample Name	220902_UICPrairie
Sample ID	220902_UICPrairie
ISTD Amount1	1
ISTD Amount2	1
ISTD Amount3	1
ISTD Amount4	1
ISTD Amount5	1
ISTD Amount6	1
ISTD Amount7	1
ISTD Amount8	1
ISTD Amount9	1
ISTD Amount10	1
ISTD Amount11	1
ISTD Amount12	1
ISTD Amount13	1
ISTD Amount14	1
ISTD Amount15	1
ISTD Amount16	1
ISTD Amount17	1
ISTD Amount18	1
ISTD Amount19	1
ISTD Amount20	1
ISTD Amount21	1
ISTD Amount22	1
ISTD Amount23	1
ISTD Amount24	1
ISTD Amount25	1
ISTD Amount26	1
ISTD Amount27	1
ISTD Amount28	1
ISTD Amount29	1
ISTD Amount30	1
ISTD Amount31	1
ISTD Amount32	1
Sample Amount	1
Dilution Factor	1
Vial#	1
Injection Volume	1
Injection Count	1
Bar Code	

[Original Files]
Data File	C:\Users\User\Desktop\GC Analyses\Jack\UIC Prairie Sampling\9.2.22\220902_097.gcd
Method File	C:\LabSolutions\Data\GHG_4min_2022\ghg3_togas_w_acet_4 min_new_int.gcm
Batch File	
Report Format File	c:\LabSolutions\System\DEFAULT.lsr

[File Description]


[Configuration]
Instrument Name	C0B7VH3-Instrument1
Instrument #	1
Line #	1
# of Detectors	3
Detector ID	DET#1	DET#2	DET#3
Detector Name	FID	PTCD	ECD
# of Channels	1	1	1

[Peak Table(Ch1)]
# of Peaks	3
Peak#	R.Time	I.Time	F.Time	Area	Height	A/H	Conc.	Mark	ID#	Name	k'	Plate #	Plate Ht.	Tailing	Resolution	Sep.Factor	Area Ratio	Height Ratio	Conc. %	Norm Conc.
1	1.476	1.435	1.538	12077	5301	2.278	100.000	   	1	CO	0.000	8280	18.115	1.282	0.000	0.000	0	0	16.667	16.667
2	1.571	1.538	1.633	4741	2324	2.040	100.000	 V 	2	CH4	0.065	10878	13.789	0.000	1.524	0.000	0	0	16.667	16.667
3	1.996	1.949	2.359	2047118	992504	2.063	400.000	   	3	CO2	0.353	17537	8.553	1.280	7.057	5.462	0	0	66.667	66.667

[Peak Table(Ch2)]
# of Peaks	0

[Peak Table(Ch3)]
# of Peaks	2
Peak#	R.Time	I.Time	F.Time	Area	Height	A/H	Conc.	Mark	ID#	Name	k'	Plate #	Plate Ht.	Tailing	Resolution	Sep.Factor	Area Ratio	Height Ratio	Conc. %	Norm Conc.
1	2.590	2.499	2.656	6246	903	6.918	0.000	   			0.000	2779	53.986	0.000	0.000	0.000	0	0	0.000	0.000
2	2.884	2.656	3.958	49757	5833	8.531	1.000	 V 	1	N2O	0.113	10812	13.874	0.000	1.908	0.000	0	0	100.000	100.000

[Compound Results(Ch1)]
# of IDs	6
ID#	Name	R.Time	Area	Height	Conc.	Curve	3rd	2nd	1st	Constant	Area Ratio	Height Ratio	Conc. %	Norm Conc.
1	CO	1.476	12077	5301	100.000	Linear	0.000000e+00	0.000000e+00	1.207680e+002	0.000000e+00	0	0	16.667	16.667
2	CH4	1.571	4741	2324	100.000	Linear	0.000000e+00	0.000000e+00	4.741220e+001	0.000000e+00	0	0	16.667	16.667
3	CO2	1.996	2047118	992504	400.000	Linear	0.000000e+00	0.000000e+00	5.117795e+003	0.000000e+00	0	0	66.667	66.667
4	Ethylene	0.000	0	0	0.000	Linear	0.000000e+00	0.000000e+00	0.000000e+00	0.000000e+00	0	0	0.000	0.000
5	Acetylene	0.000	0	0	0.000	Linear	0.000000e+00	0.000000e+00	0.000000e+00	0.000000e+00	0	0	0.000	0.000
6	Ethane	0.000	0	0	0.000	Linear	0.000000e+00	0.000000e+00	0.000000e+00	0.000000e+00	0	0	0.000	0.000

[Compound Results(Ch2)]
# of IDs	5
ID#	Name	R.Time	Area	Height	Conc.	Curve	3rd	2nd	1st	Constant	Area Ratio	Height Ratio	Conc. %	Norm Conc.
1	Hydrogen	0.000	0	0	0.000	Linear	0.000000e+00	0.000000e+00	0.000000e+00	0.000000e+00	0	0	0.000	0.000
2	Oxygen	0.000	0	0	0.000	Linear	0.000000e+00	0.000000e+00	0.000000e+00	0.000000e+00	0	0	0.000	0.000
3	Nitrogen	0.000	0	0	0.000	Linear	0.000000e+00	0.000000e+00	0.000000e+00	0.000000e+00	0	0	0.000	0.000
4	Methane	0.000	0	0	0.000	Linear	0.000000e+00	0.000000e+00	0.000000e+00	0.000000e+00	0	0	0.000	0.000
5	Carbon Monoxide	0.000	0	0	0.000	Linear	0.000000e+00	0.000000e+00	0.000000e+00	0.000000e+00	0	0	0.000	0.000

[Compound Results(Ch3)]
# of IDs	2
ID#	Name	R.Time	Area	Height	Conc.	Curve	3rd	2nd	1st	Constant	Area Ratio	Height Ratio	Conc. %	Norm Conc.
1	N2O	2.884	49757	5833	1.000	Linear	0.000000e+00	0.000000e+00	4.975653e+004	0.000000e+00	0	0	100.000	100.000
2	SF6	0.000	0	0	0.000	Linear	0.000000e+00	0.000000e+00	0.000000e+00	0.000000e+00	0	0	0.000	0.000

[Group Results(Ch1)]
# of Groups	0

[Group Results(Ch2)]
# of Groups	0

[Group Results(Ch3)]
# of Groups	0

[Chromatogram (Ch1)]
Interval(msec)	220
# of Points	1091
Start Time(min)	0.002
End Time(min)	3.998
R.Time (min)	Intensity
0.00167	17
0.00533	17
0.00900	16
0.01267	16
0.01633	14
0.02000	8
0.02367	1
0.02733	-6
0.03100	-9
0.03467	-7
0.03833	-0
0.04200	4
0.04567	8
0.04933	13
0.05300	18
0.05667	19
0.06033	17
0.06400	16
0.06767	17
0.07133	17
0.07500	13
0.07867	13
0.08233	15
0.08600	15
0.08967	12
0.09333	8
0.09700	5
0.10067	5
0.10433	7
0.10800	10
0.11167	13
0.11533	13
0.11900	12
0.12267	8
0.12633	5
0.13000	2
0.13367	-4
0.13733	-11
0.14100	-15
0.14467	-12
0.14833	-5
0.15200	1
0.15567	5
0.15933	8
0.16300	7
0.16667	3
0.17033	-2
0.17400	-10
0.17767	-22
0.18133	-32
0.18500	-38
0.18867	-37
0.19233	-33
0.19600	-26
0.19967	-20
0.20333	-17
0.20700	-17
0.21067	-20
0.21433	-22
0.21800	-24
0.22167	-26
0.22533	-29
0.22900	-31
0.23267	-27
0.23633	-22
0.24000	-15
0.24367	-8
0.24733	-6
0.25100	-6
0.25467	-8
0.25833	-10
0.26200	-12
0.26567	-13
0.26933	-11
0.27300	-8
0.27667	-6
0.28033	-5
0.28400	-5
0.28767	-7
0.29133	-8
0.29500	-11
0.29867	-12
0.30233	-12
0.30600	-12
0.30967	-16
0.31333	-21
0.31700	-25
0.32067	-27
0.32433	-28
0.32800	-24
0.33167	-18
0.33533	-10
0.33900	-3
0.34267	-0
0.34633	-2
0.35000	-4
0.35367	-7
0.35733	-8
0.36100	-9
0.36467	-10
0.36833	-11
0.37200	-15
0.37567	-20
0.37933	-24
0.38300	-25
0.38667	-25
0.39033	-28
0.39400	-30
0.39767	-27
0.40133	-24
0.40500	-25
0.40867	-26
0.41233	-23
0.41600	-20
0.41967	-23
0.42333	-28
0.42700	-29
0.43067	-22
0.43433	-10
0.43800	1
0.44167	7
0.44533	9
0.44900	10
0.45267	10
0.45633	8
0.46000	-0
0.46367	-15
0.46733	-33
0.47100	-48
0.47467	-54
0.47833	-53
0.48200	-48
0.48567	-44
0.48933	-44
0.49300	-47
0.49667	-47
0.50033	-45
0.50400	-36
0.50767	-27
0.51133	-20
0.51500	-17
0.51867	-18
0.52233	-22
0.52600	-25
0.52967	-31
0.53333	-33
0.53700	-32
0.54067	-28
0.54433	-23
0.54800	-20
0.55167	-18
0.55533	-14
0.55900	-11
0.56267	-10
0.56633	-13
0.57000	-22
0.57367	-31
0.57733	-38
0.58100	-40
0.58467	-42
0.58833	-43
0.59200	-46
0.59567	-50
0.59933	-48
0.60300	-41
0.60667	-37
0.61033	-37
0.61400	-38
0.61767	-40
0.62133	-41
0.62500	-44
0.62867	-46
0.63233	-43
0.63600	-36
0.63967	-32
0.64333	-30
0.64700	-33
0.65067	-35
0.65433	-35
0.65800	-34
0.66167	-33
0.66533	-31
0.66900	-27
0.67267	-21
0.67633	-18
0.68000	-20
0.68367	-24
0.68733	-31
0.69100	-39
0.69467	-45
0.69833	-50
0.70200	-52
0.70567	-49
0.70933	-44
0.71300	-41
0.71667	-36
0.72033	-30
0.72400	-24
0.72767	-23
0.73133	-28
0.73500	-35
0.73867	-41
0.74233	-45
0.74600	-43
0.74967	-39
0.75333	-35
0.75700	-33
0.76067	-34
0.76433	-36
0.76800	-37
0.77167	-38
0.77533	-38
0.77900	-36
0.78267	-33
0.78633	-33
0.79000	-36
0.79367	-39
0.79733	-42
0.80100	-49
0.80467	-49
0.80833	-46
0.81200	-42
0.81567	-40
0.81933	-42
0.82300	-50
0.82667	-57
0.83033	-59
0.83400	-56
0.83767	-52
0.84133	-50
0.84500	-48
0.84867	-48
0.85233	-49
0.85600	-52
0.85967	-55
0.86333	-56
0.86700	-58
0.87067	-60
0.87433	-59
0.87800	-55
0.88167	-52
0.88533	-50
0.88900	-47
0.89267	-43
0.89633	-38
0.90000	-36
0.90367	-36
0.90733	-36
0.91100	-36
0.91467	-37
0.91833	-38
0.92200	-39
0.92567	-40
0.92933	-42
0.93300	-48
0.93667	-55
0.94033	-62
0.94400	-68
0.94767	-74
0.95133	-78
0.95500	-77
0.95867	-78
0.96233	-79
0.96600	-76
0.96967	-68
0.97333	-60
0.97700	-59
0.98067	-60
0.98433	-62
0.98800	-61
0.99167	-59
0.99533	-54
0.99900	-49
1.00267	-47
1.00633	-47
1.01000	-48
1.01367	-51
1.01733	-55
1.02100	-58
1.02467	-59
1.02833	-61
1.03200	-62
1.03567	-63
1.03933	-64
1.04300	-64
1.04667	-65
1.05033	-69
1.05400	-74
1.05767	-77
1.06133	-76
1.06500	-73
1.06867	-66
1.07233	-56
1.07600	-49
1.07967	-49
1.08333	-56
1.08700	-66
1.09067	-74
1.09433	-81
1.09800	-85
1.10167	-86
1.10533	-86
1.10900	-83
1.11267	-77
1.11633	-69
1.12000	-61
1.12367	-58
1.12733	-59
1.13100	-66
1.13467	-72
1.13833	-75
1.14200	-73
1.14567	-65
1.14933	-55
1.15300	-53
1.15667	-59
1.16033	-68
1.16400	-75
1.16767	-78
1.17133	-79
1.17500	-80
1.17867	-81
1.18233	-78
1.18600	-72
1.18967	-69
1.19333	-69
1.19700	-72
1.20067	-77
1.20433	-81
1.20800	-83
1.21167	-87
1.21533	-94
1.21900	-100
1.22267	-99
1.22633	-90
1.23000	-77
1.23367	-67
1.23733	-64
1.24100	-64
1.24467	-64
1.24833	-67
1.25200	-74
1.25567	-84
1.25933	-93
1.26300	-97
1.26667	-96
1.27033	-95
1.27400	-94
1.27767	-91
1.28133	-87
1.28500	-82
1.28867	-77
1.29233	-69
1.29600	-62
1.29967	-59
1.30333	-62
1.30700	-69
1.31067	-76
1.31433	-81
1.31800	-86
1.32167	-89
1.32533	-93
1.32900	-95
1.33267	-99
1.33633	-103
1.34000	-108
1.34367	-110
1.34733	-107
1.35100	-102
1.35467	-99
1.35833	-99
1.36200	-99
1.36567	-98
1.36933	-94
1.37300	-85
1.37667	-75
1.38033	-69
1.38400	-71
1.38767	-80
1.39133	-89
1.39500	-92
1.39867	-90
1.40233	-85
1.40600	-81
1.40967	-79
1.41333	-82
1.41700	-90
1.42067	-99
1.42433	-107
1.42800	-111
1.43167	-111
1.43533	-109
1.43900	-87
1.44267	7
1.44633	229
1.45000	605
1.45367	1197
1.45733	2026
1.46100	2966
1.46467	3840
1.46833	4534
1.47200	4994
1.47567	5194
1.47933	5106
1.48300	4721
1.48667	4094
1.49033	3344
1.49400	2597
1.49767	1943
1.50133	1416
1.50500	1013
1.50867	718
1.51233	505
1.51600	352
1.51967	242
1.52333	162
1.52700	108
1.53067	73
1.53433	52
1.53800	49
1.54167	91
1.54533	236
1.54900	528
1.55267	935
1.55633	1369
1.56000	1749
1.56367	2034
1.56733	2201
1.57100	2223
1.57467	2074
1.57833	1779
1.58200	1407
1.58567	1038
1.58933	719
1.59300	469
1.59667	286
1.60033	158
1.60400	72
1.60767	12
1.61133	-29
1.61500	-55
1.61867	-71
1.62233	-79
1.62600	-85
1.62967	-92
1.63333	-97
1.63700	-101
1.64067	-101
1.64433	-96
1.64800	-91
1.65167	-89
1.65533	-92
1.65900	-93
1.66267	-92
1.66633	-91
1.67000	-92
1.67367	-96
1.67733	-100
1.68100	-102
1.68467	-101
1.68833	-99
1.69200	-101
1.69567	-108
1.69933	-117
1.70300	-125
1.70667	-129
1.71033	-129
1.71400	-125
1.71767	-118
1.72133	-114
1.72500	-114
1.72867	-114
1.73233	-112
1.73600	-109
1.73967	-107
1.74333	-106
1.74700	-108
1.75067	-112
1.75433	-114
1.75800	-114
1.76167	-114
1.76533	-116
1.76900	-115
1.77267	-115
1.77633	-115
1.78000	-119
1.78367	-119
1.78733	-116
1.79100	-111
1.79467	-104
1.79833	-98
1.80200	-91
1.80567	-87
1.80933	-86
1.81300	-86
1.81667	-85
1.82033	-86
1.82400	-92
1.82767	-101
1.83133	-112
1.83500	-120
1.83867	-121
1.84233	-117
1.84600	-112
1.84967	-106
1.85333	-103
1.85700	-103
1.86067	-105
1.86433	-106
1.86800	-106
1.87167	-105
1.87533	-104
1.87900	-101
1.88267	-98
1.88633	-93
1.89000	-84
1.89367	-78
1.89733	-79
1.90100	-87
1.90467	-95
1.90833	-102
1.91200	-109
1.91567	-115
1.91933	-116
1.92300	-113
1.92667	-110
1.93033	-107
1.93400	-101
1.93767	-96
1.94133	-94
1.94500	-93
1.94867	-90
1.95233	-68
1.95600	83
1.95967	976
1.96333	5137
1.96700	19861
1.97067	59729
1.97433	143227
1.97800	280018
1.98167	458568
1.98533	649245
1.98900	818095
1.99267	938025
1.99633	992449
2.00000	975811
2.00367	894817
2.00733	767743
2.01100	619568
2.01467	474059
2.01833	347378
2.02200	246436
2.02567	171051
2.02933	117300
2.03300	80165
2.03667	55029
2.04033	38208
2.04400	26994
2.04767	19503
2.05133	14457
2.05500	11012
2.05867	8619
2.06233	6923
2.06600	5692
2.06967	4777
2.07333	4087
2.07700	3554
2.08067	3133
2.08433	2791
2.08800	2510
2.09167	2271
2.09533	2064
2.09900	1884
2.10267	1731
2.10633	1599
2.11000	1488
2.11367	1393
2.11733	1309
2.12100	1233
2.12467	1166
2.12833	1103
2.13200	1047
2.13567	995
2.13933	945
2.14300	899
2.14667	860
2.15033	823
2.15400	787
2.15767	752
2.16133	719
2.16500	688
2.16867	658
2.17233	629
2.17600	603
2.17967	581
2.18333	564
2.18700	548
2.19067	534
2.19433	518
2.19800	498
2.20167	480
2.20533	469
2.20900	463
2.21267	455
2.21633	446
2.22000	436
2.22367	428
2.22733	419
2.23100	407
2.23467	393
2.23833	377
2.24200	363
2.24567	355
2.24933	349
2.25300	342
2.25667	334
2.26033	326
2.26400	320
2.26767	312
2.27133	305
2.27500	299
2.27867	297
2.28233	297
2.28600	295
2.28967	292
2.29333	288
2.29700	281
2.30067	273
2.30433	268
2.30800	264
2.31167	260
2.31533	254
2.31900	248
2.32267	243
2.32633	238
2.33000	235
2.33367	233
2.33733	227
2.34100	220
2.34467	213
2.34833	209
2.35200	210
2.35567	210
2.35933	205
2.36300	200
2.36667	198
2.37033	199
2.37400	200
2.37767	203
2.38133	206
2.38500	207
2.38867	205
2.39233	202
2.39600	197
2.39967	193
2.40333	191
2.40700	194
2.41067	197
2.41433	198
2.41800	199
2.42167	201
2.42533	204
2.42900	207
2.43267	207
2.43633	206
2.44000	201
2.44367	193
2.44733	181
2.45100	170
2.45467	162
2.45833	153
2.46200	145
2.46567	139
2.46933	139
2.47300	145
2.47667	154
2.48033	163
2.48400	170
2.48767	175
2.49133	178
2.49500	177
2.49867	173
2.50233	170
2.50600	166
2.50967	164
2.51333	165
2.51700	166
2.52067	168
2.52433	169
2.52800	170
2.53167	171
2.53533	175
2.53900	179
2.54267	179
2.54633	176
2.55000	171
2.55367	166
2.55733	159
2.56100	149
2.56467	138
2.56833	128
2.57200	125
2.57567	130
2.57933	136
2.58300	138
2.58667	138
2.59033	138
2.59400	136
2.59767	137
2.60133	137
2.60500	136
2.60867	139
2.61233	143
2.61600	143
2.61967	140
2.62333	139
2.62700	142
2.63067	142
2.63433	142
2.63800	142
2.64167	138
2.64533	133
2.64900	131
2.65267	132
2.65633	136
2.66000	141
2.66367	145
2.66733	147
2.67100	145
2.67467	140
2.67833	136
2.68200	136
2.68567	139
2.68933	144
2.69300	146
2.69667	146
2.70033	142
2.70400	140
2.70767	140
2.71133	138
2.71500	135
2.71867	135
2.72233	139
2.72600	142
2.72967	143
2.73333	142
2.73700	139
2.74067	135
2.74433	133
2.74800	134
2.75167	133
2.75533	131
2.75900	126
2.76267	123
2.76633	123
2.77000	124
2.77367	122
2.77733	122
2.78100	125
2.78467	124
2.78833	118
2.79200	112
2.79567	111
2.79933	112
2.80300	117
2.80667	123
2.81033	128
2.81400	132
2.81767	136
2.82133	138
2.82500	139
2.82867	138
2.83233	136
2.83600	135
2.83967	135
2.84333	139
2.84700	148
2.85067	158
2.85433	166
2.85800	165
2.86167	157
2.86533	146
2.86900	135
2.87267	127
2.87633	124
2.88000	127
2.88367	132
2.88733	137
2.89100	141
2.89467	144
2.89833	146
2.90200	149
2.90567	151
2.90933	151
2.91300	149
2.91667	144
2.92033	138
2.92400	135
2.92767	136
2.93133	139
2.93500	145
2.93867	150
2.94233	151
2.94600	150
2.94967	146
2.95333	142
2.95700	140
2.96067	139
2.96433	138
2.96800	136
2.97167	135
2.97533	136
2.97900	138
2.98267	140
2.98633	142
2.99000	145
2.99367	147
2.99733	151
3.00100	157
3.00467	163
3.00833	168
3.01200	168
3.01567	166
3.01933	162
3.02300	161
3.02667	164
3.03033	167
3.03400	167
3.03767	167
3.04133	166
3.04500	167
3.04867	166
3.05233	162
3.05600	155
3.05967	147
3.06333	137
3.06700	125
3.07067	115
3.07433	111
3.07800	110
3.08167	114
3.08533	121
3.08900	129
3.09267	132
3.09633	131
3.10000	128
3.10367	127
3.10733	132
3.11100	138
3.11467	142
3.11833	142
3.12200	139
3.12567	139
3.12933	141
3.13300	142
3.13667	138
3.14033	133
3.14400	131
3.14767	132
3.15133	134
3.15500	133
3.15867	133
3.16233	136
3.16600	141
3.16967	144
3.17333	148
3.17700	151
3.18067	153
3.18433	150
3.18800	142
3.19167	130
3.19533	119
3.19900	116
3.20267	119
3.20633	126
3.21000	135
3.21367	140
3.21733	140
3.22100	136
3.22467	130
3.22833	124
3.23200	120
3.23567	117
3.23933	119
3.24300	125
3.24667	129
3.25033	134
3.25400	137
3.25767	135
3.26133	134
3.26500	137
3.26867	140
3.27233	142
3.27600	143
3.27967	138
3.28333	131
3.28700	126
3.29067	128
3.29433	133
3.29800	138
3.30167	135
3.30533	128
3.30900	124
3.31267	123
3.31633	125
3.32000	127
3.32367	125
3.32733	121
3.33100	122
3.33467	129
3.33833	137
3.34200	142
3.34567	144
3.34933	144
3.35300	141
3.35667	136
3.36033	131
3.36400	126
3.36767	123
3.37133	122
3.37500	122
3.37867	125
3.38233	128
3.38600	126
3.38967	121
3.39333	114
3.39700	108
3.40067	105
3.40433	107
3.40800	109
3.41167	108
3.41533	108
3.41900	113
3.42267	116
3.42633	116
3.43000	116
3.43367	117
3.43733	116
3.44100	114
3.44467	115
3.44833	115
3.45200	115
3.45567	117
3.45933	119
3.46300	120
3.46667	116
3.47033	107
3.47400	98
3.47767	94
3.48133	93
3.48500	92
3.48867	92
3.49233	94
3.49600	97
3.49967	97
3.50333	94
3.50700	94
3.51067	97
3.51433	101
3.51800	101
3.52167	99
3.52533	105
3.52900	109
3.53267	108
3.53633	107
3.54000	110
3.54367	112
3.54733	111
3.55100	111
3.55467	114
3.55833	114
3.56200	109
3.56567	100
3.56933	95
3.57300	97
3.57667	103
3.58033	104
3.58400	99
3.58767	91
3.59133	85
3.59500	81
3.59867	79
3.60233	81
3.60600	85
3.60967	88
3.61333	92
3.61700	99
3.62067	102
3.62433	101
3.62800	100
3.63167	97
3.63533	93
3.63900	92
3.64267	94
3.64633	96
3.65000	94
3.65367	91
3.65733	91
3.66100	97
3.66467	109
3.66833	119
3.67200	120
3.67567	113
3.67933	101
3.68300	90
3.68667	84
3.69033	77
3.69400	71
3.69767	68
3.70133	69
3.70500	73
3.70867	79
3.71233	85
3.71600	89
3.71967	92
3.72333	94
3.72700	96
3.73067	97
3.73433	99
3.73800	105
3.74167	111
3.74533	115
3.74900	116
3.75267	118
3.75633	115
3.76000	108
3.76367	97
3.76733	90
3.77100	85
3.77467	81
3.77833	82
3.78200	83
3.78567	85
3.78933	87
3.79300	88
3.79667	86
3.80033	82
3.80400	81
3.80767	83
3.81133	84
3.81500	82
3.81867	77
3.82233	72
3.82600	68
3.82967	65
3.83333	67
3.83700	71
3.84067	73
3.84433	76
3.84800	81
3.85167	86
3.85533	88
3.85900	89
3.86267	90
3.86633	90
3.87000	90
3.87367	91
3.87733	89
3.88100	84
3.88467	84
3.88833	85
3.89200	87
3.89567	87
3.89933	87
3.90300	89
3.90667	90
3.91033	91
3.91400	93
3.91767	94
3.92133	92
3.92500	88
3.92867	84
3.93233	81
3.93600	81
3.93967	82
3.94333	84
3.94700	87
3.95067	89
3.95433	86
3.95800	80
3.96167	75
3.96533	73
3.96900	73
3.97267	72
3.97633	74
3.98000	77
3.98367	80
3.98733	81
3.99100	83
3.99467	84
3.99833	83

[Chromatogram (Ch2)]
Interval(msec)	220
# of Points	1091
Start Time(min)	0.002
End Time(min)	3.998
R.Time (min)	Intensity
0.00167	-1
0.00533	-1
0.00900	-1
0.01267	-1
0.01633	-1
0.02000	-1
0.02367	-1
0.02733	-1
0.03100	-1
0.03467	-0
0.03833	0
0.04200	1
0.04567	1
0.04933	1
0.05300	2
0.05667	2
0.06033	2
0.06400	2
0.06767	2
0.07133	2
0.07500	2
0.07867	2
0.08233	2
0.08600	2
0.08967	2
0.09333	2
0.09700	3
0.10067	3
0.10433	3
0.10800	3
0.11167	3
0.11533	3
0.11900	3
0.12267	2
0.12633	2
0.13000	2
0.13367	2
0.13733	2
0.14100	2
0.14467	1
0.14833	1
0.15200	1
0.15567	1
0.15933	1
0.16300	1
0.16667	1
0.17033	2
0.17400	2
0.17767	2
0.18133	2
0.18500	2
0.18867	2
0.19233	2
0.19600	2
0.19967	2
0.20333	2
0.20700	2
0.21067	2
0.21433	2
0.21800	3
0.22167	3
0.22533	3
0.22900	3
0.23267	3
0.23633	2
0.24000	2
0.24367	2
0.24733	2
0.25100	2
0.25467	2
0.25833	2
0.26200	1
0.26567	1
0.26933	0
0.27300	-0
0.27667	-1
0.28033	-1
0.28400	-1
0.28767	-1
0.29133	-2
0.29500	-2
0.29867	-2
0.30233	-3
0.30600	-3
0.30967	-3
0.31333	-3
0.31700	-3
0.32067	-3
0.32433	-3
0.32800	-3
0.33167	-2
0.33533	-2
0.33900	-2
0.34267	-2
0.34633	-2
0.35000	-1
0.35367	-1
0.35733	-1
0.36100	-1
0.36467	-2
0.36833	-2
0.37200	-2
0.37567	-2
0.37933	-2
0.38300	-2
0.38667	-2
0.39033	-2
0.39400	-2
0.39767	-1
0.40133	-1
0.40500	-1
0.40867	-0
0.41233	0
0.41600	0
0.41967	1
0.42333	1
0.42700	1
0.43067	1
0.43433	1
0.43800	1
0.44167	1
0.44533	1
0.44900	2
0.45267	2
0.45633	2
0.46000	2
0.46367	2
0.46733	2
0.47100	3
0.47467	3
0.47833	3
0.48200	3
0.48567	3
0.48933	3
0.49300	2
0.49667	2
0.50033	2
0.50400	1
0.50767	1
0.51133	2
0.51500	2
0.51867	2
0.52233	2
0.52600	2
0.52967	2
0.53333	1
0.53700	1
0.54067	1
0.54433	1
0.54800	1
0.55167	1
0.55533	1
0.55900	2
0.56267	2
0.56633	3
0.57000	3
0.57367	3
0.57733	3
0.58100	3
0.58467	4
0.58833	4
0.59200	4
0.59567	4
0.59933	4
0.60300	5
0.60667	5
0.61033	5
0.61400	5
0.61767	5
0.62133	5
0.62500	5
0.62867	5
0.63233	5
0.63600	4
0.63967	4
0.64333	4
0.64700	4
0.65067	4
0.65433	3
0.65800	3
0.66167	3
0.66533	2
0.66900	2
0.67267	1
0.67633	1
0.68000	1
0.68367	1
0.68733	1
0.69100	1
0.69467	1
0.69833	1
0.70200	1
0.70567	1
0.70933	1
0.71300	1
0.71667	0
0.72033	0
0.72400	0
0.72767	-0
0.73133	-0
0.73500	0
0.73867	0
0.74233	-0
0.74600	-0
0.74967	-0
0.75333	-0
0.75700	-0
0.76067	-1
0.76433	-1
0.76800	-1
0.77167	-1
0.77533	-1
0.77900	-1
0.78267	-1
0.78633	-1
0.79000	-1
0.79367	-1
0.79733	-1
0.80100	-1
0.80467	-0
0.80833	-0
0.81200	-0
0.81567	-0
0.81933	-0
0.82300	-0
0.82667	-0
0.83033	-1
0.83400	-1
0.83767	-1
0.84133	-1
0.84500	-1
0.84867	-1
0.85233	-1
0.85600	-1
0.85967	-1
0.86333	-2
0.86700	-2
0.87067	-2
0.87433	-2
0.87800	-2
0.88167	-2
0.88533	-1
0.88900	-2
0.89267	-2
0.89633	-2
0.90000	-2
0.90367	-3
0.90733	-3
0.91100	-3
0.91467	-3
0.91833	-3
0.92200	-3
0.92567	-3
0.92933	-3
0.93300	-2
0.93667	-2
0.94033	-2
0.94400	-2
0.94767	-2
0.95133	-2
0.95500	-1
0.95867	-1
0.96233	-1
0.96600	-1
0.96967	-0
0.97333	-0
0.97700	0
0.98067	0
0.98433	0
0.98800	1
0.99167	1
0.99533	1
0.99900	0
1.00267	-0
1.00633	-0
1.01000	-1
1.01367	-1
1.01733	-1
1.02100	-1
1.02467	-1
1.02833	-1
1.03200	-1
1.03567	-1
1.03933	-0
1.04300	-0
1.04667	0
1.05033	0
1.05400	-0
1.05767	-0
1.06133	-0
1.06500	-0
1.06867	-0
1.07233	-0
1.07600	0
1.07967	0
1.08333	0
1.08700	0
1.09067	0
1.09433	0
1.09800	0
1.10167	1
1.10533	1
1.10900	1
1.11267	1
1.11633	1
1.12000	0
1.12367	0
1.12733	-0
1.13100	-0
1.13467	-0
1.13833	-1
1.14200	-0
1.14567	-0
1.14933	-0
1.15300	0
1.15667	0
1.16033	0
1.16400	0
1.16767	0
1.17133	0
1.17500	0
1.17867	0
1.18233	0
1.18600	0
1.18967	0
1.19333	0
1.19700	0
1.20067	0
1.20433	1
1.20800	1
1.21167	0
1.21533	0
1.21900	-0
1.22267	-0
1.22633	-0
1.23000	-0
1.23367	0
1.23733	0
1.24100	0
1.24467	0
1.24833	0
1.25200	1
1.25567	1
1.25933	1
1.26300	1
1.26667	1
1.27033	1
1.27400	0
1.27767	0
1.28133	-0
1.28500	-0
1.28867	-1
1.29233	-1
1.29600	-1
1.29967	-2
1.30333	-2
1.30700	-3
1.31067	-3
1.31433	-4
1.31800	-4
1.32167	-4
1.32533	-4
1.32900	-4
1.33267	-4
1.33633	-4
1.34000	-4
1.34367	-4
1.34733	-3
1.35100	-3
1.35467	-3
1.35833	-3
1.36200	-3
1.36567	-3
1.36933	-3
1.37300	-3
1.37667	-3
1.38033	-3
1.38400	-3
1.38767	-3
1.39133	-3
1.39500	-2
1.39867	-2
1.40233	-2
1.40600	-2
1.40967	-2
1.41333	-3
1.41700	-3
1.42067	-3
1.42433	-3
1.42800	-4
1.43167	-4
1.43533	-4
1.43900	-5
1.44267	-5
1.44633	-5
1.45000	-4
1.45367	-4
1.45733	-4
1.46100	-3
1.46467	-3
1.46833	-2
1.47200	-2
1.47567	-1
1.47933	-1
1.48300	-1
1.48667	-1
1.49033	-0
1.49400	-0
1.49767	0
1.50133	0
1.50500	0
1.50867	1
1.51233	1
1.51600	1
1.51967	1
1.52333	1
1.52700	2
1.53067	2
1.53433	1
1.53800	1
1.54167	1
1.54533	1
1.54900	1
1.55267	1
1.55633	0
1.56000	0
1.56367	-0
1.56733	-0
1.57100	-1
1.57467	-1
1.57833	-1
1.58200	-1
1.58567	-1
1.58933	-1
1.59300	-1
1.59667	-2
1.60033	-2
1.60400	-3
1.60767	-5
1.61133	-6
1.61500	-8
1.61867	-10
1.62233	-13
1.62600	-15
1.62967	-19
1.63333	-22
1.63700	-25
1.64067	-29
1.64433	-32
1.64800	-36
1.65167	-40
1.65533	-44
1.65900	-48
1.66267	-52
1.66633	-57
1.67000	-61
1.67367	-66
1.67733	-72
1.68100	-77
1.68467	-82
1.68833	-86
1.69200	-91
1.69567	-95
1.69933	-98
1.70300	-101
1.70667	-103
1.71033	-105
1.71400	-106
1.71767	-108
1.72133	-109
1.72500	-111
1.72867	-112
1.73233	-114
1.73600	-115
1.73967	-116
1.74333	-117
1.74700	-117
1.75067	-117
1.75433	-117
1.75800	-117
1.76167	-116
1.76533	-116
1.76900	-116
1.77267	-115
1.77633	-116
1.78000	-116
1.78367	-117
1.78733	-117
1.79100	-118
1.79467	-118
1.79833	-119
1.80200	-120
1.80567	-120
1.80933	-121
1.81300	-121
1.81667	-122
1.82033	-122
1.82400	-123
1.82767	-123
1.83133	-123
1.83500	-123
1.83867	-123
1.84233	-124
1.84600	-124
1.84967	-123
1.85333	-123
1.85700	-123
1.86067	-123
1.86433	-123
1.86800	-123
1.87167	-123
1.87533	-123
1.87900	-122
1.88267	-122
1.88633	-122
1.89000	-122
1.89367	-122
1.89733	-122
1.90100	-121
1.90467	-121
1.90833	-121
1.91200	-120
1.91567	-120
1.91933	-120
1.92300	-120
1.92667	-120
1.93033	-120
1.93400	-120
1.93767	-120
1.94133	-120
1.94500	-120
1.94867	-120
1.95233	-119
1.95600	-119
1.95967	-119
1.96333	-118
1.96700	-118
1.97067	-118
1.97433	-117
1.97800	-117
1.98167	-117
1.98533	-117
1.98900	-116
1.99267	-116
1.99633	-116
2.00000	-116
2.00367	-115
2.00733	-115
2.01100	-115
2.01467	-115
2.01833	-115
2.02200	-115
2.02567	-115
2.02933	-115
2.03300	-114
2.03667	-114
2.04033	-113
2.04400	-112
2.04767	-111
2.05133	-111
2.05500	-111
2.05867	-111
2.06233	-111
2.06600	-111
2.06967	-111
2.07333	-110
2.07700	-110
2.08067	-109
2.08433	-108
2.08800	-107
2.09167	-107
2.09533	-107
2.09900	-106
2.10267	-106
2.10633	-107
2.11000	-106
2.11367	-106
2.11733	-106
2.12100	-105
2.12467	-105
2.12833	-104
2.13200	-104
2.13567	-103
2.13933	-103
2.14300	-103
2.14667	-103
2.15033	-102
2.15400	-102
2.15767	-101
2.16133	-101
2.16500	-100
2.16867	-100
2.17233	-100
2.17600	-100
2.17967	-100
2.18333	-100
2.18700	-100
2.19067	-100
2.19433	-99
2.19800	-99
2.20167	-98
2.20533	-98
2.20900	-97
2.21267	-96
2.21633	-96
2.22000	-95
2.22367	-95
2.22733	-95
2.23100	-95
2.23467	-95
2.23833	-95
2.24200	-95
2.24567	-95
2.24933	-95
2.25300	-95
2.25667	-95
2.26033	-95
2.26400	-94
2.26767	-93
2.27133	-92
2.27500	-92
2.27867	-92
2.28233	-91
2.28600	-91
2.28967	-91
2.29333	-91
2.29700	-91
2.30067	-90
2.30433	-90
2.30800	-90
2.31167	-90
2.31533	-89
2.31900	-89
2.32267	-88
2.32633	-87
2.33000	-87
2.33367	-87
2.33733	-87
2.34100	-87
2.34467	-87
2.34833	-87
2.35200	-87
2.35567	-87
2.35933	-88
2.36300	-88
2.36667	-88
2.37033	-87
2.37400	-86
2.37767	-85
2.38133	-82
2.38500	-78
2.38867	-74
2.39233	-69
2.39600	-64
2.39967	-59
2.40333	-54
2.40700	-49
2.41067	-44
2.41433	-39
2.41800	-35
2.42167	-30
2.42533	-27
2.42900	-23
2.43267	-20
2.43633	-17
2.44000	-15
2.44367	-13
2.44733	-11
2.45100	-9
2.45467	-7
2.45833	-5
2.46200	-3
2.46567	-2
2.46933	-1
2.47300	0
2.47667	1
2.48033	2
2.48400	3
2.48767	4
2.49133	5
2.49500	7
2.49867	8
2.50233	9
2.50600	10
2.50967	10
2.51333	11
2.51700	12
2.52067	12
2.52433	13
2.52800	13
2.53167	14
2.53533	14
2.53900	15
2.54267	15
2.54633	15
2.55000	16
2.55367	17
2.55733	17
2.56100	18
2.56467	18
2.56833	17
2.57200	17
2.57567	16
2.57933	15
2.58300	15
2.58667	15
2.59033	15
2.59400	15
2.59767	16
2.60133	16
2.60500	16
2.60867	17
2.61233	17
2.61600	17
2.61967	18
2.62333	18
2.62700	18
2.63067	18
2.63433	19
2.63800	20
2.64167	20
2.64533	21
2.64900	21
2.65267	22
2.65633	23
2.66000	23
2.66367	24
2.66733	24
2.67100	24
2.67467	24
2.67833	24
2.68200	23
2.68567	23
2.68933	23
2.69300	23
2.69667	23
2.70033	23
2.70400	23
2.70767	23
2.71133	23
2.71500	24
2.71867	24
2.72233	24
2.72600	24
2.72967	25
2.73333	25
2.73700	25
2.74067	25
2.74433	26
2.74800	26
2.75167	26
2.75533	27
2.75900	27
2.76267	27
2.76633	27
2.77000	27
2.77367	28
2.77733	28
2.78100	28
2.78467	28
2.78833	27
2.79200	27
2.79567	27
2.79933	27
2.80300	26
2.80667	26
2.81033	26
2.81400	26
2.81767	26
2.82133	26
2.82500	26
2.82867	27
2.83233	27
2.83600	27
2.83967	27
2.84333	27
2.84700	26
2.85067	24
2.85433	22
2.85800	17
2.86167	9
2.86533	-1
2.86900	-15
2.87267	-33
2.87633	-54
2.88000	-80
2.88367	-109
2.88733	-142
2.89100	-179
2.89467	-218
2.89833	-261
2.90200	-306
2.90567	-353
2.90933	-401
2.91300	-450
2.91667	-500
2.92033	-550
2.92400	-600
2.92767	-650
2.93133	-700
2.93500	-749
2.93867	-797
2.94233	-848
2.94600	-904
2.94967	-965
2.95333	-1025
2.95700	-1071
2.96067	-1095
2.96433	-1093
2.96800	-1066
2.97167	-1017
2.97533	-953
2.97900	-878
2.98267	-799
2.98633	-718
2.99000	-639
2.99367	-565
2.99733	-495
3.00100	-431
3.00467	-373
3.00833	-322
3.01200	-277
3.01567	-237
3.01933	-202
3.02300	-171
3.02667	-145
3.03033	-122
3.03400	-102
3.03767	-85
3.04133	-70
3.04500	-58
3.04867	-47
3.05233	-38
3.05600	-31
3.05967	-24
3.06333	-19
3.06700	-14
3.07067	-10
3.07433	-7
3.07800	-3
3.08167	-1
3.08533	2
3.08900	4
3.09267	6
3.09633	7
3.10000	9
3.10367	10
3.10733	11
3.11100	12
3.11467	13
3.11833	14
3.12200	14
3.12567	15
3.12933	15
3.13300	15
3.13667	16
3.14033	16
3.14400	17
3.14767	17
3.15133	18
3.15500	18
3.15867	19
3.16233	19
3.16600	20
3.16967	21
3.17333	21
3.17700	22
3.18067	22
3.18433	23
3.18800	23
3.19167	24
3.19533	24
3.19900	24
3.20267	25
3.20633	25
3.21000	25
3.21367	26
3.21733	26
3.22100	26
3.22467	25
3.22833	25
3.23200	25
3.23567	25
3.23933	26
3.24300	26
3.24667	26
3.25033	26
3.25400	26
3.25767	26
3.26133	26
3.26500	27
3.26867	27
3.27233	27
3.27600	27
3.27967	27
3.28333	27
3.28700	27
3.29067	27
3.29433	28
3.29800	28
3.30167	28
3.30533	28
3.30900	28
3.31267	27
3.31633	27
3.32000	27
3.32367	27
3.32733	27
3.33100	26
3.33467	26
3.33833	27
3.34200	27
3.34567	27
3.34933	27
3.35300	28
3.35667	28
3.36033	28
3.36400	28
3.36767	28
3.37133	27
3.37500	27
3.37867	27
3.38233	27
3.38600	26
3.38967	26
3.39333	26
3.39700	26
3.40067	26
3.40433	27
3.40800	27
3.41167	27
3.41533	27
3.41900	27
3.42267	27
3.42633	28
3.43000	28
3.43367	28
3.43733	29
3.44100	29
3.44467	29
3.44833	29
3.45200	29
3.45567	29
3.45933	29
3.46300	29
3.46667	29
3.47033	29
3.47400	29
3.47767	30
3.48133	30
3.48500	30
3.48867	30
3.49233	30
3.49600	31
3.49967	31
3.50333	30
3.50700	30
3.51067	30
3.51433	30
3.51800	30
3.52167	30
3.52533	30
3.52900	30
3.53267	30
3.53633	30
3.54000	30
3.54367	30
3.54733	30
3.55100	30
3.55467	30
3.55833	29
3.56200	30
3.56567	30
3.56933	30
3.57300	29
3.57667	29
3.58033	29
3.58400	29
3.58767	29
3.59133	29
3.59500	29
3.59867	29
3.60233	28
3.60600	28
3.60967	28
3.61333	28
3.61700	28
3.62067	28
3.62433	28
3.62800	28
3.63167	28
3.63533	29
3.63900	29
3.64267	29
3.64633	28
3.65000	28
3.65367	28
3.65733	28
3.66100	29
3.66467	29
3.66833	29
3.67200	29
3.67567	30
3.67933	30
3.68300	30
3.68667	30
3.69033	29
3.69400	29
3.69767	29
3.70133	29
3.70500	29
3.70867	29
3.71233	29
3.71600	29
3.71967	29
3.72333	29
3.72700	29
3.73067	29
3.73433	29
3.73800	29
3.74167	28
3.74533	28
3.74900	28
3.75267	28
3.75633	29
3.76000	29
3.76367	29
3.76733	29
3.77100	29
3.77467	29
3.77833	29
3.78200	30
3.78567	30
3.78933	30
3.79300	31
3.79667	31
3.80033	31
3.80400	31
3.80767	32
3.81133	32
3.81500	32
3.81867	32
3.82233	32
3.82600	32
3.82967	32
3.83333	32
3.83700	32
3.84067	32
3.84433	32
3.84800	32
3.85167	32
3.85533	32
3.85900	32
3.86267	32
3.86633	31
3.87000	31
3.87367	31
3.87733	31
3.88100	31
3.88467	31
3.88833	31
3.89200	31
3.89567	31
3.89933	30
3.90300	30
3.90667	30
3.91033	30
3.91400	30
3.91767	30
3.92133	30
3.92500	30
3.92867	30
3.93233	29
3.93600	29
3.93967	29
3.94333	29
3.94700	29
3.95067	29
3.95433	29
3.95800	29
3.96167	29
3.96533	29
3.96900	29
3.97267	29
3.97633	29
3.98000	29
3.98367	29
3.98733	29
3.99100	29
3.99467	29
3.99833	29

[Chromatogram (Ch3)]
Interval(msec)	220
# of Points	1091
Start Time(min)	0.002
End Time(min)	3.998
R.Time (min)	Intensity
0.00167	-0
0.00533	-1
0.00900	0
0.01267	0
0.01633	2
0.02000	1
0.02367	1
0.02733	0
0.03100	-0
0.03467	0
0.03833	1
0.04200	2
0.04567	3
0.04933	3
0.05300	3
0.05667	4
0.06033	5
0.06400	4
0.06767	1
0.07133	-2
0.07500	-2
0.07867	-0
0.08233	1
0.08600	3
0.08967	5
0.09333	7
0.09700	9
0.10067	9
0.10433	9
0.10800	9
0.11167	9
0.11533	8
0.11900	7
0.12267	4
0.12633	2
0.13000	3
0.13367	5
0.13733	4
0.14100	4
0.14467	4
0.14833	4
0.15200	4
0.15567	7
0.15933	12
0.16300	14
0.16667	15
0.17033	14
0.17400	13
0.17767	11
0.18133	8
0.18500	6
0.18867	6
0.19233	7
0.19600	8
0.19967	9
0.20333	10
0.20700	11
0.21067	12
0.21433	14
0.21800	15
0.22167	16
0.22533	15
0.22900	14
0.23267	13
0.23633	12
0.24000	13
0.24367	12
0.24733	11
0.25100	10
0.25467	9
0.25833	9
0.26200	11
0.26567	15
0.26933	14
0.27300	13
0.27667	14
0.28033	17
0.28400	20
0.28767	19
0.29133	17
0.29500	17
0.29867	18
0.30233	21
0.30600	23
0.30967	24
0.31333	24
0.31700	24
0.32067	26
0.32433	29
0.32800	31
0.33167	30
0.33533	28
0.33900	27
0.34267	26
0.34633	27
0.35000	29
0.35367	27
0.35733	26
0.36100	25
0.36467	26
0.36833	26
0.37200	25
0.37567	24
0.37933	25
0.38300	25
0.38667	26
0.39033	27
0.39400	28
0.39767	28
0.40133	27
0.40500	26
0.40867	24
0.41233	24
0.41600	24
0.41967	26
0.42333	28
0.42700	30
0.43067	28
0.43433	28
0.43800	26
0.44167	24
0.44533	24
0.44900	24
0.45267	26
0.45633	24
0.46000	25
0.46367	26
0.46733	28
0.47100	27
0.47467	25
0.47833	24
0.48200	22
0.48567	21
0.48933	21
0.49300	22
0.49667	22
0.50033	23
0.50400	25
0.50767	27
0.51133	28
0.51500	27
0.51867	26
0.52233	25
0.52600	26
0.52967	26
0.53333	24
0.53700	23
0.54067	23
0.54433	25
0.54800	26
0.55167	26
0.55533	27
0.55900	27
0.56267	31
0.56633	32
0.57000	32
0.57367	30
0.57733	26
0.58100	25
0.58467	25
0.58833	25
0.59200	23
0.59567	22
0.59933	23
0.60300	24
0.60667	25
0.61033	27
0.61400	29
0.61767	30
0.62133	31
0.62500	32
0.62867	33
0.63233	33
0.63600	33
0.63967	32
0.64333	28
0.64700	27
0.65067	27
0.65433	26
0.65800	27
0.66167	27
0.66533	26
0.66900	27
0.67267	28
0.67633	28
0.68000	30
0.68367	33
0.68733	35
0.69100	36
0.69467	35
0.69833	31
0.70200	27
0.70567	26
0.70933	26
0.71300	27
0.71667	28
0.72033	28
0.72400	29
0.72767	28
0.73133	30
0.73500	32
0.73867	31
0.74233	30
0.74600	31
0.74967	33
0.75333	33
0.75700	33
0.76067	34
0.76433	34
0.76800	34
0.77167	36
0.77533	36
0.77900	34
0.78267	34
0.78633	35
0.79000	35
0.79367	35
0.79733	33
0.80100	34
0.80467	35
0.80833	37
0.81200	38
0.81567	36
0.81933	35
0.82300	32
0.82667	31
0.83033	30
0.83400	32
0.83767	35
0.84133	36
0.84500	35
0.84867	34
0.85233	35
0.85600	34
0.85967	33
0.86333	34
0.86700	35
0.87067	35
0.87433	37
0.87800	37
0.88167	38
0.88533	39
0.88900	40
0.89267	40
0.89633	38
0.90000	35
0.90367	32
0.90733	31
0.91100	32
0.91467	34
0.91833	36
0.92200	36
0.92567	37
0.92933	38
0.93300	39
0.93667	40
0.94033	41
0.94400	41
0.94767	39
0.95133	38
0.95500	35
0.95867	34
0.96233	34
0.96600	34
0.96967	32
0.97333	32
0.97700	34
0.98067	37
0.98433	37
0.98800	36
0.99167	34
0.99533	34
0.99900	34
1.00267	34
1.00633	34
1.01000	34
1.01367	33
1.01733	32
1.02100	32
1.02467	35
1.02833	37
1.03200	35
1.03567	33
1.03933	32
1.04300	32
1.04667	34
1.05033	33
1.05400	32
1.05767	32
1.06133	35
1.06500	37
1.06867	38
1.07233	39
1.07600	38
1.07967	38
1.08333	37
1.08700	35
1.09067	35
1.09433	34
1.09800	32
1.10167	34
1.10533	36
1.10900	37
1.11267	38
1.11633	38
1.12000	41
1.12367	42
1.12733	40
1.13100	39
1.13467	40
1.13833	37
1.14200	36
1.14567	38
1.14933	40
1.15300	43
1.15667	45
1.16033	44
1.16400	45
1.16767	46
1.17133	47
1.17500	47
1.17867	45
1.18233	41
1.18600	38
1.18967	39
1.19333	40
1.19700	42
1.20067	42
1.20433	41
1.20800	41
1.21167	43
1.21533	46
1.21900	46
1.22267	46
1.22633	46
1.23000	45
1.23367	43
1.23733	41
1.24100	42
1.24467	42
1.24833	42
1.25200	45
1.25567	47
1.25933	47
1.26300	48
1.26667	48
1.27033	47
1.27400	45
1.27767	45
1.28133	45
1.28500	46
1.28867	47
1.29233	48
1.29600	47
1.29967	43
1.30333	40
1.30700	40
1.31067	40
1.31433	42
1.31800	43
1.32167	46
1.32533	48
1.32900	46
1.33267	45
1.33633	44
1.34000	43
1.34367	43
1.34733	45
1.35100	47
1.35467	47
1.35833	47
1.36200	47
1.36567	51
1.36933	52
1.37300	51
1.37667	52
1.38033	53
1.38400	53
1.38767	52
1.39133	51
1.39500	50
1.39867	49
1.40233	50
1.40600	52
1.40967	50
1.41333	49
1.41700	49
1.42067	50
1.42433	49
1.42800	48
1.43167	46
1.43533	45
1.43900	46
1.44267	45
1.44633	47
1.45000	48
1.45367	48
1.45733	47
1.46100	46
1.46467	48
1.46833	48
1.47200	50
1.47567	51
1.47933	50
1.48300	48
1.48667	48
1.49033	49
1.49400	50
1.49767	50
1.50133	51
1.50500	51
1.50867	52
1.51233	53
1.51600	53
1.51967	50
1.52333	48
1.52700	50
1.53067	50
1.53433	50
1.53800	51
1.54167	51
1.54533	53
1.54900	53
1.55267	49
1.55633	46
1.56000	47
1.56367	47
1.56733	47
1.57100	49
1.57467	49
1.57833	48
1.58200	48
1.58567	49
1.58933	49
1.59300	51
1.59667	50
1.60033	50
1.60400	50
1.60767	50
1.61133	50
1.61500	50
1.61867	50
1.62233	50
1.62600	52
1.62967	54
1.63333	53
1.63700	55
1.64067	58
1.64433	59
1.64800	59
1.65167	59
1.65533	60
1.65900	59
1.66267	59
1.66633	59
1.67000	60
1.67367	60
1.67733	61
1.68100	62
1.68467	64
1.68833	65
1.69200	66
1.69567	67
1.69933	69
1.70300	68
1.70667	67
1.71033	68
1.71400	68
1.71767	69
1.72133	71
1.72500	71
1.72867	71
1.73233	71
1.73600	71
1.73967	71
1.74333	71
1.74700	75
1.75067	79
1.75433	82
1.75800	82
1.76167	83
1.76533	83
1.76900	82
1.77267	81
1.77633	82
1.78000	84
1.78367	86
1.78733	87
1.79100	88
1.79467	87
1.79833	86
1.80200	87
1.80567	87
1.80933	85
1.81300	84
1.81667	84
1.82033	84
1.82400	84
1.82767	84
1.83133	85
1.83500	87
1.83867	89
1.84233	90
1.84600	92
1.84967	91
1.85333	90
1.85700	90
1.86067	88
1.86433	87
1.86800	88
1.87167	91
1.87533	92
1.87900	91
1.88267	90
1.88633	90
1.89000	91
1.89367	93
1.89733	94
1.90100	94
1.90467	92
1.90833	92
1.91200	94
1.91567	94
1.91933	94
1.92300	93
1.92667	90
1.93033	91
1.93400	95
1.93767	97
1.94133	98
1.94500	99
1.94867	100
1.95233	101
1.95600	103
1.95967	104
1.96333	104
1.96700	104
1.97067	103
1.97433	102
1.97800	102
1.98167	104
1.98533	107
1.98900	110
1.99267	112
1.99633	111
2.00000	113
2.00367	111
2.00733	110
2.01100	109
2.01467	110
2.01833	114
2.02200	116
2.02567	116
2.02933	116
2.03300	118
2.03667	120
2.04033	120
2.04400	121
2.04767	121
2.05133	122
2.05500	123
2.05867	128
2.06233	134
2.06600	136
2.06967	136
2.07333	136
2.07700	136
2.08067	135
2.08433	132
2.08800	132
2.09167	134
2.09533	137
2.09900	140
2.10267	144
2.10633	143
2.11000	141
2.11367	141
2.11733	140
2.12100	140
2.12467	140
2.12833	141
2.13200	143
2.13567	147
2.13933	150
2.14300	151
2.14667	151
2.15033	150
2.15400	150
2.15767	152
2.16133	154
2.16500	155
2.16867	157
2.17233	158
2.17600	158
2.17967	159
2.18333	157
2.18700	154
2.19067	153
2.19433	156
2.19800	159
2.20167	160
2.20533	161
2.20900	161
2.21267	164
2.21633	168
2.22000	169
2.22367	170
2.22733	170
2.23100	169
2.23467	167
2.23833	165
2.24200	165
2.24567	166
2.24933	167
2.25300	167
2.25667	166
2.26033	167
2.26400	171
2.26767	172
2.27133	173
2.27500	176
2.27867	176
2.28233	176
2.28600	173
2.28967	172
2.29333	172
2.29700	173
2.30067	174
2.30433	174
2.30800	176
2.31167	178
2.31533	177
2.31900	177
2.32267	177
2.32633	177
2.33000	176
2.33367	176
2.33733	174
2.34100	174
2.34467	175
2.34833	178
2.35200	181
2.35567	183
2.35933	182
2.36300	181
2.36667	181
2.37033	183
2.37400	183
2.37767	183
2.38133	183
2.38500	184
2.38867	185
2.39233	185
2.39600	183
2.39967	181
2.40333	181
2.40700	182
2.41067	183
2.41433	183
2.41800	185
2.42167	186
2.42533	189
2.42900	191
2.43267	193
2.43633	194
2.44000	195
2.44367	202
2.44733	219
2.45100	231
2.45467	233
2.45833	223
2.46200	198
2.46567	174
2.46933	155
2.47300	141
2.47667	128
2.48033	117
2.48400	106
2.48767	79
2.49133	37
2.49500	15
2.49867	27
2.50233	71
2.50600	139
2.50967	220
2.51333	305
2.51700	386
2.52067	458
2.52433	523
2.52800	579
2.53167	631
2.53533	676
2.53900	716
2.54267	749
2.54633	781
2.55000	810
2.55367	835
2.55733	858
2.56100	875
2.56467	890
2.56833	903
2.57200	914
2.57567	922
2.57933	931
2.58300	937
2.58667	943
2.59033	947
2.59400	945
2.59767	939
2.60133	927
2.60500	909
2.60867	886
2.61233	857
2.61600	823
2.61967	786
2.62333	747
2.62700	708
2.63067	674
2.63433	647
2.63800	625
2.64167	610
2.64533	599
2.64900	594
2.65267	594
2.65633	595
2.66000	598
2.66367	602
2.66733	610
2.67100	619
2.67467	628
2.67833	638
2.68200	650
2.68567	660
2.68933	670
2.69300	681
2.69667	691
2.70033	698
2.70400	706
2.70767	713
2.71133	724
2.71500	733
2.71867	739
2.72233	745
2.72600	750
2.72967	757
2.73333	764
2.73700	770
2.74067	777
2.74433	783
2.74800	789
2.75167	791
2.75533	791
2.75900	794
2.76267	799
2.76633	802
2.77000	804
2.77367	805
2.77733	807
2.78100	810
2.78467	812
2.78833	812
2.79200	813
2.79567	812
2.79933	812
2.80300	815
2.80667	817
2.81033	818
2.81400	818
2.81767	819
2.82133	822
2.82500	830
2.82867	849
2.83233	890
2.83600	968
2.83967	1105
2.84333	1325
2.84700	1643
2.85067	2071
2.85433	2602
2.85800	3208
2.86167	3845
2.86533	4467
2.86900	5022
2.87267	5468
2.87633	5774
2.88000	5927
2.88367	5931
2.88733	5805
2.89100	5572
2.89467	5263
2.89833	4908
2.90200	4533
2.90567	4156
2.90933	3791
2.91300	3445
2.91667	3125
2.92033	2835
2.92400	2574
2.92767	2339
2.93133	2130
2.93500	1945
2.93867	1784
2.94233	1645
2.94600	1525
2.94967	1420
2.95333	1329
2.95700	1250
2.96067	1183
2.96433	1125
2.96800	1072
2.97167	1024
2.97533	983
2.97900	948
2.98267	916
2.98633	889
2.99000	864
2.99367	846
2.99733	832
3.00100	817
3.00467	807
3.00833	798
3.01200	790
3.01567	782
3.01933	775
3.02300	767
3.02667	761
3.03033	758
3.03400	754
3.03767	750
3.04133	747
3.04500	744
3.04867	741
3.05233	739
3.05600	735
3.05967	733
3.06333	734
3.06700	733
3.07067	731
3.07433	728
3.07800	723
3.08167	716
3.08533	713
3.08900	711
3.09267	709
3.09633	708
3.10000	706
3.10367	703
3.10733	702
3.11100	701
3.11467	701
3.11833	701
3.12200	701
3.12567	699
3.12933	696
3.13300	694
3.13667	693
3.14033	692
3.14400	688
3.14767	686
3.15133	686
3.15500	684
3.15867	682
3.16233	680
3.16600	678
3.16967	677
3.17333	674
3.17700	670
3.18067	665
3.18433	663
3.18800	663
3.19167	663
3.19533	663
3.19900	662
3.20267	660
3.20633	657
3.21000	656
3.21367	654
3.21733	651
3.22100	648
3.22467	646
3.22833	643
3.23200	640
3.23567	638
3.23933	637
3.24300	637
3.24667	638
3.25033	635
3.25400	633
3.25767	633
3.26133	632
3.26500	630
3.26867	628
3.27233	625
3.27600	620
3.27967	616
3.28333	614
3.28700	610
3.29067	608
3.29433	604
3.29800	599
3.30167	595
3.30533	592
3.30900	589
3.31267	589
3.31633	591
3.32000	590
3.32367	587
3.32733	585
3.33100	580
3.33467	577
3.33833	574
3.34200	572
3.34567	569
3.34933	567
3.35300	564
3.35667	560
3.36033	555
3.36400	554
3.36767	555
3.37133	557
3.37500	555
3.37867	552
3.38233	547
3.38600	543
3.38967	539
3.39333	534
3.39700	532
3.40067	529
3.40433	527
3.40800	525
3.41167	523
3.41533	520
3.41900	516
3.42267	513
3.42633	511
3.43000	509
3.43367	507
3.43733	504
3.44100	502
3.44467	498
3.44833	494
3.45200	493
3.45567	491
3.45933	489
3.46300	482
3.46667	475
3.47033	473
3.47400	472
3.47767	471
3.48133	469
3.48500	468
3.48867	467
3.49233	463
3.49600	460
3.49967	460
3.50333	459
3.50700	455
3.51067	453
3.51433	451
3.51800	449
3.52167	448
3.52533	446
3.52900	445
3.53267	442
3.53633	441
3.54000	441
3.54367	440
3.54733	438
3.55100	435
3.55467	433
3.55833	430
3.56200	425
3.56567	423
3.56933	421
3.57300	419
3.57667	419
3.58033	417
3.58400	416
3.58767	416
3.59133	414
3.59500	412
3.59867	412
3.60233	411
3.60600	409
3.60967	408
3.61333	402
3.61700	397
3.62067	394
3.62433	394
3.62800	395
3.63167	394
3.63533	393
3.63900	388
3.64267	386
3.64633	387
3.65000	389
3.65367	389
3.65733	387
3.66100	386
3.66467	383
3.66833	384
3.67200	383
3.67567	382
3.67933	382
3.68300	382
3.68667	382
3.69033	380
3.69400	379
3.69767	375
3.70133	373
3.70500	371
3.70867	371
3.71233	369
3.71600	365
3.71967	363
3.72333	363
3.72700	364
3.73067	366
3.73433	364
3.73800	360
3.74167	358
3.74533	355
3.74900	354
3.75267	354
3.75633	353
3.76000	350
3.76367	348
3.76733	346
3.77100	344
3.77467	343
3.77833	342
3.78200	341
3.78567	340
3.78933	338
3.79300	337
3.79667	338
3.80033	339
3.80400	341
3.80767	344
3.81133	344
3.81500	342
3.81867	339
3.82233	334
3.82600	330
3.82967	327
3.83333	326
3.83700	325
3.84067	325
3.84433	324
3.84800	325
3.85167	323
3.85533	323
3.85900	323
3.86267	323
3.86633	323
3.87000	324
3.87367	324
3.87733	322
3.88100	319
3.88467	319
3.88833	318
3.89200	317
3.89567	315
3.89933	314
3.90300	313
3.90667	311
3.91033	307
3.91400	305
3.91767	302
3.92133	301
3.92500	300
3.92867	300
3.93233	301
3.93600	301
3.93967	300
3.94333	300
3.94700	299
3.95067	298
3.95433	299
3.95800	299
3.96167	296
3.96533	294
3.96900	291
3.97267	287
3.97633	286
3.98000	287
3.98367	287
3.98733	284
3.99100	282
3.99467	280
3.99833	280

[Status Trace (Column Oven Temperature)]
Interval(msec)	1000
# of Points	240
Start Time(min)	0.012
End Time(min)	3.995
Intensity Units	
Intensity Multiplier	1
R.Time (min)	Intensity
0.01172	35.01
0.02838	35.00
0.04505	34.99
0.06172	34.99
0.07838	34.98
0.09505	34.98
0.11172	34.99
0.12838	35.00
0.14505	34.99
0.16172	34.99
0.17838	34.98
0.19505	34.97
0.21172	34.96
0.22838	34.96
0.24505	34.97
0.26172	34.98
0.27838	34.99
0.29505	35.01
0.31172	35.03
0.32838	35.04
0.34505	35.03
0.36172	35.04
0.37838	35.04
0.39505	35.04
0.41172	35.03
0.42838	35.02
0.44505	35.02
0.46172	35.02
0.47838	35.01
0.49505	35.02
0.51172	35.02
0.52838	35.03
0.54505	35.02
0.56172	35.01
0.57838	34.99
0.59505	34.97
0.61172	34.97
0.62838	34.96
0.64505	34.96
0.66172	34.96
0.67838	34.96
0.69505	34.97
0.71172	34.97
0.72838	34.96
0.74505	34.96
0.76172	34.97
0.77838	34.97
0.79505	34.98
0.81172	34.98
0.82838	34.98
0.84505	34.98
0.86172	34.99
0.87838	34.99
0.89505	35.00
0.91172	35.01
0.92838	35.01
0.94505	35.01
0.96172	35.01
0.97838	34.99
0.99505	35.00
1.01172	35.00
1.02838	35.00
1.04505	35.00
1.06172	35.00
1.07838	35.00
1.09505	35.00
1.11172	34.99
1.12838	34.99
1.14505	34.99
1.16172	34.97
1.17838	34.97
1.19505	34.97
1.21172	34.97
1.22838	34.97
1.24505	34.97
1.26172	34.97
1.27838	34.98
1.29505	34.98
1.31172	35.00
1.32838	35.01
1.34505	35.01
1.36172	35.01
1.37838	35.01
1.39505	35.01
1.41172	35.03
1.42838	35.04
1.44505	35.06
1.46172	35.04
1.47838	35.03
1.49505	35.03
1.51172	35.01
1.52838	35.01
1.54505	35.00
1.56172	35.00
1.57838	35.00
1.59505	35.03
1.61172	35.09
1.62838	35.23
1.64505	35.42
1.66172	35.68
1.67838	36.03
1.69505	36.39
1.71172	36.73
1.72838	37.09
1.74505	37.42
1.76172	37.72
1.77838	38.04
1.79505	38.38
1.81172	38.72
1.82838	39.05
1.84505	39.39
1.86172	39.73
1.87838	40.06
1.89505	40.39
1.91172	40.72
1.92838	41.06
1.94505	41.38
1.96172	41.70
1.97838	42.03
1.99505	42.36
2.01172	42.69
2.02838	43.01
2.04505	43.32
2.06172	43.66
2.07838	43.98
2.09505	44.31
2.11172	44.63
2.12838	44.95
2.14505	45.27
2.16172	45.59
2.17838	45.93
2.19505	46.25
2.21172	46.59
2.22838	46.89
2.24505	47.24
2.26172	47.56
2.27838	47.88
2.29505	48.21
2.31172	48.55
2.32838	48.88
2.34505	49.19
2.36172	49.51
2.37838	49.69
2.39505	49.73
2.41172	49.73
2.42838	49.73
2.44505	49.75
2.46172	49.75
2.47838	49.77
2.49505	49.77
2.51172	49.77
2.52838	49.79
2.54505	49.80
2.56172	49.80
2.57838	49.84
2.59505	49.85
2.61172	49.85
2.62838	49.85
2.64505	49.85
2.66172	49.84
2.67838	49.86
2.69505	49.87
2.71172	49.87
2.72838	49.86
2.74505	49.87
2.76172	49.88
2.77838	49.88
2.79505	49.89
2.81172	49.89
2.82838	49.91
2.84505	49.92
2.86172	49.94
2.87838	49.96
2.89505	49.97
2.91172	49.97
2.92838	49.99
2.94505	50.01
2.96172	50.02
2.97838	50.02
2.99505	50.02
3.01172	50.03
3.02838	50.03
3.04505	50.04
3.06172	50.06
3.07838	50.08
3.09505	50.08
3.11172	50.09
3.12838	50.10
3.14505	50.11
3.16172	50.10
3.17838	50.08
3.19505	50.08
3.21172	50.08
3.22838	50.08
3.24505	50.08
3.26172	50.08
3.27838	50.07
3.29505	50.06
3.31172	50.08
3.32838	50.09
3.34505	50.08
3.36172	50.08
3.37838	50.09
3.39505	50.10
3.41172	50.09
3.42838	50.09
3.44505	50.09
3.46172	50.09
3.47838	50.08
3.49505	50.08
3.51172	50.07
3.52838	50.07
3.54505	50.07
3.56172	50.06
3.57838	50.07
3.59505	50.08
3.61172	50.09
3.62838	50.09
3.64505	50.09
3.66172	50.08
3.67838	50.08
3.69505	50.08
3.71172	50.08
3.72838	50.08
3.74505	50.09
3.76172	50.09
3.77838	50.09
3.79505	50.07
3.81172	50.06
3.82838	50.06
3.84505	50.06
3.86172	50.06
3.87838	50.06
3.89505	50.06
3.91172	50.06
3.92838	50.06
3.94505	50.06
3.96172	50.05
3.97838	50.06
3.99505	50.06

[Status Trace (Injection Unit Temperature)]
Interval(msec)	1000
# of Points	240
Start Time(min)	0.012
End Time(min)	3.995
Intensity Units	
Intensity Multiplier	1
R.Time (min)	Intensity
0.01172	99.99
0.02838	99.98
0.04505	99.98
0.06172	99.98
0.07838	99.98
0.09505	99.98
0.11172	99.98
0.12838	99.99
0.14505	99.98
0.16172	99.99
0.17838	99.98
0.19505	99.99
0.21172	99.98
0.22838	99.99
0.24505	99.99
0.26172	99.98
0.27838	99.98
0.29505	99.99
0.31172	99.98
0.32838	99.98
0.34505	99.98
0.36172	99.99
0.37838	99.98
0.39505	99.98
0.41172	99.98
0.42838	99.99
0.44505	99.98
0.46172	99.98
0.47838	99.98
0.49505	99.99
0.51172	99.98
0.52838	99.98
0.54505	99.98
0.56172	99.98
0.57838	99.99
0.59505	99.98
0.61172	99.98
0.62838	99.98
0.64505	99.99
0.66172	99.98
0.67838	99.98
0.69505	99.99
0.71172	99.99
0.72838	99.98
0.74505	99.98
0.76172	99.99
0.77838	99.98
0.79505	99.98
0.81172	99.99
0.82838	99.98
0.84505	99.99
0.86172	99.99
0.87838	99.99
0.89505	99.99
0.91172	99.98
0.92838	99.99
0.94505	99.98
0.96172	99.99
0.97838	99.99
0.99505	99.98
1.01172	99.99
1.02838	99.99
1.04505	99.99
1.06172	99.99
1.07838	99.99
1.09505	99.99
1.11172	99.98
1.12838	99.98
1.14505	99.99
1.16172	99.99
1.17838	99.99
1.19505	99.99
1.21172	99.98
1.22838	99.99
1.24505	99.98
1.26172	99.99
1.27838	99.99
1.29505	99.99
1.31172	99.99
1.32838	99.99
1.34505	99.99
1.36172	99.99
1.37838	99.98
1.39505	99.99
1.41172	99.99
1.42838	99.98
1.44505	99.98
1.46172	99.99
1.47838	99.99
1.49505	99.99
1.51172	99.99
1.52838	99.99
1.54505	99.98
1.56172	99.98
1.57838	99.99
1.59505	99.99
1.61172	99.99
1.62838	99.99
1.64505	99.99
1.66172	99.99
1.67838	99.99
1.69505	99.98
1.71172	99.99
1.72838	99.99
1.74505	99.99
1.76172	99.98
1.77838	99.98
1.79505	99.98
1.81172	99.98
1.82838	99.98
1.84505	99.98
1.86172	99.98
1.87838	99.98
1.89505	99.98
1.91172	99.98
1.92838	99.98
1.94505	99.98
1.96172	99.98
1.97838	99.97
1.99505	99.98
2.01172	99.98
2.02838	99.98
2.04505	99.98
2.06172	99.98
2.07838	99.98
2.09505	99.98
2.11172	99.97
2.12838	99.98
2.14505	99.97
2.16172	99.97
2.17838	99.97
2.19505	99.97
2.21172	99.97
2.22838	99.97
2.24505	99.97
2.26172	99.97
2.27838	99.97
2.29505	99.97
2.31172	99.97
2.32838	99.97
2.34505	99.97
2.36172	99.96
2.37838	99.97
2.39505	99.97
2.41172	99.97
2.42838	99.97
2.44505	99.97
2.46172	99.97
2.47838	99.97
2.49505	99.98
2.51172	99.97
2.52838	99.97
2.54505	99.98
2.56172	99.98
2.57838	99.98
2.59505	99.98
2.61172	99.97
2.62838	99.98
2.64505	99.98
2.66172	99.98
2.67838	99.98
2.69505	99.98
2.71172	99.98
2.72838	99.99
2.74505	99.99
2.76172	99.99
2.77838	99.99
2.79505	99.99
2.81172	99.99
2.82838	100.00
2.84505	100.00
2.86172	100.00
2.87838	100.00
2.89505	100.00
2.91172	100.00
2.92838	100.01
2.94505	100.01
2.96172	100.01
2.97838	100.00
2.99505	100.01
3.01172	100.01
3.02838	100.01
3.04505	100.01
3.06172	100.02
3.07838	100.01
3.09505	100.01
3.11172	100.01
3.12838	100.02
3.14505	100.02
3.16172	100.02
3.17838	100.02
3.19505	100.02
3.21172	100.02
3.22838	100.02
3.24505	100.02
3.26172	100.02
3.27838	100.03
3.29505	100.03
3.31172	100.03
3.32838	100.03
3.34505	100.03
3.36172	100.03
3.37838	100.03
3.39505	100.02
3.41172	100.03
3.42838	100.03
3.44505	100.04
3.46172	100.04
3.47838	100.04
3.49505	100.04
3.51172	100.04
3.52838	100.04
3.54505	100.04
3.56172	100.03
3.57838	100.04
3.59505	100.04
3.61172	100.04
3.62838	100.04
3.64505	100.04
3.66172	100.04
3.67838	100.04
3.69505	100.04
3.71172	100.04
3.72838	100.04
3.74505	100.05
3.76172	100.05
3.77838	100.04
3.79505	100.04
3.81172	100.04
3.82838	100.04
3.84505	100.04
3.86172	100.04
3.87838	100.05
3.89505	100.05
3.91172	100.04
3.92838	100.05
3.94505	100.05
3.96172	100.04
3.97838	100.05
3.99505	100.05

[Status Trace (Carrier Gas Pressure)]
Interval(msec)	1000
# of Points	240
Start Time(min)	0.012
End Time(min)	3.995
Intensity Units	
Intensity Multiplier	1
R.Time (min)	Intensity
0.01172	58.00
0.02838	54.94
0.04505	57.50
0.06172	59.58
0.07838	59.06
0.09505	58.02
0.11172	57.99
0.12838	58.01
0.14505	58.01
0.16172	58.00
0.17838	58.00
0.19505	58.00
0.21172	58.00
0.22838	58.00
0.24505	58.00
0.26172	58.00
0.27838	58.00
0.29505	58.00
0.31172	58.00
0.32838	58.00
0.34505	58.00
0.36172	58.00
0.37838	58.00
0.39505	58.00
0.41172	58.00
0.42838	58.00
0.44505	58.00
0.46172	58.00
0.47838	58.00
0.49505	58.00
0.51172	58.00
0.52838	58.00
0.54505	58.00
0.56172	58.00
0.57838	58.00
0.59505	58.00
0.61172	58.00
0.62838	58.00
0.64505	58.00
0.66172	58.00
0.67838	58.00
0.69505	58.00
0.71172	58.00
0.72838	58.00
0.74505	58.00
0.76172	58.00
0.77838	58.00
0.79505	58.00
0.81172	58.00
0.82838	58.00
0.84505	58.00
0.86172	58.00
0.87838	58.00
0.89505	58.00
0.91172	58.00
0.92838	58.00
0.94505	58.00
0.96172	58.00
0.97838	58.00
0.99505	58.00
1.01172	58.00
1.02838	58.00
1.04505	58.00
1.06172	58.00
1.07838	58.00
1.09505	58.00
1.11172	58.00
1.12838	58.00
1.14505	58.00
1.16172	58.00
1.17838	58.00
1.19505	58.00
1.21172	58.00
1.22838	58.00
1.24505	58.00
1.26172	58.00
1.27838	58.00
1.29505	58.00
1.31172	58.00
1.32838	58.00
1.34505	58.00
1.36172	58.00
1.37838	58.00
1.39505	58.00
1.41172	58.00
1.42838	58.00
1.44505	58.00
1.46172	58.00
1.47838	58.00
1.49505	58.00
1.51172	58.00
1.52838	58.00
1.54505	58.00
1.56172	58.00
1.57838	58.00
1.59505	58.00
1.61172	58.00
1.62838	58.00
1.64505	58.00
1.66172	58.00
1.67838	58.01
1.69505	58.00
1.71172	58.00
1.72838	58.00
1.74505	58.00
1.76172	58.00
1.77838	58.00
1.79505	58.00
1.81172	58.00
1.82838	58.00
1.84505	58.00
1.86172	58.00
1.87838	58.00
1.89505	58.00
1.91172	58.00
1.92838	58.00
1.94505	58.00
1.96172	58.00
1.97838	58.00
1.99505	58.00
2.01172	58.00
2.02838	58.00
2.04505	58.00
2.06172	58.00
2.07838	58.00
2.09505	58.00
2.11172	58.00
2.12838	58.00
2.14505	58.00
2.16172	58.00
2.17838	58.00
2.19505	58.00
2.21172	58.00
2.22838	58.00
2.24505	58.00
2.26172	58.00
2.27838	58.00
2.29505	58.00
2.31172	58.00
2.32838	58.00
2.34505	58.00
2.36172	58.00
2.37838	58.00
2.39505	57.99
2.41172	57.99
2.42838	58.00
2.44505	58.00
2.46172	58.00
2.47838	58.00
2.49505	58.00
2.51172	57.99
2.52838	57.99
2.54505	58.00
2.56172	58.00
2.57838	58.00
2.59505	58.00
2.61172	58.00
2.62838	58.00
2.64505	58.00
2.66172	58.00
2.67838	58.00
2.69505	58.00
2.71172	58.00
2.72838	58.00
2.74505	58.00
2.76172	58.00
2.77838	58.00
2.79505	58.00
2.81172	58.00
2.82838	58.00
2.84505	58.00
2.86172	58.00
2.87838	58.00
2.89505	58.00
2.91172	58.00
2.92838	58.00
2.94505	58.00
2.96172	58.00
2.97838	58.00
2.99505	58.00
3.01172	58.00
3.02838	58.00
3.04505	58.00
3.06172	58.00
3.07838	58.00
3.09505	58.00
3.11172	58.00
3.12838	58.00
3.14505	58.00
3.16172	58.00
3.17838	58.00
3.19505	58.00
3.21172	58.00
3.22838	58.00
3.24505	58.00
3.26172	58.00
3.27838	58.00
3.29505	58.00
3.31172	58.00
3.32838	58.00
3.34505	58.00
3.36172	58.00
3.37838	58.00
3.39505	58.00
3.41172	58.00
3.42838	58.00
3.44505	58.00
3.46172	58.00
3.47838	58.00
3.49505	58.00
3.51172	58.00
3.52838	58.00
3.54505	58.00
3.56172	58.00
3.57838	58.00
3.59505	58.00
3.61172	58.00
3.62838	58.00
3.64505	58.00
3.66172	58.00
3.67838	58.00
3.69505	58.00
3.71172	58.00
3.72838	58.00
3.74505	58.00
3.76172	58.00
3.77838	58.00
3.79505	58.00
3.81172	58.00
3.82838	58.00
3.84505	58.00
3.86172	58.00
3.87838	58.00
3.89505	58.00
3.91172	58.00
3.92838	58.00
3.94505	58.00
3.96172	58.00
3.97838	58.00
3.99505	58.00

[Status Trace (Carrier Gas Flow)]
Interval(msec)	1000
# of Points	240
Start Time(min)	0.012
End Time(min)	3.995
Intensity Units	
Intensity Multiplier	1
R.Time (min)	Intensity
0.01172	34.52
0.02838	34.54
0.04505	34.55
0.06172	34.55
0.07838	34.50
0.09505	34.52
0.11172	34.52
0.12838	34.52
0.14505	34.52
0.16172	34.52
0.17838	34.52
0.19505	34.52
0.21172	34.52
0.22838	34.52
0.24505	34.52
0.26172	34.52
0.27838	34.52
0.29505	34.52
0.31172	34.52
0.32838	34.52
0.34505	34.52
0.36172	34.52
0.37838	34.52
0.39505	34.52
0.41172	34.52
0.42838	34.52
0.44505	34.52
0.46172	34.52
0.47838	34.52
0.49505	34.52
0.51172	34.52
0.52838	34.52
0.54505	34.52
0.56172	34.52
0.57838	34.52
0.59505	34.52
0.61172	34.52
0.62838	34.52
0.64505	34.52
0.66172	34.52
0.67838	34.52
0.69505	34.52
0.71172	34.52
0.72838	34.52
0.74505	34.52
0.76172	34.52
0.77838	34.52
0.79505	34.52
0.81172	34.52
0.82838	34.52
0.84505	34.52
0.86172	34.51
0.87838	34.52
0.89505	34.52
0.91172	34.52
0.92838	34.52
0.94505	34.52
0.96172	34.52
0.97838	34.52
0.99505	34.52
1.01172	34.52
1.02838	34.52
1.04505	34.52
1.06172	34.52
1.07838	34.52
1.09505	34.52
1.11172	34.52
1.12838	34.52
1.14505	34.52
1.16172	34.51
1.17838	34.51
1.19505	34.53
1.21172	34.52
1.22838	34.51
1.24505	34.53
1.26172	34.52
1.27838	34.53
1.29505	34.50
1.31172	34.52
1.32838	34.53
1.34505	34.51
1.36172	34.53
1.37838	34.51
1.39505	34.52
1.41172	34.52
1.42838	34.52
1.44505	34.51
1.46172	34.53
1.47838	34.52
1.49505	34.52
1.51172	34.52
1.52838	34.52
1.54505	34.52
1.56172	34.52
1.57838	34.52
1.59505	34.52
1.61172	34.52
1.62838	34.52
1.64505	34.52
1.66172	34.51
1.67838	34.52
1.69505	34.52
1.71172	34.52
1.72838	34.52
1.74505	34.52
1.76172	34.52
1.77838	34.52
1.79505	34.52
1.81172	34.52
1.82838	34.52
1.84505	34.52
1.86172	34.52
1.87838	34.52
1.89505	34.52
1.91172	34.52
1.92838	34.52
1.94505	34.52
1.96172	34.52
1.97838	34.52
1.99505	34.52
2.01172	34.52
2.02838	34.52
2.04505	34.52
2.06172	34.52
2.07838	34.52
2.09505	34.52
2.11172	34.52
2.12838	34.52
2.14505	34.52
2.16172	34.52
2.17838	34.52
2.19505	34.52
2.21172	34.52
2.22838	34.52
2.24505	34.52
2.26172	34.52
2.27838	34.52
2.29505	34.52
2.31172	34.52
2.32838	34.52
2.34505	34.52
2.36172	34.52
2.37838	34.52
2.39505	34.52
2.41172	34.52
2.42838	34.52
2.44505	34.52
2.46172	34.52
2.47838	34.52
2.49505	34.52
2.51172	34.52
2.52838	34.51
2.54505	34.52
2.56172	34.52
2.57838	34.52
2.59505	34.52
2.61172	34.51
2.62838	34.51
2.64505	34.51
2.66172	34.52
2.67838	34.51
2.69505	34.52
2.71172	34.51
2.72838	34.52
2.74505	34.50
2.76172	34.53
2.77838	34.51
2.79505	34.53
2.81172	34.52
2.82838	34.52
2.84505	34.52
2.86172	34.53
2.87838	34.52
2.89505	34.53
2.91172	34.50
2.92838	34.53
2.94505	34.51
2.96172	34.52
2.97838	34.51
2.99505	34.52
3.01172	34.53
3.02838	34.51
3.04505	34.52
3.06172	34.52
3.07838	34.51
3.09505	34.52
3.11172	34.52
3.12838	34.53
3.14505	34.51
3.16172	34.53
3.17838	34.52
3.19505	34.52
3.21172	34.52
3.22838	34.52
3.24505	34.52
3.26172	34.52
3.27838	34.52
3.29505	34.52
3.31172	34.52
3.32838	34.52
3.34505	34.52
3.36172	34.52
3.37838	34.52
3.39505	34.52
3.41172	34.52
3.42838	34.52
3.44505	34.52
3.46172	34.52
3.47838	34.52
3.49505	34.52
3.51172	34.52
3.52838	34.52
3.54505	34.52
3.56172	34.52
3.57838	34.52
3.59505	34.52
3.61172	34.52
3.62838	34.52
3.64505	34.52
3.66172	34.52
3.67838	34.52
3.69505	34.52
3.71172	34.52
3.72838	34.52
3.74505	34.52
3.76172	34.52
3.77838	34.52
3.79505	34.52
3.81172	34.52
3.82838	34.52
3.84505	34.52
3.86172	34.52
3.87838	34.52
3.89505	34.52
3.91172	34.52
3.92838	34.52
3.94505	34.52
3.96172	34.52
3.97838	34.52
3.99505	34.52

[Status Trace (Column Flow)]
Interval(msec)	1000
# of Points	240
Start Time(min)	0.012
End Time(min)	3.995
Intensity Units	
Intensity Multiplier	1
R.Time (min)	Intensity
0.01172	5.55
0.02838	5.20
0.04505	5.50
0.06172	5.74
0.07838	5.68
0.09505	5.56
0.11172	5.55
0.12838	5.56
0.14505	5.56
0.16172	5.56
0.17838	5.56
0.19505	5.56
0.21172	5.56
0.22838	5.56
0.24505	5.56
0.26172	5.56
0.27838	5.56
0.29505	5.55
0.31172	5.55
0.32838	5.55
0.34505	5.55
0.36172	5.55
0.37838	5.55
0.39505	5.55
0.41172	5.55
0.42838	5.55
0.44505	5.55
0.46172	5.55
0.47838	5.55
0.49505	5.55
0.51172	5.55
0.52838	5.55
0.54505	5.55
0.56172	5.55
0.57838	5.56
0.59505	5.56
0.61172	5.56
0.62838	5.56
0.64505	5.56
0.66172	5.56
0.67838	5.56
0.69505	5.56
0.71172	5.56
0.72838	5.56
0.74505	5.56
0.76172	5.56
0.77838	5.56
0.79505	5.56
0.81172	5.56
0.82838	5.56
0.84505	5.56
0.86172	5.56
0.87838	5.56
0.89505	5.56
0.91172	5.55
0.92838	5.55
0.94505	5.55
0.96172	5.55
0.97838	5.56
0.99505	5.56
1.01172	5.56
1.02838	5.56
1.04505	5.56
1.06172	5.56
1.07838	5.56
1.09505	5.56
1.11172	5.56
1.12838	5.56
1.14505	5.56
1.16172	5.56
1.17838	5.56
1.19505	5.56
1.21172	5.56
1.22838	5.56
1.24505	5.56
1.26172	5.56
1.27838	5.56
1.29505	5.56
1.31172	5.56
1.32838	5.55
1.34505	5.55
1.36172	5.55
1.37838	5.55
1.39505	5.56
1.41172	5.55
1.42838	5.55
1.44505	5.55
1.46172	5.55
1.47838	5.55
1.49505	5.55
1.51172	5.55
1.52838	5.55
1.54505	5.55
1.56172	5.55
1.57838	5.55
1.59505	5.55
1.61172	5.55
1.62838	5.55
1.64505	5.54
1.66172	5.53
1.67838	5.52
1.69505	5.51
1.71172	5.50
1.72838	5.49
1.74505	5.48
1.76172	5.47
1.77838	5.46
1.79505	5.45
1.81172	5.44
1.82838	5.43
1.84505	5.42
1.86172	5.41
1.87838	5.40
1.89505	5.39
1.91172	5.38
1.92838	5.37
1.94505	5.36
1.96172	5.35
1.97838	5.34
1.99505	5.33
2.01172	5.32
2.02838	5.31
2.04505	5.30
2.06172	5.29
2.07838	5.28
2.09505	5.27
2.11172	5.26
2.12838	5.25
2.14505	5.24
2.16172	5.23
2.17838	5.22
2.19505	5.21
2.21172	5.21
2.22838	5.20
2.24505	5.19
2.26172	5.18
2.27838	5.17
2.29505	5.16
2.31172	5.15
2.32838	5.14
2.34505	5.13
2.36172	5.12
2.37838	5.12
2.39505	5.12
2.41172	5.12
2.42838	5.12
2.44505	5.12
2.46172	5.12
2.47838	5.12
2.49505	5.12
2.51172	5.11
2.52838	5.11
2.54505	5.11
2.56172	5.11
2.57838	5.11
2.59505	5.11
2.61172	5.11
2.62838	5.11
2.64505	5.11
2.66172	5.11
2.67838	5.11
2.69505	5.11
2.71172	5.11
2.72838	5.11
2.74505	5.11
2.76172	5.11
2.77838	5.11
2.79505	5.11
2.81172	5.11
2.82838	5.11
2.84505	5.11
2.86172	5.11
2.87838	5.11
2.89505	5.11
2.91172	5.11
2.92838	5.11
2.94505	5.11
2.96172	5.11
2.97838	5.11
2.99505	5.11
3.01172	5.11
3.02838	5.11
3.04505	5.11
3.06172	5.11
3.07838	5.11
3.09505	5.11
3.11172	5.11
3.12838	5.11
3.14505	5.11
3.16172	5.11
3.17838	5.11
3.19505	5.11
3.21172	5.11
3.22838	5.11
3.24505	5.11
3.26172	5.11
3.27838	5.11
3.29505	5.11
3.31172	5.11
3.32838	5.11
3.34505	5.11
3.36172	5.11
3.37838	5.11
3.39505	5.11
3.41172	5.11
3.42838	5.11
3.44505	5.11
3.46172	5.11
3.47838	5.11
3.49505	5.11
3.51172	5.11
3.52838	5.11
3.54505	5.11
3.56172	5.11
3.57838	5.11
3.59505	5.11
3.61172	5.11
3.62838	5.11
3.64505	5.11
3.66172	5.11
3.67838	5.11
3.69505	5.11
3.71172	5.11
3.72838	5.11
3.74505	5.11
3.76172	5.11
3.77838	5.11
3.79505	5.11
3.81172	5.11
3.82838	5.11
3.84505	5.11
3.86172	5.11
3.87838	5.11
3.89505	5.11
3.91172	5.11
3.92838	5.11
3.94505	5.11
3.96172	5.11
3.97838	5.11
3.99505	5.11

[Status Trace (Linear Velocity)]
Interval(msec)	1000
# of Points	240
Start Time(min)	0.012
End Time(min)	3.995
Intensity Units	
Intensity Multiplier	1
R.Time (min)	Intensity
0.01172	39.02
0.02838	37.02
0.04505	38.70
0.06172	40.06
0.07838	39.72
0.09505	39.04
0.11172	39.02
0.12838	39.03
0.14505	39.03
0.16172	39.03
0.17838	39.03
0.19505	39.03
0.21172	39.03
0.22838	39.03
0.24505	39.03
0.26172	39.03
0.27838	39.03
0.29505	39.02
0.31172	39.02
0.32838	39.02
0.34505	39.02
0.36172	39.02
0.37838	39.02
0.39505	39.02
0.41172	39.02
0.42838	39.02
0.44505	39.02
0.46172	39.02
0.47838	39.02
0.49505	39.02
0.51172	39.02
0.52838	39.02
0.54505	39.02
0.56172	39.02
0.57838	39.03
0.59505	39.03
0.61172	39.03
0.62838	39.03
0.64505	39.03
0.66172	39.03
0.67838	39.03
0.69505	39.03
0.71172	39.03
0.72838	39.03
0.74505	39.03
0.76172	39.03
0.77838	39.03
0.79505	39.03
0.81172	39.03
0.82838	39.03
0.84505	39.03
0.86172	39.03
0.87838	39.03
0.89505	39.02
0.91172	39.02
0.92838	39.02
0.94505	39.02
0.96172	39.02
0.97838	39.03
0.99505	39.02
1.01172	39.02
1.02838	39.02
1.04505	39.02
1.06172	39.02
1.07838	39.02
1.09505	39.02
1.11172	39.03
1.12838	39.03
1.14505	39.03
1.16172	39.03
1.17838	39.03
1.19505	39.03
1.21172	39.03
1.22838	39.03
1.24505	39.03
1.26172	39.03
1.27838	39.03
1.29505	39.03
1.31172	39.03
1.32838	39.02
1.34505	39.02
1.36172	39.02
1.37838	39.02
1.39505	39.02
1.41172	39.02
1.42838	39.02
1.44505	39.02
1.46172	39.02
1.47838	39.02
1.49505	39.02
1.51172	39.02
1.52838	39.02
1.54505	39.02
1.56172	39.02
1.57838	39.02
1.59505	39.02
1.61172	39.02
1.62838	39.01
1.64505	38.99
1.66172	38.96
1.67838	38.93
1.69505	38.89
1.71172	38.86
1.72838	38.83
1.74505	38.79
1.76172	38.76
1.77838	38.73
1.79505	38.70
1.81172	38.67
1.82838	38.64
1.84505	38.61
1.86172	38.58
1.87838	38.55
1.89505	38.51
1.91172	38.48
1.92838	38.45
1.94505	38.42
1.96172	38.39
1.97838	38.36
1.99505	38.33
2.01172	38.30
2.02838	38.27
2.04505	38.24
2.06172	38.21
2.07838	38.18
2.09505	38.15
2.11172	38.12
2.12838	38.09
2.14505	38.06
2.16172	38.03
2.17838	38.00
2.19505	37.97
2.21172	37.94
2.22838	37.92
2.24505	37.89
2.26172	37.86
2.27838	37.83
2.29505	37.80
2.31172	37.77
2.32838	37.74
2.34505	37.71
2.36172	37.68
2.37838	37.66
2.39505	37.66
2.41172	37.66
2.42838	37.66
2.44505	37.66
2.46172	37.66
2.47838	37.66
2.49505	37.66
2.51172	37.66
2.52838	37.65
2.54505	37.66
2.56172	37.66
2.57838	37.65
2.59505	37.65
2.61172	37.65
2.62838	37.65
2.64505	37.65
2.66172	37.65
2.67838	37.65
2.69505	37.65
2.71172	37.65
2.72838	37.65
2.74505	37.65
2.76172	37.65
2.77838	37.65
2.79505	37.65
2.81172	37.65
2.82838	37.65
2.84505	37.65
2.86172	37.65
2.87838	37.64
2.89505	37.64
2.91172	37.64
2.92838	37.64
2.94505	37.64
2.96172	37.64
2.97838	37.64
2.99505	37.64
3.01172	37.64
3.02838	37.64
3.04505	37.64
3.06172	37.64
3.07838	37.63
3.09505	37.63
3.11172	37.63
3.12838	37.63
3.14505	37.63
3.16172	37.63
3.17838	37.63
3.19505	37.63
3.21172	37.63
3.22838	37.63
3.24505	37.63
3.26172	37.63
3.27838	37.63
3.29505	37.63
3.31172	37.63
3.32838	37.63
3.34505	37.63
3.36172	37.63
3.37838	37.63
3.39505	37.63
3.41172	37.63
3.42838	37.63
3.44505	37.63
3.46172	37.63
3.47838	37.63
3.49505	37.63
3.51172	37.63
3.52838	37.63
3.54505	37.63
3.56172	37.63
3.57838	37.63
3.59505	37.63
3.61172	37.63
3.62838	37.63
3.64505	37.63
3.66172	37.63
3.67838	37.63
3.69505	37.63
3.71172	37.63
3.72838	37.63
3.74505	37.63
3.76172	37.63
3.77838	37.63
3.79505	37.63
3.81172	37.63
3.82838	37.63
3.84505	37.63
3.86172	37.64
3.87838	37.63
3.89505	37.64
3.91172	37.63
3.92838	37.64
3.94505	37.64
3.96172	37.64
3.97838	37.63
3.99505	37.63

