[Header]
Application Name	LabSolutions
Version	5.110
Data File Name	C:\Users\User\Desktop\GC Analyses\Jack\UIC Prairie Sampling\9.2.22\220902_100.gcd
Output Date	10/28/2022
Output Time	1:23:58 PM

[File Information]
Type	Data File
Generated	10/28/2022 1:01:00 PM
Generated by	System Administrator
Modified	10/28/2022 1:05:16 PM
Modified by	System Administrator

[Sample Information]
Operator Name	System Administrator
Acquired	10/28/2022 1:01:15 PM
Sample Type	1:Standard
Level	1
Sample Name	220902_UICPrairie
Sample ID	220902_UICPrairie
ISTD Amount1	1
ISTD Amount2	1
ISTD Amount3	1
ISTD Amount4	1
ISTD Amount5	1
ISTD Amount6	1
ISTD Amount7	1
ISTD Amount8	1
ISTD Amount9	1
ISTD Amount10	1
ISTD Amount11	1
ISTD Amount12	1
ISTD Amount13	1
ISTD Amount14	1
ISTD Amount15	1
ISTD Amount16	1
ISTD Amount17	1
ISTD Amount18	1
ISTD Amount19	1
ISTD Amount20	1
ISTD Amount21	1
ISTD Amount22	1
ISTD Amount23	1
ISTD Amount24	1
ISTD Amount25	1
ISTD Amount26	1
ISTD Amount27	1
ISTD Amount28	1
ISTD Amount29	1
ISTD Amount30	1
ISTD Amount31	1
ISTD Amount32	1
Sample Amount	1
Dilution Factor	1
Vial#	1
Injection Volume	1
Injection Count	1
Bar Code	

[Original Files]
Data File	C:\Users\User\Desktop\GC Analyses\Jack\UIC Prairie Sampling\9.2.22\220902_100.gcd
Method File	C:\LabSolutions\Data\GHG_4min_2022\ghg3_togas_w_acet_4 min_new_int.gcm
Batch File	
Report Format File	c:\LabSolutions\System\DEFAULT.lsr

[File Description]


[Configuration]
Instrument Name	C0B7VH3-Instrument1
Instrument #	1
Line #	1
# of Detectors	3
Detector ID	DET#1	DET#2	DET#3
Detector Name	FID	PTCD	ECD
# of Channels	1	1	1

[Peak Table(Ch1)]
# of Peaks	3
Peak#	R.Time	I.Time	F.Time	Area	Height	A/H	Conc.	Mark	ID#	Name	k'	Plate #	Plate Ht.	Tailing	Resolution	Sep.Factor	Area Ratio	Height Ratio	Conc. %	Norm Conc.
1	1.476	1.435	1.538	16077	6816	2.359	100.000	   	1	CO	0.000	7723	19.422	1.188	0.000	0.000	0	0	16.667	16.667
2	1.567	1.538	1.630	4877	2428	2.009	100.000	 V 	2	CH4	0.062	11090	13.526	0.000	1.447	0.000	0	0	16.667	16.667
3	1.996	1.938	2.301	1739093	839459	2.072	400.000	   	3	CO2	0.353	17297	8.672	1.254	7.135	5.680	0	0	66.667	66.667

[Peak Table(Ch2)]
# of Peaks	0

[Peak Table(Ch3)]
# of Peaks	2
Peak#	R.Time	I.Time	F.Time	Area	Height	A/H	Conc.	Mark	ID#	Name	k'	Plate #	Plate Ht.	Tailing	Resolution	Sep.Factor	Area Ratio	Height Ratio	Conc. %	Norm Conc.
1	2.462	1.619	2.642	9636	366	26.357	0.000	   			0.000	148	1010.301	0.610	0.000	0.000	0	0	0.000	0.000
2	2.876	2.653	3.914	32820	5599	5.862	1.000	   	1	N2O	0.168	12118	12.378	2.370	0.908	0.000	0	0	100.000	100.000

[Compound Results(Ch1)]
# of IDs	6
ID#	Name	R.Time	Area	Height	Conc.	Curve	3rd	2nd	1st	Constant	Area Ratio	Height Ratio	Conc. %	Norm Conc.
1	CO	1.476	16077	6816	100.000	Linear	0.000000e+00	0.000000e+00	1.607720e+002	0.000000e+00	0	0	16.667	16.667
2	CH4	1.567	4877	2428	100.000	Linear	0.000000e+00	0.000000e+00	4.877489e+001	0.000000e+00	0	0	16.667	16.667
3	CO2	1.996	1739093	839459	400.000	Linear	0.000000e+00	0.000000e+00	4.347733e+003	0.000000e+00	0	0	66.667	66.667
4	Ethylene	0.000	0	0	0.000	Linear	0.000000e+00	0.000000e+00	0.000000e+00	0.000000e+00	0	0	0.000	0.000
5	Acetylene	0.000	0	0	0.000	Linear	0.000000e+00	0.000000e+00	0.000000e+00	0.000000e+00	0	0	0.000	0.000
6	Ethane	0.000	0	0	0.000	Linear	0.000000e+00	0.000000e+00	0.000000e+00	0.000000e+00	0	0	0.000	0.000

[Compound Results(Ch2)]
# of IDs	5
ID#	Name	R.Time	Area	Height	Conc.	Curve	3rd	2nd	1st	Constant	Area Ratio	Height Ratio	Conc. %	Norm Conc.
1	Hydrogen	0.000	0	0	0.000	Linear	0.000000e+00	0.000000e+00	0.000000e+00	0.000000e+00	0	0	0.000	0.000
2	Oxygen	0.000	0	0	0.000	Linear	0.000000e+00	0.000000e+00	0.000000e+00	0.000000e+00	0	0	0.000	0.000
3	Nitrogen	0.000	0	0	0.000	Linear	0.000000e+00	0.000000e+00	0.000000e+00	0.000000e+00	0	0	0.000	0.000
4	Methane	0.000	0	0	0.000	Linear	0.000000e+00	0.000000e+00	0.000000e+00	0.000000e+00	0	0	0.000	0.000
5	Carbon Monoxide	0.000	0	0	0.000	Linear	0.000000e+00	0.000000e+00	0.000000e+00	0.000000e+00	0	0	0.000	0.000

[Compound Results(Ch3)]
# of IDs	2
ID#	Name	R.Time	Area	Height	Conc.	Curve	3rd	2nd	1st	Constant	Area Ratio	Height Ratio	Conc. %	Norm Conc.
1	N2O	2.876	32820	5599	1.000	Linear	0.000000e+00	0.000000e+00	3.282048e+004	0.000000e+00	0	0	100.000	100.000
2	SF6	0.000	0	0	0.000	Linear	0.000000e+00	0.000000e+00	0.000000e+00	0.000000e+00	0	0	0.000	0.000

[Group Results(Ch1)]
# of Groups	0

[Group Results(Ch2)]
# of Groups	0

[Group Results(Ch3)]
# of Groups	0

[Chromatogram (Ch1)]
Interval(msec)	220
# of Points	1091
Start Time(min)	0.002
End Time(min)	3.998
R.Time (min)	Intensity
0.00167	-27
0.00533	-27
0.00900	-21
0.01267	-14
0.01633	-10
0.02000	-11
0.02367	-13
0.02733	-14
0.03100	-16
0.03467	-20
0.03833	-25
0.04200	-29
0.04567	-32
0.04933	-33
0.05300	-30
0.05667	-27
0.06033	-22
0.06400	-18
0.06767	-18
0.07133	-18
0.07500	-19
0.07867	-18
0.08233	-16
0.08600	-14
0.08967	-10
0.09333	-7
0.09700	-4
0.10067	-2
0.10433	-2
0.10800	-3
0.11167	-6
0.11533	-12
0.11900	-17
0.12267	-19
0.12633	-18
0.13000	-16
0.13367	-13
0.13733	-5
0.14100	1
0.14467	3
0.14833	2
0.15200	2
0.15567	-1
0.15933	-5
0.16300	-10
0.16667	-11
0.17033	-11
0.17400	-10
0.17767	-8
0.18133	-5
0.18500	-5
0.18867	-7
0.19233	-8
0.19600	-10
0.19967	-9
0.20333	-6
0.20700	-1
0.21067	2
0.21433	3
0.21800	2
0.22167	1
0.22533	-0
0.22900	-6
0.23267	-12
0.23633	-17
0.24000	-17
0.24367	-14
0.24733	-11
0.25100	-8
0.25467	-4
0.25833	-1
0.26200	-3
0.26567	-8
0.26933	-14
0.27300	-17
0.27667	-17
0.28033	-14
0.28400	-9
0.28767	-3
0.29133	1
0.29500	2
0.29867	1
0.30233	2
0.30600	2
0.30967	2
0.31333	3
0.31700	4
0.32067	6
0.32433	8
0.32800	10
0.33167	11
0.33533	8
0.33900	-1
0.34267	-12
0.34633	-21
0.35000	-24
0.35367	-20
0.35733	-11
0.36100	-3
0.36467	1
0.36833	-2
0.37200	-7
0.37567	-9
0.37933	-7
0.38300	-3
0.38667	2
0.39033	5
0.39400	6
0.39767	2
0.40133	-4
0.40500	-7
0.40867	-6
0.41233	-9
0.41600	-13
0.41967	-13
0.42333	-14
0.42700	-15
0.43067	-18
0.43433	-23
0.43800	-26
0.44167	-27
0.44533	-27
0.44900	-23
0.45267	-13
0.45633	-1
0.46000	8
0.46367	7
0.46733	-3
0.47100	-13
0.47467	-22
0.47833	-28
0.48200	-31
0.48567	-31
0.48933	-30
0.49300	-27
0.49667	-22
0.50033	-19
0.50400	-18
0.50767	-16
0.51133	-14
0.51500	-9
0.51867	-3
0.52233	1
0.52600	2
0.52967	5
0.53333	9
0.53700	10
0.54067	9
0.54433	7
0.54800	4
0.55167	0
0.55533	-6
0.55900	-9
0.56267	-8
0.56633	-7
0.57000	-10
0.57367	-15
0.57733	-18
0.58100	-19
0.58467	-15
0.58833	-8
0.59200	-0
0.59567	4
0.59933	5
0.60300	4
0.60667	2
0.61033	-2
0.61400	-8
0.61767	-14
0.62133	-19
0.62500	-20
0.62867	-16
0.63233	-16
0.63600	-18
0.63967	-20
0.64333	-23
0.64700	-25
0.65067	-23
0.65433	-18
0.65800	-10
0.66167	-2
0.66533	3
0.66900	7
0.67267	7
0.67633	6
0.68000	4
0.68367	1
0.68733	-1
0.69100	-2
0.69467	-2
0.69833	-3
0.70200	-5
0.70567	-9
0.70933	-13
0.71300	-15
0.71667	-14
0.72033	-12
0.72400	-11
0.72767	-11
0.73133	-14
0.73500	-16
0.73867	-17
0.74233	-18
0.74600	-19
0.74967	-19
0.75333	-16
0.75700	-9
0.76067	-1
0.76433	2
0.76800	2
0.77167	1
0.77533	1
0.77900	2
0.78267	4
0.78633	5
0.79000	4
0.79367	-1
0.79733	-6
0.80100	-11
0.80467	-16
0.80833	-17
0.81200	-14
0.81567	-9
0.81933	-5
0.82300	-4
0.82667	-4
0.83033	-1
0.83400	-0
0.83767	-5
0.84133	-14
0.84500	-25
0.84867	-31
0.85233	-30
0.85600	-24
0.85967	-19
0.86333	-18
0.86700	-20
0.87067	-22
0.87433	-22
0.87800	-22
0.88167	-20
0.88533	-16
0.88900	-9
0.89267	-1
0.89633	6
0.90000	3
0.90367	-5
0.90733	-13
0.91100	-19
0.91467	-20
0.91833	-16
0.92200	-11
0.92567	-9
0.92933	-9
0.93300	-10
0.93667	-10
0.94033	-7
0.94400	-3
0.94767	1
0.95133	3
0.95500	-1
0.95867	-9
0.96233	-16
0.96600	-21
0.96967	-22
0.97333	-19
0.97700	-14
0.98067	-7
0.98433	-0
0.98800	2
0.99167	2
0.99533	-1
0.99900	-6
1.00267	-9
1.00633	-12
1.01000	-14
1.01367	-13
1.01733	-10
1.02100	-7
1.02467	-1
1.02833	5
1.03200	9
1.03567	11
1.03933	9
1.04300	6
1.04667	6
1.05033	7
1.05400	6
1.05767	2
1.06133	-6
1.06500	-12
1.06867	-17
1.07233	-19
1.07600	-17
1.07967	-12
1.08333	-5
1.08700	-0
1.09067	-1
1.09433	-4
1.09800	-9
1.10167	-12
1.10533	-13
1.10900	-13
1.11267	-11
1.11633	-8
1.12000	-7
1.12367	-9
1.12733	-13
1.13100	-16
1.13467	-19
1.13833	-19
1.14200	-13
1.14567	-2
1.14933	9
1.15300	15
1.15667	14
1.16033	9
1.16400	5
1.16767	0
1.17133	-5
1.17500	-9
1.17867	-12
1.18233	-13
1.18600	-13
1.18967	-13
1.19333	-11
1.19700	-7
1.20067	-4
1.20433	-1
1.20800	-1
1.21167	1
1.21533	3
1.21900	4
1.22267	3
1.22633	1
1.23000	1
1.23367	0
1.23733	-2
1.24100	-2
1.24467	-3
1.24833	-6
1.25200	-10
1.25567	-13
1.25933	-15
1.26300	-16
1.26667	-14
1.27033	-11
1.27400	-7
1.27767	-3
1.28133	-4
1.28500	-6
1.28867	-4
1.29233	-0
1.29600	2
1.29967	2
1.30333	-4
1.30700	-14
1.31067	-20
1.31433	-19
1.31800	-14
1.32167	-8
1.32533	-3
1.32900	-1
1.33267	2
1.33633	3
1.34000	4
1.34367	3
1.34733	2
1.35100	1
1.35467	-0
1.35833	0
1.36200	3
1.36567	6
1.36933	7
1.37300	8
1.37667	7
1.38033	6
1.38400	7
1.38767	10
1.39133	9
1.39500	7
1.39867	7
1.40233	6
1.40600	4
1.40967	1
1.41333	-2
1.41700	-4
1.42067	-5
1.42433	-5
1.42800	-5
1.43167	-5
1.43533	-0
1.43900	60
1.44267	329
1.44633	922
1.45000	1720
1.45367	2650
1.45733	3702
1.46100	4749
1.46467	5646
1.46833	6316
1.47200	6721
1.47567	6820
1.47933	6567
1.48300	5959
1.48667	5085
1.49033	4099
1.49400	3156
1.49767	2353
1.50133	1721
1.50500	1249
1.50867	909
1.51233	670
1.51600	500
1.51967	378
1.52333	292
1.52700	231
1.53067	185
1.53433	150
1.53800	140
1.54167	194
1.54533	379
1.54900	724
1.55267	1172
1.55633	1625
1.56000	2012
1.56367	2294
1.56733	2440
1.57100	2423
1.57467	2229
1.57833	1892
1.58200	1490
1.58567	1104
1.58933	782
1.59300	539
1.59667	366
1.60033	246
1.60400	166
1.60767	116
1.61133	82
1.61500	59
1.61867	43
1.62233	31
1.62600	22
1.62967	18
1.63333	17
1.63700	19
1.64067	23
1.64433	27
1.64800	29
1.65167	30
1.65533	27
1.65900	24
1.66267	23
1.66633	23
1.67000	24
1.67367	22
1.67733	21
1.68100	17
1.68467	12
1.68833	8
1.69200	6
1.69567	5
1.69933	6
1.70300	8
1.70667	12
1.71033	17
1.71400	21
1.71767	20
1.72133	18
1.72500	14
1.72867	8
1.73233	4
1.73600	4
1.73967	5
1.74333	7
1.74700	9
1.75067	13
1.75433	18
1.75800	22
1.76167	24
1.76533	25
1.76900	25
1.77267	21
1.77633	15
1.78000	9
1.78367	7
1.78733	7
1.79100	8
1.79467	10
1.79833	15
1.80200	20
1.80567	19
1.80933	10
1.81300	1
1.81667	-2
1.82033	1
1.82400	5
1.82767	8
1.83133	8
1.83500	7
1.83867	4
1.84233	2
1.84600	1
1.84967	3
1.85333	6
1.85700	8
1.86067	11
1.86433	14
1.86800	16
1.87167	17
1.87533	16
1.87900	15
1.88267	12
1.88633	5
1.89000	-1
1.89367	-5
1.89733	-5
1.90100	-3
1.90467	1
1.90833	5
1.91200	10
1.91567	18
1.91933	22
1.92300	23
1.92667	24
1.93033	23
1.93400	27
1.93767	32
1.94133	39
1.94500	47
1.94867	55
1.95233	81
1.95600	258
1.95967	1276
1.96333	5771
1.96700	20764
1.97067	59116
1.97433	135357
1.97800	254924
1.98167	405913
1.98533	563392
1.98900	700776
1.99267	797370
1.99633	839543
2.00000	822427
2.00367	751533
2.00733	642488
2.01100	516603
2.01467	393885
2.01833	287732
2.02200	203609
2.02567	141064
2.02933	96612
2.03300	65978
2.03667	45282
2.04033	31453
2.04400	22252
2.04767	16121
2.05133	12010
2.05500	9216
2.05867	7281
2.06233	5906
2.06600	4903
2.06967	4157
2.07333	3591
2.07700	3153
2.08067	2808
2.08433	2529
2.08800	2294
2.09167	2093
2.09533	1923
2.09900	1779
2.10267	1657
2.10633	1556
2.11000	1469
2.11367	1389
2.11733	1315
2.12100	1247
2.12467	1182
2.12833	1123
2.13200	1072
2.13567	1028
2.13933	990
2.14300	955
2.14667	920
2.15033	886
2.15400	852
2.15767	820
2.16133	793
2.16500	771
2.16867	754
2.17233	736
2.17600	717
2.17967	699
2.18333	680
2.18700	659
2.19067	638
2.19433	618
2.19800	601
2.20167	587
2.20533	577
2.20900	568
2.21267	559
2.21633	548
2.22000	536
2.22367	528
2.22733	526
2.23100	523
2.23467	514
2.23833	496
2.24200	472
2.24567	446
2.24933	426
2.25300	414
2.25667	408
2.26033	402
2.26400	400
2.26767	400
2.27133	399
2.27500	394
2.27867	388
2.28233	386
2.28600	385
2.28967	380
2.29333	371
2.29700	360
2.30067	354
2.30433	356
2.30800	360
2.31167	365
2.31533	365
2.31900	362
2.32267	359
2.32633	355
2.33000	349
2.33367	344
2.33733	340
2.34100	337
2.34467	336
2.34833	338
2.35200	341
2.35567	342
2.35933	343
2.36300	342
2.36667	341
2.37033	343
2.37400	345
2.37767	342
2.38133	337
2.38500	331
2.38867	326
2.39233	325
2.39600	327
2.39967	329
2.40333	327
2.40700	324
2.41067	323
2.41433	320
2.41800	319
2.42167	319
2.42533	318
2.42900	316
2.43267	313
2.43633	310
2.44000	308
2.44367	309
2.44733	311
2.45100	314
2.45467	316
2.45833	315
2.46200	316
2.46567	321
2.46933	322
2.47300	319
2.47667	314
2.48033	309
2.48400	304
2.48767	298
2.49133	290
2.49500	286
2.49867	285
2.50233	289
2.50600	295
2.50967	299
2.51333	304
2.51700	314
2.52067	327
2.52433	340
2.52800	349
2.53167	353
2.53533	353
2.53900	347
2.54267	339
2.54633	329
2.55000	322
2.55367	318
2.55733	312
2.56100	305
2.56467	303
2.56833	304
2.57200	304
2.57567	305
2.57933	304
2.58300	300
2.58667	293
2.59033	284
2.59400	274
2.59767	267
2.60133	265
2.60500	268
2.60867	274
2.61233	277
2.61600	277
2.61967	276
2.62333	273
2.62700	270
2.63067	270
2.63433	274
2.63800	281
2.64167	289
2.64533	296
2.64900	302
2.65267	304
2.65633	302
2.66000	299
2.66367	294
2.66733	291
2.67100	288
2.67467	284
2.67833	281
2.68200	277
2.68567	275
2.68933	275
2.69300	278
2.69667	285
2.70033	292
2.70400	297
2.70767	300
2.71133	298
2.71500	293
2.71867	288
2.72233	284
2.72600	283
2.72967	281
2.73333	279
2.73700	279
2.74067	280
2.74433	284
2.74800	288
2.75167	289
2.75533	290
2.75900	290
2.76267	290
2.76633	290
2.77000	292
2.77367	296
2.77733	299
2.78100	297
2.78467	294
2.78833	296
2.79200	304
2.79567	318
2.79933	331
2.80300	334
2.80667	328
2.81033	317
2.81400	304
2.81767	292
2.82133	284
2.82500	283
2.82867	282
2.83233	284
2.83600	287
2.83967	291
2.84333	295
2.84700	296
2.85067	296
2.85433	299
2.85800	304
2.86167	307
2.86533	306
2.86900	306
2.87267	307
2.87633	306
2.88000	306
2.88367	305
2.88733	303
2.89100	301
2.89467	301
2.89833	302
2.90200	302
2.90567	300
2.90933	297
2.91300	294
2.91667	291
2.92033	290
2.92400	292
2.92767	296
2.93133	302
2.93500	306
2.93867	307
2.94233	306
2.94600	307
2.94967	310
2.95333	313
2.95700	315
2.96067	317
2.96433	317
2.96800	315
2.97167	312
2.97533	312
2.97900	316
2.98267	323
2.98633	329
2.99000	336
2.99367	343
2.99733	353
3.00100	359
3.00467	361
3.00833	359
3.01200	355
3.01567	352
3.01933	348
3.02300	343
3.02667	336
3.03033	330
3.03400	327
3.03767	329
3.04133	333
3.04500	337
3.04867	336
3.05233	330
3.05600	322
3.05967	316
3.06333	314
3.06700	315
3.07067	312
3.07433	309
3.07800	310
3.08167	312
3.08533	314
3.08900	319
3.09267	325
3.09633	330
3.10000	331
3.10367	331
3.10733	327
3.11100	321
3.11467	315
3.11833	310
3.12200	308
3.12567	309
3.12933	314
3.13300	322
3.13667	329
3.14033	334
3.14400	341
3.14767	347
3.15133	349
3.15500	344
3.15867	334
3.16233	323
3.16600	314
3.16967	305
3.17333	301
3.17700	302
3.18067	303
3.18433	305
3.18800	308
3.19167	312
3.19533	317
3.19900	321
3.20267	324
3.20633	325
3.21000	325
3.21367	324
3.21733	324
3.22100	325
3.22467	326
3.22833	326
3.23200	323
3.23567	320
3.23933	320
3.24300	322
3.24667	322
3.25033	322
3.25400	320
3.25767	320
3.26133	322
3.26500	328
3.26867	337
3.27233	346
3.27600	347
3.27967	344
3.28333	337
3.28700	332
3.29067	331
3.29433	332
3.29800	330
3.30167	323
3.30533	314
3.30900	307
3.31267	302
3.31633	296
3.32000	290
3.32367	287
3.32733	287
3.33100	291
3.33467	300
3.33833	310
3.34200	320
3.34567	325
3.34933	328
3.35300	329
3.35667	330
3.36033	329
3.36400	331
3.36767	334
3.37133	335
3.37500	333
3.37867	331
3.38233	330
3.38600	328
3.38967	325
3.39333	325
3.39700	328
3.40067	332
3.40433	334
3.40800	334
3.41167	333
3.41533	332
3.41900	333
3.42267	334
3.42633	332
3.43000	328
3.43367	323
3.43733	318
3.44100	313
3.44467	308
3.44833	309
3.45200	315
3.45567	321
3.45933	321
3.46300	316
3.46667	308
3.47033	302
3.47400	297
3.47767	291
3.48133	288
3.48500	289
3.48867	293
3.49233	299
3.49600	305
3.49967	313
3.50333	319
3.50700	319
3.51067	316
3.51433	312
3.51800	308
3.52167	305
3.52533	308
3.52900	313
3.53267	317
3.53633	315
3.54000	307
3.54367	299
3.54733	296
3.55100	295
3.55467	297
3.55833	302
3.56200	308
3.56567	310
3.56933	309
3.57300	309
3.57667	311
3.58033	313
3.58400	316
3.58767	321
3.59133	325
3.59500	327
3.59867	324
3.60233	320
3.60600	315
3.60967	313
3.61333	315
3.61700	317
3.62067	321
3.62433	324
3.62800	322
3.63167	312
3.63533	302
3.63900	295
3.64267	292
3.64633	292
3.65000	292
3.65367	292
3.65733	291
3.66100	288
3.66467	286
3.66833	288
3.67200	294
3.67567	301
3.67933	308
3.68300	313
3.68667	315
3.69033	311
3.69400	304
3.69767	297
3.70133	295
3.70500	297
3.70867	301
3.71233	307
3.71600	311
3.71967	311
3.72333	309
3.72700	309
3.73067	309
3.73433	307
3.73800	306
3.74167	309
3.74533	312
3.74900	313
3.75267	315
3.75633	317
3.76000	316
3.76367	313
3.76733	305
3.77100	297
3.77467	292
3.77833	293
3.78200	298
3.78567	303
3.78933	308
3.79300	312
3.79667	316
3.80033	319
3.80400	319
3.80767	317
3.81133	312
3.81500	307
3.81867	305
3.82233	305
3.82600	307
3.82967	312
3.83333	316
3.83700	318
3.84067	317
3.84433	317
3.84800	318
3.85167	319
3.85533	318
3.85900	315
3.86267	311
3.86633	308
3.87000	308
3.87367	310
3.87733	312
3.88100	313
3.88467	315
3.88833	314
3.89200	310
3.89567	305
3.89933	300
3.90300	298
3.90667	300
3.91033	303
3.91400	305
3.91767	305
3.92133	303
3.92500	299
3.92867	297
3.93233	301
3.93600	308
3.93967	312
3.94333	314
3.94700	316
3.95067	320
3.95433	325
3.95800	329
3.96167	330
3.96533	324
3.96900	318
3.97267	312
3.97633	308
3.98000	306
3.98367	305
3.98733	303
3.99100	298
3.99467	295
3.99833	295

[Chromatogram (Ch2)]
Interval(msec)	220
# of Points	1091
Start Time(min)	0.002
End Time(min)	3.998
R.Time (min)	Intensity
0.00167	1
0.00533	1
0.00900	1
0.01267	1
0.01633	1
0.02000	1
0.02367	1
0.02733	1
0.03100	1
0.03467	1
0.03833	1
0.04200	0
0.04567	0
0.04933	-0
0.05300	-1
0.05667	-1
0.06033	-1
0.06400	-1
0.06767	-2
0.07133	-1
0.07500	-1
0.07867	-1
0.08233	-0
0.08600	0
0.08967	1
0.09333	1
0.09700	2
0.10067	2
0.10433	2
0.10800	3
0.11167	3
0.11533	3
0.11900	3
0.12267	3
0.12633	3
0.13000	3
0.13367	3
0.13733	3
0.14100	3
0.14467	3
0.14833	3
0.15200	3
0.15567	3
0.15933	3
0.16300	3
0.16667	3
0.17033	3
0.17400	3
0.17767	3
0.18133	2
0.18500	2
0.18867	2
0.19233	2
0.19600	1
0.19967	1
0.20333	1
0.20700	0
0.21067	-0
0.21433	-1
0.21800	-1
0.22167	-1
0.22533	-1
0.22900	-1
0.23267	-1
0.23633	-1
0.24000	-1
0.24367	-0
0.24733	-0
0.25100	-0
0.25467	-0
0.25833	-0
0.26200	0
0.26567	0
0.26933	0
0.27300	0
0.27667	1
0.28033	1
0.28400	1
0.28767	1
0.29133	1
0.29500	0
0.29867	0
0.30233	-0
0.30600	-0
0.30967	-0
0.31333	-1
0.31700	-0
0.32067	-0
0.32433	-0
0.32800	-0
0.33167	-0
0.33533	-0
0.33900	-0
0.34267	-0
0.34633	-0
0.35000	-0
0.35367	-0
0.35733	-0
0.36100	-0
0.36467	0
0.36833	0
0.37200	1
0.37567	1
0.37933	1
0.38300	1
0.38667	1
0.39033	1
0.39400	1
0.39767	1
0.40133	1
0.40500	1
0.40867	1
0.41233	1
0.41600	1
0.41967	1
0.42333	0
0.42700	0
0.43067	0
0.43433	0
0.43800	1
0.44167	1
0.44533	1
0.44900	0
0.45267	0
0.45633	-0
0.46000	-1
0.46367	-1
0.46733	-1
0.47100	-1
0.47467	-1
0.47833	-1
0.48200	-1
0.48567	-1
0.48933	-1
0.49300	-1
0.49667	-1
0.50033	-1
0.50400	-1
0.50767	-2
0.51133	-2
0.51500	-2
0.51867	-2
0.52233	-2
0.52600	-2
0.52967	-2
0.53333	-2
0.53700	-2
0.54067	-2
0.54433	-2
0.54800	-2
0.55167	-2
0.55533	-2
0.55900	-1
0.56267	-1
0.56633	-1
0.57000	-1
0.57367	-0
0.57733	-0
0.58100	0
0.58467	0
0.58833	1
0.59200	1
0.59567	1
0.59933	1
0.60300	2
0.60667	2
0.61033	2
0.61400	2
0.61767	1
0.62133	1
0.62500	1
0.62867	1
0.63233	1
0.63600	0
0.63967	0
0.64333	-0
0.64700	-1
0.65067	-1
0.65433	-1
0.65800	-1
0.66167	-1
0.66533	-1
0.66900	-1
0.67267	-1
0.67633	-2
0.68000	-2
0.68367	-2
0.68733	-2
0.69100	-3
0.69467	-3
0.69833	-3
0.70200	-3
0.70567	-2
0.70933	-2
0.71300	-2
0.71667	-2
0.72033	-1
0.72400	-1
0.72767	-1
0.73133	-1
0.73500	-1
0.73867	-1
0.74233	-1
0.74600	-1
0.74967	-1
0.75333	-1
0.75700	-1
0.76067	-1
0.76433	-0
0.76800	-0
0.77167	0
0.77533	0
0.77900	1
0.78267	1
0.78633	1
0.79000	1
0.79367	1
0.79733	1
0.80100	1
0.80467	0
0.80833	0
0.81200	0
0.81567	0
0.81933	1
0.82300	1
0.82667	1
0.83033	1
0.83400	2
0.83767	2
0.84133	3
0.84500	3
0.84867	3
0.85233	3
0.85600	2
0.85967	2
0.86333	2
0.86700	2
0.87067	2
0.87433	2
0.87800	2
0.88167	2
0.88533	2
0.88900	2
0.89267	2
0.89633	2
0.90000	2
0.90367	1
0.90733	1
0.91100	1
0.91467	1
0.91833	1
0.92200	1
0.92567	1
0.92933	1
0.93300	1
0.93667	1
0.94033	1
0.94400	1
0.94767	1
0.95133	1
0.95500	1
0.95867	0
0.96233	0
0.96600	-0
0.96967	-0
0.97333	-0
0.97700	-0
0.98067	-0
0.98433	-0
0.98800	-0
0.99167	-0
0.99533	0
0.99900	1
1.00267	1
1.00633	1
1.01000	0
1.01367	0
1.01733	0
1.02100	0
1.02467	0
1.02833	0
1.03200	0
1.03567	0
1.03933	1
1.04300	1
1.04667	1
1.05033	1
1.05400	1
1.05767	1
1.06133	0
1.06500	0
1.06867	-0
1.07233	-0
1.07600	-0
1.07967	-0
1.08333	-0
1.08700	-0
1.09067	-0
1.09433	-0
1.09800	-0
1.10167	-1
1.10533	-1
1.10900	-1
1.11267	-1
1.11633	-1
1.12000	-0
1.12367	0
1.12733	0
1.13100	1
1.13467	1
1.13833	1
1.14200	1
1.14567	0
1.14933	0
1.15300	0
1.15667	0
1.16033	0
1.16400	0
1.16767	0
1.17133	0
1.17500	-0
1.17867	0
1.18233	0
1.18600	-0
1.18967	-0
1.19333	-0
1.19700	-1
1.20067	-1
1.20433	-1
1.20800	-1
1.21167	-1
1.21533	-1
1.21900	-1
1.22267	-1
1.22633	-1
1.23000	-1
1.23367	-1
1.23733	-1
1.24100	-1
1.24467	-0
1.24833	-0
1.25200	-1
1.25567	-1
1.25933	-1
1.26300	-1
1.26667	-1
1.27033	-0
1.27400	-0
1.27767	-0
1.28133	0
1.28500	0
1.28867	0
1.29233	0
1.29600	0
1.29967	-0
1.30333	-0
1.30700	-0
1.31067	-0
1.31433	-1
1.31800	-1
1.32167	-1
1.32533	-1
1.32900	-2
1.33267	-2
1.33633	-2
1.34000	-2
1.34367	-2
1.34733	-2
1.35100	-2
1.35467	-2
1.35833	-2
1.36200	-2
1.36567	-2
1.36933	-2
1.37300	-2
1.37667	-1
1.38033	-1
1.38400	-0
1.38767	0
1.39133	0
1.39500	1
1.39867	1
1.40233	2
1.40600	2
1.40967	2
1.41333	2
1.41700	2
1.42067	2
1.42433	2
1.42800	2
1.43167	2
1.43533	2
1.43900	2
1.44267	2
1.44633	2
1.45000	2
1.45367	2
1.45733	1
1.46100	1
1.46467	1
1.46833	2
1.47200	2
1.47567	2
1.47933	2
1.48300	2
1.48667	2
1.49033	2
1.49400	2
1.49767	2
1.50133	2
1.50500	2
1.50867	2
1.51233	1
1.51600	1
1.51967	1
1.52333	1
1.52700	1
1.53067	1
1.53433	0
1.53800	0
1.54167	-0
1.54533	-0
1.54900	-1
1.55267	-1
1.55633	-1
1.56000	-1
1.56367	-1
1.56733	-1
1.57100	-1
1.57467	-1
1.57833	-1
1.58200	-0
1.58567	-0
1.58933	-0
1.59300	-0
1.59667	-1
1.60033	-1
1.60400	-2
1.60767	-3
1.61133	-5
1.61500	-7
1.61867	-9
1.62233	-11
1.62600	-14
1.62967	-17
1.63333	-20
1.63700	-24
1.64067	-27
1.64433	-31
1.64800	-34
1.65167	-38
1.65533	-42
1.65900	-46
1.66267	-50
1.66633	-54
1.67000	-59
1.67367	-64
1.67733	-70
1.68100	-75
1.68467	-80
1.68833	-85
1.69200	-90
1.69567	-94
1.69933	-97
1.70300	-100
1.70667	-102
1.71033	-104
1.71400	-106
1.71767	-107
1.72133	-108
1.72500	-109
1.72867	-110
1.73233	-111
1.73600	-112
1.73967	-113
1.74333	-114
1.74700	-115
1.75067	-116
1.75433	-117
1.75800	-117
1.76167	-117
1.76533	-116
1.76900	-116
1.77267	-115
1.77633	-115
1.78000	-114
1.78367	-113
1.78733	-113
1.79100	-113
1.79467	-114
1.79833	-115
1.80200	-116
1.80567	-117
1.80933	-118
1.81300	-118
1.81667	-119
1.82033	-119
1.82400	-120
1.82767	-120
1.83133	-120
1.83500	-120
1.83867	-120
1.84233	-119
1.84600	-119
1.84967	-118
1.85333	-118
1.85700	-118
1.86067	-118
1.86433	-119
1.86800	-119
1.87167	-119
1.87533	-119
1.87900	-120
1.88267	-120
1.88633	-120
1.89000	-120
1.89367	-120
1.89733	-120
1.90100	-120
1.90467	-120
1.90833	-120
1.91200	-120
1.91567	-119
1.91933	-119
1.92300	-118
1.92667	-118
1.93033	-118
1.93400	-118
1.93767	-118
1.94133	-119
1.94500	-119
1.94867	-118
1.95233	-117
1.95600	-117
1.95967	-116
1.96333	-115
1.96700	-114
1.97067	-113
1.97433	-113
1.97800	-113
1.98167	-113
1.98533	-113
1.98900	-113
1.99267	-113
1.99633	-113
2.00000	-113
2.00367	-113
2.00733	-113
2.01100	-113
2.01467	-113
2.01833	-113
2.02200	-112
2.02567	-112
2.02933	-111
2.03300	-111
2.03667	-111
2.04033	-110
2.04400	-110
2.04767	-110
2.05133	-109
2.05500	-109
2.05867	-108
2.06233	-108
2.06600	-108
2.06967	-108
2.07333	-108
2.07700	-108
2.08067	-107
2.08433	-107
2.08800	-106
2.09167	-105
2.09533	-105
2.09900	-104
2.10267	-104
2.10633	-103
2.11000	-103
2.11367	-102
2.11733	-102
2.12100	-101
2.12467	-101
2.12833	-101
2.13200	-101
2.13567	-101
2.13933	-101
2.14300	-101
2.14667	-101
2.15033	-100
2.15400	-99
2.15767	-98
2.16133	-97
2.16500	-97
2.16867	-97
2.17233	-97
2.17600	-97
2.17967	-97
2.18333	-97
2.18700	-97
2.19067	-96
2.19433	-96
2.19800	-95
2.20167	-95
2.20533	-95
2.20900	-95
2.21267	-95
2.21633	-94
2.22000	-94
2.22367	-94
2.22733	-93
2.23100	-93
2.23467	-92
2.23833	-92
2.24200	-92
2.24567	-91
2.24933	-90
2.25300	-90
2.25667	-89
2.26033	-89
2.26400	-88
2.26767	-88
2.27133	-88
2.27500	-87
2.27867	-87
2.28233	-87
2.28600	-86
2.28967	-86
2.29333	-86
2.29700	-86
2.30067	-87
2.30433	-88
2.30800	-89
2.31167	-89
2.31533	-90
2.31900	-90
2.32267	-90
2.32633	-89
2.33000	-88
2.33367	-87
2.33733	-86
2.34100	-85
2.34467	-83
2.34833	-82
2.35200	-82
2.35567	-81
2.35933	-80
2.36300	-79
2.36667	-78
2.37033	-76
2.37400	-74
2.37767	-72
2.38133	-69
2.38500	-65
2.38867	-61
2.39233	-56
2.39600	-51
2.39967	-47
2.40333	-42
2.40700	-37
2.41067	-33
2.41433	-29
2.41800	-25
2.42167	-22
2.42533	-19
2.42900	-17
2.43267	-14
2.43633	-12
2.44000	-10
2.44367	-7
2.44733	-5
2.45100	-3
2.45467	-2
2.45833	-0
2.46200	1
2.46567	3
2.46933	4
2.47300	5
2.47667	6
2.48033	7
2.48400	8
2.48767	9
2.49133	10
2.49500	11
2.49867	12
2.50233	13
2.50600	13
2.50967	14
2.51333	14
2.51700	15
2.52067	16
2.52433	17
2.52800	17
2.53167	17
2.53533	18
2.53900	18
2.54267	18
2.54633	18
2.55000	19
2.55367	19
2.55733	19
2.56100	19
2.56467	19
2.56833	20
2.57200	20
2.57567	20
2.57933	20
2.58300	21
2.58667	21
2.59033	20
2.59400	20
2.59767	20
2.60133	20
2.60500	19
2.60867	19
2.61233	19
2.61600	19
2.61967	19
2.62333	20
2.62700	20
2.63067	21
2.63433	22
2.63800	22
2.64167	23
2.64533	23
2.64900	24
2.65267	24
2.65633	24
2.66000	24
2.66367	24
2.66733	24
2.67100	25
2.67467	25
2.67833	26
2.68200	26
2.68567	27
2.68933	27
2.69300	27
2.69667	27
2.70033	27
2.70400	27
2.70767	28
2.71133	28
2.71500	28
2.71867	28
2.72233	28
2.72600	29
2.72967	29
2.73333	30
2.73700	30
2.74067	30
2.74433	30
2.74800	29
2.75167	29
2.75533	29
2.75900	28
2.76267	28
2.76633	28
2.77000	28
2.77367	28
2.77733	28
2.78100	29
2.78467	29
2.78833	29
2.79200	30
2.79567	30
2.79933	30
2.80300	30
2.80667	30
2.81033	30
2.81400	30
2.81767	30
2.82133	31
2.82500	31
2.82867	32
2.83233	32
2.83600	32
2.83967	32
2.84333	30
2.84700	28
2.85067	24
2.85433	17
2.85800	8
2.86167	-5
2.86533	-21
2.86900	-41
2.87267	-66
2.87633	-94
2.88000	-126
2.88367	-161
2.88733	-199
2.89100	-241
2.89467	-285
2.89833	-331
2.90200	-379
2.90567	-428
2.90933	-477
2.91300	-528
2.91667	-578
2.92033	-628
2.92400	-679
2.92767	-728
2.93133	-778
2.93500	-828
2.93867	-882
2.94233	-942
2.94600	-1004
2.94967	-1058
2.95333	-1093
2.95700	-1103
2.96067	-1086
2.96433	-1046
2.96800	-987
2.97167	-916
2.97533	-837
2.97900	-756
2.98267	-676
2.98633	-599
2.99000	-526
2.99367	-460
2.99733	-400
3.00100	-345
3.00467	-297
3.00833	-254
3.01200	-217
3.01567	-184
3.01933	-155
3.02300	-130
3.02667	-109
3.03033	-90
3.03400	-74
3.03767	-60
3.04133	-48
3.04500	-38
3.04867	-29
3.05233	-21
3.05600	-15
3.05967	-10
3.06333	-5
3.06700	-1
3.07067	3
3.07433	6
3.07800	8
3.08167	10
3.08533	12
3.08900	13
3.09267	15
3.09633	16
3.10000	17
3.10367	18
3.10733	19
3.11100	19
3.11467	20
3.11833	20
3.12200	21
3.12567	21
3.12933	21
3.13300	22
3.13667	22
3.14033	22
3.14400	22
3.14767	22
3.15133	22
3.15500	22
3.15867	23
3.16233	23
3.16600	23
3.16967	23
3.17333	23
3.17700	23
3.18067	23
3.18433	23
3.18800	24
3.19167	24
3.19533	24
3.19900	24
3.20267	25
3.20633	25
3.21000	26
3.21367	26
3.21733	27
3.22100	28
3.22467	28
3.22833	29
3.23200	30
3.23567	30
3.23933	31
3.24300	32
3.24667	32
3.25033	33
3.25400	33
3.25767	33
3.26133	33
3.26500	33
3.26867	33
3.27233	33
3.27600	33
3.27967	33
3.28333	33
3.28700	33
3.29067	33
3.29433	33
3.29800	33
3.30167	33
3.30533	33
3.30900	33
3.31267	33
3.31633	33
3.32000	33
3.32367	33
3.32733	33
3.33100	33
3.33467	33
3.33833	33
3.34200	32
3.34567	32
3.34933	32
3.35300	33
3.35667	33
3.36033	33
3.36400	33
3.36767	33
3.37133	33
3.37500	34
3.37867	33
3.38233	33
3.38600	33
3.38967	33
3.39333	34
3.39700	34
3.40067	34
3.40433	34
3.40800	34
3.41167	34
3.41533	34
3.41900	34
3.42267	34
3.42633	34
3.43000	34
3.43367	35
3.43733	35
3.44100	35
3.44467	35
3.44833	35
3.45200	35
3.45567	35
3.45933	35
3.46300	35
3.46667	35
3.47033	35
3.47400	35
3.47767	35
3.48133	34
3.48500	34
3.48867	34
3.49233	34
3.49600	34
3.49967	34
3.50333	34
3.50700	34
3.51067	33
3.51433	33
3.51800	33
3.52167	33
3.52533	33
3.52900	33
3.53267	33
3.53633	33
3.54000	33
3.54367	33
3.54733	33
3.55100	33
3.55467	33
3.55833	33
3.56200	34
3.56567	34
3.56933	34
3.57300	34
3.57667	34
3.58033	34
3.58400	34
3.58767	34
3.59133	34
3.59500	34
3.59867	33
3.60233	33
3.60600	33
3.60967	33
3.61333	33
3.61700	33
3.62067	32
3.62433	32
3.62800	32
3.63167	32
3.63533	32
3.63900	32
3.64267	32
3.64633	32
3.65000	32
3.65367	32
3.65733	32
3.66100	32
3.66467	32
3.66833	32
3.67200	33
3.67567	33
3.67933	33
3.68300	33
3.68667	33
3.69033	33
3.69400	33
3.69767	33
3.70133	33
3.70500	33
3.70867	33
3.71233	33
3.71600	33
3.71967	33
3.72333	33
3.72700	33
3.73067	33
3.73433	33
3.73800	33
3.74167	33
3.74533	33
3.74900	33
3.75267	34
3.75633	34
3.76000	34
3.76367	34
3.76733	34
3.77100	34
3.77467	34
3.77833	34
3.78200	34
3.78567	34
3.78933	34
3.79300	34
3.79667	34
3.80033	34
3.80400	34
3.80767	34
3.81133	34
3.81500	34
3.81867	34
3.82233	34
3.82600	34
3.82967	34
3.83333	34
3.83700	34
3.84067	34
3.84433	34
3.84800	34
3.85167	34
3.85533	34
3.85900	34
3.86267	34
3.86633	34
3.87000	34
3.87367	34
3.87733	34
3.88100	34
3.88467	34
3.88833	35
3.89200	35
3.89567	34
3.89933	34
3.90300	34
3.90667	34
3.91033	34
3.91400	34
3.91767	34
3.92133	34
3.92500	34
3.92867	34
3.93233	34
3.93600	34
3.93967	34
3.94333	34
3.94700	34
3.95067	34
3.95433	34
3.95800	33
3.96167	33
3.96533	33
3.96900	33
3.97267	33
3.97633	33
3.98000	33
3.98367	33
3.98733	33
3.99100	33
3.99467	33
3.99833	33

[Chromatogram (Ch3)]
Interval(msec)	220
# of Points	1091
Start Time(min)	0.002
End Time(min)	3.998
R.Time (min)	Intensity
0.00167	-1
0.00533	-0
0.00900	0
0.01267	-1
0.01633	-5
0.02000	-8
0.02367	-8
0.02733	-7
0.03100	-7
0.03467	-6
0.03833	-6
0.04200	-5
0.04567	-4
0.04933	-2
0.05300	-1
0.05667	0
0.06033	1
0.06400	1
0.06767	1
0.07133	1
0.07500	1
0.07867	-0
0.08233	0
0.08600	2
0.08967	2
0.09333	1
0.09700	1
0.10067	1
0.10433	0
0.10800	0
0.11167	2
0.11533	2
0.11900	4
0.12267	5
0.12633	6
0.13000	5
0.13367	3
0.13733	2
0.14100	0
0.14467	-1
0.14833	-1
0.15200	-1
0.15567	-2
0.15933	-3
0.16300	-2
0.16667	-1
0.17033	-2
0.17400	-5
0.17767	-6
0.18133	-4
0.18500	-1
0.18867	0
0.19233	2
0.19600	3
0.19967	2
0.20333	4
0.20700	5
0.21067	4
0.21433	1
0.21800	1
0.22167	0
0.22533	-1
0.22900	-2
0.23267	-2
0.23633	-2
0.24000	-1
0.24367	-0
0.24733	-0
0.25100	-1
0.25467	-3
0.25833	-5
0.26200	-6
0.26567	-5
0.26933	-4
0.27300	-4
0.27667	-4
0.28033	-3
0.28400	-1
0.28767	-1
0.29133	-1
0.29500	-3
0.29867	-3
0.30233	-4
0.30600	-4
0.30967	-4
0.31333	-4
0.31700	-3
0.32067	-3
0.32433	-5
0.32800	-7
0.33167	-8
0.33533	-7
0.33900	-6
0.34267	-7
0.34633	-5
0.35000	-3
0.35367	-2
0.35733	-3
0.36100	-7
0.36467	-9
0.36833	-9
0.37200	-10
0.37567	-12
0.37933	-14
0.38300	-14
0.38667	-11
0.39033	-7
0.39400	-6
0.39767	-7
0.40133	-8
0.40500	-7
0.40867	-7
0.41233	-7
0.41600	-7
0.41967	-8
0.42333	-8
0.42700	-10
0.43067	-11
0.43433	-10
0.43800	-9
0.44167	-6
0.44533	-4
0.44900	-3
0.45267	-3
0.45633	-5
0.46000	-6
0.46367	-6
0.46733	-4
0.47100	-2
0.47467	-2
0.47833	-3
0.48200	-5
0.48567	-7
0.48933	-9
0.49300	-10
0.49667	-10
0.50033	-9
0.50400	-6
0.50767	-6
0.51133	-6
0.51500	-6
0.51867	-7
0.52233	-7
0.52600	-6
0.52967	-6
0.53333	-5
0.53700	-4
0.54067	-2
0.54433	-0
0.54800	-0
0.55167	-1
0.55533	-3
0.55900	-1
0.56267	1
0.56633	1
0.57000	1
0.57367	-1
0.57733	-3
0.58100	-3
0.58467	-2
0.58833	-2
0.59200	-5
0.59567	-7
0.59933	-7
0.60300	-7
0.60667	-6
0.61033	-6
0.61400	-6
0.61767	-6
0.62133	-7
0.62500	-8
0.62867	-7
0.63233	-8
0.63600	-8
0.63967	-6
0.64333	-6
0.64700	-6
0.65067	-7
0.65433	-8
0.65800	-6
0.66167	-7
0.66533	-7
0.66900	-10
0.67267	-10
0.67633	-12
0.68000	-11
0.68367	-11
0.68733	-11
0.69100	-11
0.69467	-10
0.69833	-9
0.70200	-7
0.70567	-5
0.70933	-5
0.71300	-5
0.71667	-5
0.72033	-5
0.72400	-4
0.72767	-3
0.73133	-2
0.73500	0
0.73867	1
0.74233	1
0.74600	0
0.74967	-3
0.75333	-6
0.75700	-6
0.76067	-5
0.76433	-3
0.76800	-2
0.77167	-0
0.77533	0
0.77900	-2
0.78267	-3
0.78633	-3
0.79000	-4
0.79367	-6
0.79733	-7
0.80100	-8
0.80467	-7
0.80833	-6
0.81200	-4
0.81567	-6
0.81933	-8
0.82300	-9
0.82667	-8
0.83033	-8
0.83400	-6
0.83767	-6
0.84133	-5
0.84500	-5
0.84867	-4
0.85233	-3
0.85600	-6
0.85967	-8
0.86333	-8
0.86700	-6
0.87067	-5
0.87433	-5
0.87800	-5
0.88167	-6
0.88533	-7
0.88900	-8
0.89267	-10
0.89633	-9
0.90000	-8
0.90367	-7
0.90733	-6
0.91100	-6
0.91467	-5
0.91833	-2
0.92200	-1
0.92567	-1
0.92933	-2
0.93300	-3
0.93667	-4
0.94033	-4
0.94400	-3
0.94767	-5
0.95133	-5
0.95500	-5
0.95867	-7
0.96233	-7
0.96600	-5
0.96967	-2
0.97333	-1
0.97700	-2
0.98067	-1
0.98433	1
0.98800	1
0.99167	1
0.99533	-1
0.99900	-2
1.00267	-3
1.00633	-5
1.01000	-7
1.01367	-8
1.01733	-9
1.02100	-8
1.02467	-7
1.02833	-8
1.03200	-9
1.03567	-9
1.03933	-7
1.04300	-5
1.04667	-5
1.05033	-3
1.05400	-4
1.05767	-6
1.06133	-7
1.06500	-4
1.06867	-3
1.07233	-2
1.07600	-2
1.07967	-4
1.08333	-6
1.08700	-7
1.09067	-8
1.09433	-6
1.09800	-5
1.10167	-6
1.10533	-6
1.10900	-5
1.11267	-5
1.11633	-4
1.12000	-4
1.12367	-5
1.12733	-6
1.13100	-5
1.13467	-7
1.13833	-8
1.14200	-9
1.14567	-8
1.14933	-6
1.15300	-6
1.15667	-7
1.16033	-7
1.16400	-6
1.16767	-4
1.17133	-5
1.17500	-6
1.17867	-7
1.18233	-7
1.18600	-5
1.18967	-6
1.19333	-7
1.19700	-7
1.20067	-7
1.20433	-7
1.20800	-7
1.21167	-6
1.21533	-6
1.21900	-7
1.22267	-7
1.22633	-6
1.23000	-5
1.23367	-7
1.23733	-9
1.24100	-9
1.24467	-8
1.24833	-8
1.25200	-10
1.25567	-12
1.25933	-12
1.26300	-12
1.26667	-12
1.27033	-11
1.27400	-10
1.27767	-9
1.28133	-9
1.28500	-10
1.28867	-10
1.29233	-11
1.29600	-10
1.29967	-12
1.30333	-13
1.30700	-12
1.31067	-11
1.31433	-11
1.31800	-13
1.32167	-12
1.32533	-10
1.32900	-9
1.33267	-9
1.33633	-9
1.34000	-9
1.34367	-9
1.34733	-9
1.35100	-9
1.35467	-8
1.35833	-9
1.36200	-10
1.36567	-11
1.36933	-13
1.37300	-12
1.37667	-10
1.38033	-10
1.38400	-11
1.38767	-12
1.39133	-9
1.39500	-6
1.39867	-6
1.40233	-8
1.40600	-8
1.40967	-9
1.41333	-10
1.41700	-10
1.42067	-9
1.42433	-9
1.42800	-9
1.43167	-10
1.43533	-9
1.43900	-7
1.44267	-4
1.44633	-2
1.45000	-2
1.45367	-4
1.45733	-4
1.46100	-5
1.46467	-3
1.46833	-2
1.47200	-3
1.47567	-8
1.47933	-8
1.48300	-6
1.48667	-5
1.49033	-7
1.49400	-8
1.49767	-8
1.50133	-8
1.50500	-9
1.50867	-9
1.51233	-5
1.51600	-3
1.51967	-2
1.52333	-2
1.52700	-1
1.53067	-1
1.53433	0
1.53800	3
1.54167	4
1.54533	1
1.54900	-2
1.55267	-3
1.55633	-3
1.56000	-4
1.56367	-5
1.56733	-6
1.57100	-8
1.57467	-9
1.57833	-10
1.58200	-9
1.58567	-6
1.58933	-3
1.59300	-4
1.59667	-6
1.60033	-7
1.60400	-6
1.60767	-5
1.61133	-7
1.61500	-8
1.61867	-10
1.62233	-9
1.62600	-9
1.62967	-9
1.63333	-7
1.63700	-5
1.64067	-4
1.64433	-5
1.64800	-4
1.65167	-2
1.65533	-0
1.65900	1
1.66267	2
1.66633	6
1.67000	9
1.67367	11
1.67733	10
1.68100	11
1.68467	12
1.68833	11
1.69200	11
1.69567	11
1.69933	12
1.70300	14
1.70667	16
1.71033	15
1.71400	14
1.71767	14
1.72133	14
1.72500	12
1.72867	11
1.73233	13
1.73600	15
1.73967	16
1.74333	19
1.74700	22
1.75067	23
1.75433	23
1.75800	23
1.76167	25
1.76533	25
1.76900	24
1.77267	23
1.77633	22
1.78000	21
1.78367	24
1.78733	25
1.79100	26
1.79467	27
1.79833	28
1.80200	31
1.80567	30
1.80933	28
1.81300	28
1.81667	28
1.82033	32
1.82400	34
1.82767	35
1.83133	35
1.83500	35
1.83867	34
1.84233	34
1.84600	32
1.84967	29
1.85333	27
1.85700	28
1.86067	30
1.86433	33
1.86800	34
1.87167	36
1.87533	37
1.87900	38
1.88267	35
1.88633	33
1.89000	34
1.89367	34
1.89733	35
1.90100	36
1.90467	38
1.90833	37
1.91200	36
1.91567	35
1.91933	34
1.92300	35
1.92667	35
1.93033	36
1.93400	36
1.93767	37
1.94133	39
1.94500	38
1.94867	38
1.95233	38
1.95600	38
1.95967	38
1.96333	39
1.96700	41
1.97067	40
1.97433	41
1.97800	43
1.98167	45
1.98533	46
1.98900	48
1.99267	50
1.99633	53
2.00000	54
2.00367	54
2.00733	53
2.01100	54
2.01467	56
2.01833	57
2.02200	57
2.02567	57
2.02933	55
2.03300	55
2.03667	56
2.04033	58
2.04400	59
2.04767	61
2.05133	64
2.05500	63
2.05867	62
2.06233	63
2.06600	64
2.06967	65
2.07333	65
2.07700	65
2.08067	65
2.08433	67
2.08800	69
2.09167	70
2.09533	73
2.09900	75
2.10267	75
2.10633	77
2.11000	77
2.11367	78
2.11733	80
2.12100	83
2.12467	86
2.12833	87
2.13200	90
2.13567	94
2.13933	96
2.14300	98
2.14667	97
2.15033	95
2.15400	95
2.15767	97
2.16133	98
2.16500	100
2.16867	101
2.17233	102
2.17600	102
2.17967	104
2.18333	108
2.18700	112
2.19067	113
2.19433	112
2.19800	114
2.20167	117
2.20533	118
2.20900	120
2.21267	120
2.21633	122
2.22000	123
2.22367	122
2.22733	121
2.23100	121
2.23467	121
2.23833	122
2.24200	124
2.24567	126
2.24933	126
2.25300	125
2.25667	126
2.26033	129
2.26400	130
2.26767	131
2.27133	132
2.27500	133
2.27867	133
2.28233	133
2.28600	135
2.28967	137
2.29333	139
2.29700	140
2.30067	142
2.30433	143
2.30800	143
2.31167	144
2.31533	144
2.31900	144
2.32267	147
2.32633	149
2.33000	150
2.33367	151
2.33733	151
2.34100	154
2.34467	156
2.34833	157
2.35200	159
2.35567	161
2.35933	163
2.36300	165
2.36667	166
2.37033	165
2.37400	164
2.37767	165
2.38133	168
2.38500	169
2.38867	169
2.39233	169
2.39600	171
2.39967	173
2.40333	175
2.40700	176
2.41067	177
2.41433	180
2.41800	184
2.42167	188
2.42533	191
2.42900	191
2.43267	192
2.43633	192
2.44000	192
2.44367	199
2.44733	222
2.45100	247
2.45467	266
2.45833	276
2.46200	276
2.46567	273
2.46933	270
2.47300	269
2.47667	267
2.48033	264
2.48400	259
2.48767	254
2.49133	251
2.49500	248
2.49867	244
2.50233	242
2.50600	241
2.50967	242
2.51333	243
2.51700	245
2.52067	246
2.52433	249
2.52800	251
2.53167	251
2.53533	250
2.53900	248
2.54267	245
2.54633	240
2.55000	236
2.55367	233
2.55733	232
2.56100	231
2.56467	228
2.56833	228
2.57200	227
2.57567	227
2.57933	227
2.58300	226
2.58667	226
2.59033	225
2.59400	221
2.59767	215
2.60133	201
2.60500	180
2.60867	154
2.61233	121
2.61600	84
2.61967	45
2.62333	9
2.62700	-22
2.63067	-51
2.63433	-75
2.63800	-93
2.64167	-106
2.64533	-112
2.64900	-112
2.65267	-109
2.65633	-103
2.66000	-96
2.66367	-89
2.66733	-80
2.67100	-72
2.67467	-64
2.67833	-56
2.68200	-44
2.68567	-32
2.68933	-22
2.69300	-11
2.69667	-1
2.70033	8
2.70400	14
2.70767	21
2.71133	31
2.71500	42
2.71867	53
2.72233	63
2.72600	72
2.72967	80
2.73333	84
2.73700	90
2.74067	96
2.74433	102
2.74800	108
2.75167	115
2.75533	122
2.75900	128
2.76267	133
2.76633	136
2.77000	140
2.77367	145
2.77733	150
2.78100	153
2.78467	158
2.78833	163
2.79200	170
2.79567	174
2.79933	176
2.80300	178
2.80667	184
2.81033	189
2.81400	193
2.81767	199
2.82133	211
2.82500	235
2.82867	286
2.83233	380
2.83600	542
2.83967	796
2.84333	1161
2.84700	1639
2.85067	2216
2.85433	2856
2.85800	3516
2.86167	4144
2.86533	4691
2.86900	5114
2.87267	5392
2.87633	5512
2.88000	5478
2.88367	5316
2.88733	5055
2.89100	4728
2.89467	4359
2.89833	3975
2.90200	3596
2.90567	3229
2.90933	2881
2.91300	2559
2.91667	2268
2.92033	2006
2.92400	1774
2.92767	1570
2.93133	1388
2.93500	1231
2.93867	1096
2.94233	979
2.94600	876
2.94967	787
2.95333	709
2.95700	642
2.96067	585
2.96433	536
2.96800	492
2.97167	456
2.97533	425
2.97900	401
2.98267	380
2.98633	359
2.99000	340
2.99367	325
2.99733	311
3.00100	299
3.00467	289
3.00833	280
3.01200	273
3.01567	269
3.01933	265
3.02300	262
3.02667	258
3.03033	253
3.03400	250
3.03767	249
3.04133	246
3.04500	241
3.04867	238
3.05233	237
3.05600	237
3.05967	237
3.06333	235
3.06700	231
3.07067	228
3.07433	226
3.07800	225
3.08167	225
3.08533	224
3.08900	221
3.09267	218
3.09633	219
3.10000	219
3.10367	219
3.10733	220
3.11100	221
3.11467	222
3.11833	221
3.12200	221
3.12567	219
3.12933	217
3.13300	214
3.13667	214
3.14033	216
3.14400	215
3.14767	215
3.15133	215
3.15500	214
3.15867	214
3.16233	214
3.16600	212
3.16967	210
3.17333	210
3.17700	211
3.18067	212
3.18433	213
3.18800	213
3.19167	210
3.19533	207
3.19900	205
3.20267	202
3.20633	201
3.21000	202
3.21367	203
3.21733	204
3.22100	207
3.22467	207
3.22833	207
3.23200	207
3.23567	204
3.23933	201
3.24300	201
3.24667	202
3.25033	202
3.25400	201
3.25767	201
3.26133	200
3.26500	200
3.26867	201
3.27233	198
3.27600	195
3.27967	194
3.28333	192
3.28700	191
3.29067	191
3.29433	190
3.29800	188
3.30167	186
3.30533	184
3.30900	185
3.31267	186
3.31633	185
3.32000	183
3.32367	182
3.32733	180
3.33100	177
3.33467	173
3.33833	173
3.34200	172
3.34567	169
3.34933	165
3.35300	164
3.35667	161
3.36033	158
3.36400	155
3.36767	152
3.37133	148
3.37500	148
3.37867	148
3.38233	145
3.38600	142
3.38967	141
3.39333	139
3.39700	137
3.40067	135
3.40433	133
3.40800	132
3.41167	132
3.41533	131
3.41900	131
3.42267	129
3.42633	128
3.43000	126
3.43367	122
3.43733	118
3.44100	115
3.44467	112
3.44833	109
3.45200	108
3.45567	107
3.45933	107
3.46300	106
3.46667	102
3.47033	99
3.47400	97
3.47767	98
3.48133	98
3.48500	96
3.48867	96
3.49233	93
3.49600	90
3.49967	85
3.50333	83
3.50700	83
3.51067	82
3.51433	80
3.51800	78
3.52167	76
3.52533	74
3.52900	74
3.53267	75
3.53633	73
3.54000	70
3.54367	67
3.54733	64
3.55100	62
3.55467	61
3.55833	59
3.56200	58
3.56567	57
3.56933	56
3.57300	55
3.57667	54
3.58033	54
3.58400	55
3.58767	56
3.59133	54
3.59500	50
3.59867	45
3.60233	43
3.60600	42
3.60967	43
3.61333	43
3.61700	43
3.62067	45
3.62433	48
3.62800	49
3.63167	50
3.63533	48
3.63900	45
3.64267	41
3.64633	36
3.65000	33
3.65367	30
3.65733	28
3.66100	29
3.66467	30
3.66833	31
3.67200	30
3.67567	28
3.67933	26
3.68300	25
3.68667	25
3.69033	24
3.69400	23
3.69767	24
3.70133	25
3.70500	24
3.70867	24
3.71233	23
3.71600	22
3.71967	21
3.72333	22
3.72700	23
3.73067	22
3.73433	20
3.73800	18
3.74167	16
3.74533	17
3.74900	20
3.75267	24
3.75633	27
3.76000	27
3.76367	26
3.76733	24
3.77100	24
3.77467	22
3.77833	20
3.78200	20
3.78567	22
3.78933	22
3.79300	22
3.79667	20
3.80033	20
3.80400	17
3.80767	14
3.81133	13
3.81500	11
3.81867	11
3.82233	12
3.82600	13
3.82967	14
3.83333	16
3.83700	18
3.84067	17
3.84433	16
3.84800	16
3.85167	14
3.85533	14
3.85900	14
3.86267	13
3.86633	13
3.87000	14
3.87367	14
3.87733	15
3.88100	15
3.88467	13
3.88833	11
3.89200	10
3.89567	11
3.89933	14
3.90300	15
3.90667	16
3.91033	13
3.91400	11
3.91767	10
3.92133	11
3.92500	13
3.92867	12
3.93233	11
3.93600	10
3.93967	10
3.94333	12
3.94700	14
3.95067	16
3.95433	14
3.95800	11
3.96167	11
3.96533	12
3.96900	12
3.97267	13
3.97633	13
3.98000	13
3.98367	11
3.98733	10
3.99100	10
3.99467	12
3.99833	11

[Status Trace (Column Oven Temperature)]
Interval(msec)	1000
# of Points	239
Start Time(min)	0.011
End Time(min)	3.977
Intensity Units	
Intensity Multiplier	1
R.Time (min)	Intensity
0.01057	35.03
0.02723	35.04
0.04390	35.04
0.06057	35.03
0.07723	35.03
0.09390	35.02
0.11057	35.00
0.12723	35.00
0.14390	34.98
0.16057	34.97
0.17723	34.98
0.19390	34.98
0.21057	34.99
0.22723	34.98
0.24390	34.98
0.26057	34.99
0.27723	34.99
0.29390	34.98
0.31057	34.99
0.32723	34.99
0.34390	34.99
0.36057	34.99
0.37723	34.98
0.39390	34.97
0.41057	34.97
0.42723	34.97
0.44390	34.97
0.46057	34.98
0.47723	34.98
0.49390	34.98
0.51057	34.99
0.52723	35.00
0.54390	35.00
0.56057	35.00
0.57723	35.00
0.59390	34.99
0.61057	34.98
0.62723	34.99
0.64390	34.99
0.66057	35.00
0.67723	35.01
0.69390	35.02
0.71057	35.02
0.72723	35.02
0.74390	35.01
0.76057	35.01
0.77723	35.00
0.79390	35.00
0.81057	35.00
0.82723	34.99
0.84390	34.98
0.86057	34.98
0.87723	34.98
0.89390	34.97
0.91057	34.98
0.92723	34.98
0.94390	34.98
0.96057	34.98
0.97723	34.99
0.99390	34.98
1.01057	34.98
1.02723	34.98
1.04390	34.98
1.06057	34.99
1.07723	34.99
1.09390	34.99
1.11057	34.99
1.12723	34.98
1.14390	34.98
1.16057	34.99
1.17723	35.01
1.19390	35.00
1.21057	35.01
1.22723	35.01
1.24390	35.02
1.26057	35.01
1.27723	35.01
1.29390	35.01
1.31057	35.02
1.32723	35.02
1.34390	35.04
1.36057	35.05
1.37723	35.05
1.39390	35.04
1.41057	35.03
1.42723	35.03
1.44390	35.02
1.46057	35.02
1.47723	35.01
1.49390	35.00
1.51057	35.00
1.52723	35.01
1.54390	35.02
1.56057	35.02
1.57723	35.02
1.59390	35.04
1.61057	35.10
1.62723	35.23
1.64390	35.41
1.66057	35.67
1.67723	36.02
1.69390	36.40
1.71057	36.75
1.72723	37.09
1.74390	37.43
1.76057	37.76
1.77723	38.04
1.79390	38.38
1.81057	38.72
1.82723	39.05
1.84390	39.35
1.86057	39.70
1.87723	40.03
1.89390	40.36
1.91057	40.70
1.92723	41.02
1.94390	41.35
1.96057	41.66
1.97723	42.00
1.99390	42.33
2.01057	42.66
2.02723	42.98
2.04390	43.31
2.06057	43.64
2.07723	43.96
2.09390	44.28
2.11057	44.59
2.12723	44.91
2.14390	45.24
2.16057	45.57
2.17723	45.90
2.19390	46.23
2.21057	46.57
2.22723	46.90
2.24390	47.22
2.26057	47.56
2.27723	47.90
2.29390	48.22
2.31057	48.60
2.32723	48.92
2.34390	49.23
2.36057	49.48
2.37723	49.64
2.39390	49.66
2.41057	49.66
2.42723	49.67
2.44390	49.67
2.46057	49.69
2.47723	49.69
2.49390	49.70
2.51057	49.71
2.52723	49.72
2.54390	49.73
2.56057	49.75
2.57723	49.74
2.59390	49.77
2.61057	49.80
2.62723	49.81
2.64390	49.81
2.66057	49.83
2.67723	49.84
2.69390	49.85
2.71057	49.85
2.72723	49.85
2.74390	49.87
2.76057	49.89
2.77723	49.89
2.79390	49.90
2.81057	49.90
2.82723	49.90
2.84390	49.90
2.86057	49.89
2.87723	49.89
2.89390	49.89
2.91057	49.92
2.92723	49.93
2.94390	49.95
2.96057	49.97
2.97723	49.99
2.99390	50.01
3.01057	50.03
3.02723	50.03
3.04390	50.02
3.06057	50.02
3.07723	50.02
3.09390	50.04
3.11057	50.04
3.12723	50.05
3.14390	50.07
3.16057	50.08
3.17723	50.11
3.19390	50.12
3.21057	50.11
3.22723	50.09
3.24390	50.07
3.26057	50.06
3.27723	50.06
3.29390	50.06
3.31057	50.06
3.32723	50.07
3.34390	50.07
3.36057	50.06
3.37723	50.05
3.39390	50.04
3.41057	50.04
3.42723	50.03
3.44390	50.02
3.46057	50.03
3.47723	50.03
3.49390	50.03
3.51057	50.03
3.52723	50.03
3.54390	50.03
3.56057	50.03
3.57723	50.03
3.59390	50.03
3.61057	50.04
3.62723	50.05
3.64390	50.06
3.66057	50.06
3.67723	50.07
3.69390	50.07
3.71057	50.07
3.72723	50.07
3.74390	50.07
3.76057	50.07
3.77723	50.07
3.79390	50.07
3.81057	50.07
3.82723	50.06
3.84390	50.06
3.86057	50.07
3.87723	50.07
3.89390	50.06
3.91057	50.06
3.92723	50.06
3.94390	50.07
3.96057	50.07
3.97723	50.08

[Status Trace (Injection Unit Temperature)]
Interval(msec)	1000
# of Points	239
Start Time(min)	0.011
End Time(min)	3.977
Intensity Units	
Intensity Multiplier	1
R.Time (min)	Intensity
0.01057	100.00
0.02723	100.00
0.04390	100.00
0.06057	100.00
0.07723	99.99
0.09390	100.00
0.11057	100.00
0.12723	100.00
0.14390	100.00
0.16057	100.00
0.17723	100.00
0.19390	100.00
0.21057	100.00
0.22723	100.00
0.24390	100.00
0.26057	99.99
0.27723	100.00
0.29390	100.00
0.31057	100.00
0.32723	100.00
0.34390	100.00
0.36057	100.00
0.37723	100.00
0.39390	99.99
0.41057	100.00
0.42723	99.99
0.44390	99.99
0.46057	100.00
0.47723	100.00
0.49390	100.00
0.51057	99.99
0.52723	100.00
0.54390	100.00
0.56057	100.00
0.57723	100.00
0.59390	100.00
0.61057	100.00
0.62723	100.00
0.64390	100.00
0.66057	100.00
0.67723	99.99
0.69390	100.00
0.71057	100.00
0.72723	100.00
0.74390	100.00
0.76057	100.00
0.77723	100.00
0.79390	100.00
0.81057	100.00
0.82723	100.00
0.84390	99.99
0.86057	100.00
0.87723	100.00
0.89390	100.00
0.91057	100.00
0.92723	100.00
0.94390	100.00
0.96057	100.00
0.97723	100.00
0.99390	100.00
1.01057	100.00
1.02723	100.00
1.04390	100.00
1.06057	100.00
1.07723	100.00
1.09390	100.00
1.11057	100.00
1.12723	100.00
1.14390	100.00
1.16057	100.00
1.17723	100.00
1.19390	100.00
1.21057	100.00
1.22723	100.00
1.24390	100.00
1.26057	100.00
1.27723	100.00
1.29390	100.00
1.31057	100.00
1.32723	100.00
1.34390	100.00
1.36057	100.01
1.37723	100.00
1.39390	100.00
1.41057	100.01
1.42723	100.00
1.44390	100.00
1.46057	100.00
1.47723	100.00
1.49390	100.00
1.51057	100.00
1.52723	100.00
1.54390	100.00
1.56057	100.00
1.57723	100.00
1.59390	100.00
1.61057	100.00
1.62723	100.01
1.64390	100.00
1.66057	100.00
1.67723	100.00
1.69390	100.00
1.71057	100.00
1.72723	100.01
1.74390	100.01
1.76057	100.00
1.77723	100.00
1.79390	100.00
1.81057	100.00
1.82723	99.99
1.84390	99.99
1.86057	99.99
1.87723	100.00
1.89390	99.99
1.91057	99.99
1.92723	99.99
1.94390	99.99
1.96057	99.98
1.97723	99.99
1.99390	99.98
2.01057	99.99
2.02723	99.98
2.04390	99.99
2.06057	99.99
2.07723	99.98
2.09390	99.98
2.11057	99.98
2.12723	99.98
2.14390	99.98
2.16057	99.98
2.17723	99.98
2.19390	99.98
2.21057	99.98
2.22723	99.98
2.24390	99.98
2.26057	99.98
2.27723	99.98
2.29390	99.98
2.31057	99.98
2.32723	99.98
2.34390	99.98
2.36057	99.98
2.37723	99.97
2.39390	99.98
2.41057	99.97
2.42723	99.98
2.44390	99.98
2.46057	99.98
2.47723	99.98
2.49390	99.98
2.51057	99.98
2.52723	99.98
2.54390	99.98
2.56057	99.98
2.57723	99.99
2.59390	99.99
2.61057	99.99
2.62723	99.99
2.64390	99.99
2.66057	99.99
2.67723	99.99
2.69390	99.99
2.71057	100.00
2.72723	100.00
2.74390	100.00
2.76057	100.00
2.77723	100.00
2.79390	100.01
2.81057	100.01
2.82723	100.02
2.84390	100.01
2.86057	100.01
2.87723	100.02
2.89390	100.02
2.91057	100.02
2.92723	100.02
2.94390	100.03
2.96057	100.03
2.97723	100.03
2.99390	100.03
3.01057	100.03
3.02723	100.03
3.04390	100.04
3.06057	100.04
3.07723	100.03
3.09390	100.04
3.11057	100.04
3.12723	100.04
3.14390	100.04
3.16057	100.04
3.17723	100.04
3.19390	100.05
3.21057	100.05
3.22723	100.05
3.24390	100.05
3.26057	100.05
3.27723	100.05
3.29390	100.05
3.31057	100.05
3.32723	100.05
3.34390	100.05
3.36057	100.05
3.37723	100.05
3.39390	100.05
3.41057	100.06
3.42723	100.05
3.44390	100.05
3.46057	100.06
3.47723	100.05
3.49390	100.05
3.51057	100.06
3.52723	100.06
3.54390	100.06
3.56057	100.06
3.57723	100.06
3.59390	100.06
3.61057	100.06
3.62723	100.06
3.64390	100.06
3.66057	100.06
3.67723	100.06
3.69390	100.06
3.71057	100.06
3.72723	100.06
3.74390	100.06
3.76057	100.06
3.77723	100.06
3.79390	100.06
3.81057	100.06
3.82723	100.06
3.84390	100.06
3.86057	100.06
3.87723	100.06
3.89390	100.06
3.91057	100.06
3.92723	100.06
3.94390	100.06
3.96057	100.06
3.97723	100.06

[Status Trace (Carrier Gas Pressure)]
Interval(msec)	1000
# of Points	239
Start Time(min)	0.011
End Time(min)	3.977
Intensity Units	
Intensity Multiplier	1
R.Time (min)	Intensity
0.01057	58.00
0.02723	55.04
0.04390	57.35
0.06057	59.46
0.07723	59.11
0.09390	58.03
0.11057	57.99
0.12723	58.01
0.14390	58.01
0.16057	58.00
0.17723	58.00
0.19390	58.00
0.21057	58.00
0.22723	58.00
0.24390	58.00
0.26057	58.00
0.27723	58.00
0.29390	58.00
0.31057	58.00
0.32723	58.00
0.34390	58.00
0.36057	58.00
0.37723	58.00
0.39390	58.00
0.41057	58.00
0.42723	58.00
0.44390	58.00
0.46057	58.00
0.47723	58.00
0.49390	58.00
0.51057	58.00
0.52723	58.00
0.54390	58.00
0.56057	58.00
0.57723	58.00
0.59390	58.00
0.61057	58.00
0.62723	58.00
0.64390	58.00
0.66057	58.00
0.67723	58.00
0.69390	58.00
0.71057	58.00
0.72723	58.00
0.74390	58.00
0.76057	58.00
0.77723	58.00
0.79390	58.00
0.81057	58.00
0.82723	58.00
0.84390	58.00
0.86057	58.00
0.87723	58.00
0.89390	58.00
0.91057	58.00
0.92723	58.00
0.94390	58.00
0.96057	58.00
0.97723	58.00
0.99390	58.00
1.01057	58.00
1.02723	58.00
1.04390	58.00
1.06057	58.00
1.07723	58.00
1.09390	58.00
1.11057	58.00
1.12723	58.00
1.14390	58.00
1.16057	58.00
1.17723	58.00
1.19390	58.00
1.21057	58.00
1.22723	58.00
1.24390	58.00
1.26057	58.00
1.27723	58.00
1.29390	58.00
1.31057	58.00
1.32723	58.00
1.34390	58.00
1.36057	58.00
1.37723	58.00
1.39390	58.00
1.41057	58.00
1.42723	58.00
1.44390	58.00
1.46057	58.00
1.47723	58.00
1.49390	58.00
1.51057	58.00
1.52723	58.00
1.54390	58.00
1.56057	58.00
1.57723	58.00
1.59390	58.00
1.61057	58.00
1.62723	58.00
1.64390	58.00
1.66057	58.00
1.67723	58.01
1.69390	58.00
1.71057	58.00
1.72723	58.00
1.74390	58.00
1.76057	58.00
1.77723	58.00
1.79390	58.00
1.81057	58.00
1.82723	58.00
1.84390	58.00
1.86057	58.00
1.87723	58.00
1.89390	58.00
1.91057	58.00
1.92723	58.00
1.94390	58.00
1.96057	58.00
1.97723	58.00
1.99390	58.00
2.01057	58.00
2.02723	58.00
2.04390	58.00
2.06057	58.00
2.07723	58.00
2.09390	58.00
2.11057	58.00
2.12723	58.00
2.14390	58.00
2.16057	58.00
2.17723	58.00
2.19390	58.00
2.21057	58.00
2.22723	58.00
2.24390	58.00
2.26057	58.00
2.27723	58.00
2.29390	58.00
2.31057	58.00
2.32723	58.00
2.34390	58.00
2.36057	58.00
2.37723	57.99
2.39390	57.99
2.41057	58.00
2.42723	58.00
2.44390	58.00
2.46057	58.00
2.47723	58.00
2.49390	58.00
2.51057	57.99
2.52723	57.98
2.54390	58.00
2.56057	58.00
2.57723	58.00
2.59390	58.00
2.61057	58.00
2.62723	58.00
2.64390	58.00
2.66057	58.00
2.67723	58.00
2.69390	58.00
2.71057	58.00
2.72723	58.00
2.74390	58.00
2.76057	58.00
2.77723	58.00
2.79390	58.00
2.81057	58.00
2.82723	58.00
2.84390	58.00
2.86057	58.00
2.87723	58.00
2.89390	58.00
2.91057	58.00
2.92723	58.00
2.94390	58.00
2.96057	58.00
2.97723	58.00
2.99390	58.00
3.01057	58.00
3.02723	58.00
3.04390	58.00
3.06057	58.00
3.07723	58.00
3.09390	58.00
3.11057	58.00
3.12723	58.00
3.14390	58.00
3.16057	58.00
3.17723	58.00
3.19390	58.00
3.21057	58.00
3.22723	58.00
3.24390	58.00
3.26057	58.00
3.27723	58.00
3.29390	58.00
3.31057	58.00
3.32723	58.00
3.34390	58.00
3.36057	58.00
3.37723	58.00
3.39390	58.00
3.41057	58.00
3.42723	58.00
3.44390	58.00
3.46057	58.00
3.47723	58.00
3.49390	58.00
3.51057	58.00
3.52723	58.00
3.54390	58.00
3.56057	58.00
3.57723	58.00
3.59390	58.00
3.61057	58.00
3.62723	58.00
3.64390	58.00
3.66057	58.00
3.67723	58.00
3.69390	58.00
3.71057	58.00
3.72723	58.00
3.74390	58.00
3.76057	58.00
3.77723	58.00
3.79390	58.00
3.81057	58.00
3.82723	58.00
3.84390	58.00
3.86057	58.00
3.87723	58.00
3.89390	58.00
3.91057	58.00
3.92723	58.00
3.94390	58.00
3.96057	58.00
3.97723	58.00

[Status Trace (Carrier Gas Flow)]
Interval(msec)	1000
# of Points	239
Start Time(min)	0.011
End Time(min)	3.977
Intensity Units	
Intensity Multiplier	1
R.Time (min)	Intensity
0.01057	34.52
0.02723	34.53
0.04390	34.54
0.06057	34.54
0.07723	34.50
0.09390	34.52
0.11057	34.52
0.12723	34.52
0.14390	34.52
0.16057	34.52
0.17723	34.52
0.19390	34.52
0.21057	34.52
0.22723	34.52
0.24390	34.52
0.26057	34.52
0.27723	34.52
0.29390	34.52
0.31057	34.52
0.32723	34.52
0.34390	34.52
0.36057	34.52
0.37723	34.52
0.39390	34.52
0.41057	34.51
0.42723	34.52
0.44390	34.52
0.46057	34.52
0.47723	34.52
0.49390	34.52
0.51057	34.52
0.52723	34.52
0.54390	34.52
0.56057	34.52
0.57723	34.52
0.59390	34.52
0.61057	34.52
0.62723	34.52
0.64390	34.52
0.66057	34.52
0.67723	34.52
0.69390	34.52
0.71057	34.52
0.72723	34.52
0.74390	34.52
0.76057	34.52
0.77723	34.52
0.79390	34.52
0.81057	34.52
0.82723	34.52
0.84390	34.52
0.86057	34.52
0.87723	34.52
0.89390	34.52
0.91057	34.52
0.92723	34.52
0.94390	34.52
0.96057	34.52
0.97723	34.52
0.99390	34.52
1.01057	34.52
1.02723	34.52
1.04390	34.52
1.06057	34.52
1.07723	34.52
1.09390	34.52
1.11057	34.52
1.12723	34.52
1.14390	34.52
1.16057	34.52
1.17723	34.52
1.19390	34.52
1.21057	34.52
1.22723	34.52
1.24390	34.52
1.26057	34.52
1.27723	34.52
1.29390	34.52
1.31057	34.52
1.32723	34.52
1.34390	34.52
1.36057	34.52
1.37723	34.52
1.39390	34.52
1.41057	34.52
1.42723	34.52
1.44390	34.52
1.46057	34.52
1.47723	34.52
1.49390	34.52
1.51057	34.52
1.52723	34.52
1.54390	34.52
1.56057	34.52
1.57723	34.52
1.59390	34.52
1.61057	34.52
1.62723	34.52
1.64390	34.52
1.66057	34.52
1.67723	34.52
1.69390	34.52
1.71057	34.52
1.72723	34.52
1.74390	34.52
1.76057	34.52
1.77723	34.52
1.79390	34.52
1.81057	34.52
1.82723	34.52
1.84390	34.52
1.86057	34.52
1.87723	34.52
1.89390	34.52
1.91057	34.52
1.92723	34.52
1.94390	34.52
1.96057	34.52
1.97723	34.52
1.99390	34.52
2.01057	34.52
2.02723	34.52
2.04390	34.52
2.06057	34.52
2.07723	34.52
2.09390	34.52
2.11057	34.52
2.12723	34.52
2.14390	34.52
2.16057	34.52
2.17723	34.52
2.19390	34.52
2.21057	34.52
2.22723	34.52
2.24390	34.52
2.26057	34.52
2.27723	34.52
2.29390	34.52
2.31057	34.52
2.32723	34.52
2.34390	34.52
2.36057	34.52
2.37723	34.52
2.39390	34.53
2.41057	34.52
2.42723	34.52
2.44390	34.52
2.46057	34.52
2.47723	34.52
2.49390	34.52
2.51057	34.52
2.52723	34.52
2.54390	34.52
2.56057	34.52
2.57723	34.52
2.59390	34.52
2.61057	34.52
2.62723	34.52
2.64390	34.52
2.66057	34.52
2.67723	34.52
2.69390	34.52
2.71057	34.52
2.72723	34.52
2.74390	34.52
2.76057	34.52
2.77723	34.52
2.79390	34.52
2.81057	34.52
2.82723	34.52
2.84390	34.52
2.86057	34.52
2.87723	34.52
2.89390	34.52
2.91057	34.52
2.92723	34.52
2.94390	34.52
2.96057	34.52
2.97723	34.52
2.99390	34.52
3.01057	34.52
3.02723	34.52
3.04390	34.52
3.06057	34.52
3.07723	34.52
3.09390	34.52
3.11057	34.52
3.12723	34.52
3.14390	34.52
3.16057	34.52
3.17723	34.52
3.19390	34.52
3.21057	34.52
3.22723	34.52
3.24390	34.52
3.26057	34.52
3.27723	34.52
3.29390	34.52
3.31057	34.52
3.32723	34.52
3.34390	34.52
3.36057	34.52
3.37723	34.52
3.39390	34.52
3.41057	34.52
3.42723	34.52
3.44390	34.52
3.46057	34.52
3.47723	34.52
3.49390	34.52
3.51057	34.52
3.52723	34.52
3.54390	34.52
3.56057	34.52
3.57723	34.52
3.59390	34.52
3.61057	34.52
3.62723	34.52
3.64390	34.52
3.66057	34.52
3.67723	34.52
3.69390	34.52
3.71057	34.52
3.72723	34.52
3.74390	34.52
3.76057	34.52
3.77723	34.52
3.79390	34.52
3.81057	34.52
3.82723	34.52
3.84390	34.52
3.86057	34.52
3.87723	34.52
3.89390	34.52
3.91057	34.52
3.92723	34.52
3.94390	34.52
3.96057	34.51
3.97723	34.52

[Status Trace (Column Flow)]
Interval(msec)	1000
# of Points	239
Start Time(min)	0.011
End Time(min)	3.977
Intensity Units	
Intensity Multiplier	1
R.Time (min)	Intensity
0.01057	5.56
0.02723	5.22
0.04390	5.49
0.06057	5.73
0.07723	5.69
0.09390	5.57
0.11057	5.56
0.12723	5.56
0.14390	5.56
0.16057	5.56
0.17723	5.56
0.19390	5.56
0.21057	5.56
0.22723	5.56
0.24390	5.56
0.26057	5.56
0.27723	5.56
0.29390	5.56
0.31057	5.56
0.32723	5.56
0.34390	5.56
0.36057	5.56
0.37723	5.56
0.39390	5.56
0.41057	5.56
0.42723	5.56
0.44390	5.56
0.46057	5.56
0.47723	5.56
0.49390	5.56
0.51057	5.56
0.52723	5.56
0.54390	5.56
0.56057	5.56
0.57723	5.56
0.59390	5.56
0.61057	5.56
0.62723	5.56
0.64390	5.56
0.66057	5.56
0.67723	5.56
0.69390	5.56
0.71057	5.56
0.72723	5.56
0.74390	5.56
0.76057	5.56
0.77723	5.56
0.79390	5.56
0.81057	5.56
0.82723	5.56
0.84390	5.56
0.86057	5.56
0.87723	5.56
0.89390	5.56
0.91057	5.56
0.92723	5.56
0.94390	5.56
0.96057	5.56
0.97723	5.56
0.99390	5.56
1.01057	5.56
1.02723	5.56
1.04390	5.56
1.06057	5.56
1.07723	5.56
1.09390	5.56
1.11057	5.56
1.12723	5.56
1.14390	5.56
1.16057	5.56
1.17723	5.56
1.19390	5.56
1.21057	5.56
1.22723	5.56
1.24390	5.56
1.26057	5.56
1.27723	5.56
1.29390	5.56
1.31057	5.56
1.32723	5.56
1.34390	5.56
1.36057	5.56
1.37723	5.56
1.39390	5.56
1.41057	5.56
1.42723	5.56
1.44390	5.56
1.46057	5.56
1.47723	5.56
1.49390	5.56
1.51057	5.56
1.52723	5.56
1.54390	5.56
1.56057	5.56
1.57723	5.56
1.59390	5.56
1.61057	5.56
1.62723	5.56
1.64390	5.55
1.66057	5.54
1.67723	5.53
1.69390	5.52
1.71057	5.51
1.72723	5.50
1.74390	5.49
1.76057	5.48
1.77723	5.47
1.79390	5.46
1.81057	5.45
1.82723	5.44
1.84390	5.43
1.86057	5.42
1.87723	5.41
1.89390	5.40
1.91057	5.39
1.92723	5.38
1.94390	5.37
1.96057	5.36
1.97723	5.35
1.99390	5.34
2.01057	5.33
2.02723	5.32
2.04390	5.31
2.06057	5.30
2.07723	5.29
2.09390	5.28
2.11057	5.27
2.12723	5.26
2.14390	5.25
2.16057	5.24
2.17723	5.23
2.19390	5.22
2.21057	5.21
2.22723	5.20
2.24390	5.19
2.26057	5.19
2.27723	5.18
2.29390	5.17
2.31057	5.16
2.32723	5.15
2.34390	5.14
2.36057	5.13
2.37723	5.13
2.39390	5.12
2.41057	5.12
2.42723	5.12
2.44390	5.12
2.46057	5.12
2.47723	5.12
2.49390	5.12
2.51057	5.12
2.52723	5.12
2.54390	5.12
2.56057	5.12
2.57723	5.12
2.59390	5.12
2.61057	5.12
2.62723	5.12
2.64390	5.12
2.66057	5.12
2.67723	5.12
2.69390	5.12
2.71057	5.12
2.72723	5.12
2.74390	5.12
2.76057	5.12
2.77723	5.12
2.79390	5.12
2.81057	5.12
2.82723	5.12
2.84390	5.12
2.86057	5.12
2.87723	5.12
2.89390	5.12
2.91057	5.12
2.92723	5.12
2.94390	5.12
2.96057	5.12
2.97723	5.12
2.99390	5.12
3.01057	5.12
3.02723	5.11
3.04390	5.11
3.06057	5.12
3.07723	5.12
3.09390	5.11
3.11057	5.11
3.12723	5.11
3.14390	5.11
3.16057	5.11
3.17723	5.11
3.19390	5.11
3.21057	5.11
3.22723	5.11
3.24390	5.11
3.26057	5.11
3.27723	5.11
3.29390	5.11
3.31057	5.11
3.32723	5.11
3.34390	5.11
3.36057	5.11
3.37723	5.11
3.39390	5.11
3.41057	5.11
3.42723	5.11
3.44390	5.11
3.46057	5.11
3.47723	5.11
3.49390	5.11
3.51057	5.11
3.52723	5.11
3.54390	5.11
3.56057	5.11
3.57723	5.11
3.59390	5.11
3.61057	5.11
3.62723	5.11
3.64390	5.11
3.66057	5.11
3.67723	5.11
3.69390	5.11
3.71057	5.11
3.72723	5.11
3.74390	5.11
3.76057	5.11
3.77723	5.11
3.79390	5.11
3.81057	5.11
3.82723	5.11
3.84390	5.11
3.86057	5.11
3.87723	5.11
3.89390	5.11
3.91057	5.11
3.92723	5.11
3.94390	5.11
3.96057	5.11
3.97723	5.11

[Status Trace (Linear Velocity)]
Interval(msec)	1000
# of Points	239
Start Time(min)	0.011
End Time(min)	3.977
Intensity Units	
Intensity Multiplier	1
R.Time (min)	Intensity
0.01057	39.02
0.02723	37.08
0.04390	38.59
0.06057	39.98
0.07723	39.75
0.09390	39.05
0.11057	39.02
0.12723	39.03
0.14390	39.03
0.16057	39.03
0.17723	39.03
0.19390	39.03
0.21057	39.03
0.22723	39.03
0.24390	39.03
0.26057	39.03
0.27723	39.03
0.29390	39.03
0.31057	39.03
0.32723	39.03
0.34390	39.03
0.36057	39.03
0.37723	39.03
0.39390	39.03
0.41057	39.03
0.42723	39.03
0.44390	39.03
0.46057	39.03
0.47723	39.03
0.49390	39.03
0.51057	39.03
0.52723	39.03
0.54390	39.03
0.56057	39.03
0.57723	39.03
0.59390	39.03
0.61057	39.03
0.62723	39.03
0.64390	39.03
0.66057	39.03
0.67723	39.03
0.69390	39.02
0.71057	39.02
0.72723	39.02
0.74390	39.03
0.76057	39.03
0.77723	39.03
0.79390	39.03
0.81057	39.03
0.82723	39.03
0.84390	39.03
0.86057	39.03
0.87723	39.03
0.89390	39.03
0.91057	39.03
0.92723	39.03
0.94390	39.03
0.96057	39.03
0.97723	39.03
0.99390	39.03
1.01057	39.03
1.02723	39.03
1.04390	39.03
1.06057	39.03
1.07723	39.03
1.09390	39.03
1.11057	39.03
1.12723	39.03
1.14390	39.03
1.16057	39.03
1.17723	39.03
1.19390	39.03
1.21057	39.03
1.22723	39.02
1.24390	39.02
1.26057	39.02
1.27723	39.03
1.29390	39.02
1.31057	39.02
1.32723	39.02
1.34390	39.02
1.36057	39.02
1.37723	39.02
1.39390	39.02
1.41057	39.02
1.42723	39.02
1.44390	39.02
1.46057	39.02
1.47723	39.03
1.49390	39.03
1.51057	39.03
1.52723	39.02
1.54390	39.02
1.56057	39.02
1.57723	39.02
1.59390	39.02
1.61057	39.02
1.62723	39.01
1.64390	38.99
1.66057	38.97
1.67723	38.94
1.69390	38.90
1.71057	38.86
1.72723	38.83
1.74390	38.80
1.76057	38.77
1.77723	38.74
1.79390	38.71
1.81057	38.68
1.82723	38.64
1.84390	38.61
1.86057	38.58
1.87723	38.55
1.89390	38.52
1.91057	38.49
1.92723	38.46
1.94390	38.43
1.96057	38.40
1.97723	38.37
1.99390	38.34
2.01057	38.31
2.02723	38.28
2.04390	38.25
2.06057	38.22
2.07723	38.19
2.09390	38.16
2.11057	38.13
2.12723	38.10
2.14390	38.07
2.16057	38.04
2.17723	38.01
2.19390	37.98
2.21057	37.95
2.22723	37.92
2.24390	37.89
2.26057	37.86
2.27723	37.83
2.29390	37.80
2.31057	37.77
2.32723	37.74
2.34390	37.71
2.36057	37.69
2.37723	37.67
2.39390	37.67
2.41057	37.67
2.42723	37.67
2.44390	37.67
2.46057	37.67
2.47723	37.67
2.49390	37.67
2.51057	37.66
2.52723	37.65
2.54390	37.67
2.56057	37.66
2.57723	37.66
2.59390	37.66
2.61057	37.66
2.62723	37.66
2.64390	37.66
2.66057	37.66
2.67723	37.66
2.69390	37.65
2.71057	37.65
2.72723	37.66
2.74390	37.65
2.76057	37.65
2.77723	37.65
2.79390	37.65
2.81057	37.65
2.82723	37.65
2.84390	37.65
2.86057	37.65
2.87723	37.65
2.89390	37.65
2.91057	37.65
2.92723	37.65
2.94390	37.65
2.96057	37.64
2.97723	37.64
2.99390	37.64
3.01057	37.64
3.02723	37.64
3.04390	37.64
3.06057	37.64
3.07723	37.64
3.09390	37.64
3.11057	37.64
3.12723	37.64
3.14390	37.64
3.16057	37.63
3.17723	37.63
3.19390	37.63
3.21057	37.63
3.22723	37.63
3.24390	37.64
3.26057	37.64
3.27723	37.64
3.29390	37.64
3.31057	37.64
3.32723	37.64
3.34390	37.64
3.36057	37.64
3.37723	37.64
3.39390	37.64
3.41057	37.64
3.42723	37.64
3.44390	37.64
3.46057	37.64
3.47723	37.64
3.49390	37.64
3.51057	37.64
3.52723	37.64
3.54390	37.64
3.56057	37.64
3.57723	37.64
3.59390	37.64
3.61057	37.64
3.62723	37.64
3.64390	37.64
3.66057	37.64
3.67723	37.64
3.69390	37.64
3.71057	37.64
3.72723	37.64
3.74390	37.63
3.76057	37.64
3.77723	37.64
3.79390	37.64
3.81057	37.64
3.82723	37.64
3.84390	37.64
3.86057	37.64
3.87723	37.64
3.89390	37.64
3.91057	37.64
3.92723	37.64
3.94390	37.64
3.96057	37.64
3.97723	37.64

