[Header]
Application Name	LabSolutions
Version	5.110
Data File Name	C:\Users\User\Desktop\GC Analyses\Jack\UIC Prairie Sampling\9.2.22\220902_067.gcd
Output Date	10/28/2022
Output Time	1:23:55 PM

[File Information]
Type	Data File
Generated	10/27/2022 11:52:14 AM
Generated by	System Administrator
Modified	10/27/2022 11:56:39 AM
Modified by	System Administrator

[Sample Information]
Operator Name	System Administrator
Acquired	10/27/2022 11:52:38 AM
Sample Type	1:Standard
Level	1
Sample Name	220902_UICPrairie
Sample ID	220902_UICPrairie
ISTD Amount1	1
ISTD Amount2	1
ISTD Amount3	1
ISTD Amount4	1
ISTD Amount5	1
ISTD Amount6	1
ISTD Amount7	1
ISTD Amount8	1
ISTD Amount9	1
ISTD Amount10	1
ISTD Amount11	1
ISTD Amount12	1
ISTD Amount13	1
ISTD Amount14	1
ISTD Amount15	1
ISTD Amount16	1
ISTD Amount17	1
ISTD Amount18	1
ISTD Amount19	1
ISTD Amount20	1
ISTD Amount21	1
ISTD Amount22	1
ISTD Amount23	1
ISTD Amount24	1
ISTD Amount25	1
ISTD Amount26	1
ISTD Amount27	1
ISTD Amount28	1
ISTD Amount29	1
ISTD Amount30	1
ISTD Amount31	1
ISTD Amount32	1
Sample Amount	1
Dilution Factor	1
Vial#	1
Injection Volume	1
Injection Count	1
Bar Code	

[Original Files]
Data File	C:\Users\User\Desktop\GC Analyses\Jack\UIC Prairie Sampling\9.2.22\220902_067.gcd
Method File	C:\LabSolutions\Data\GHG_4min_2022\ghg3_togas_w_acet_4 min_new_int.gcm
Batch File	
Report Format File	c:\LabSolutions\System\DEFAULT.lsr

[File Description]


[Configuration]
Instrument Name	C0B7VH3-Instrument1
Instrument #	1
Line #	1
# of Detectors	3
Detector ID	DET#1	DET#2	DET#3
Detector Name	FID	PTCD	ECD
# of Channels	1	1	1

[Peak Table(Ch1)]
# of Peaks	3
Peak#	R.Time	I.Time	F.Time	Area	Height	A/H	Conc.	Mark	ID#	Name	k'	Plate #	Plate Ht.	Tailing	Resolution	Sep.Factor	Area Ratio	Height Ratio	Conc. %	Norm Conc.
1	1.468	1.435	1.534	3883	1282	3.028	100.000	   	1	CO	0.000	5058	29.656	0.000	0.000	0.000	0	0	16.667	16.667
2	1.571	1.534	1.637	21267	10610	2.004	100.000	 V 	2	CH4	0.070	11268	13.313	1.138	1.448	0.000	0	0	16.667	16.667
3	1.996	1.949	2.466	2215746	1058313	2.094	400.000	   	3	CO2	0.360	17250	8.696	1.300	7.089	5.143	0	0	66.667	66.667

[Peak Table(Ch2)]
# of Peaks	0

[Peak Table(Ch3)]
# of Peaks	3
Peak#	R.Time	I.Time	F.Time	Area	Height	A/H	Conc.	Mark	ID#	Name	k'	Plate #	Plate Ht.	Tailing	Resolution	Sep.Factor	Area Ratio	Height Ratio	Conc. %	Norm Conc.
1	2.594	2.304	2.645	3847	310	12.427	0.000	   			0.000	1911	78.511	0.582	0.000	0.000	0	0	0.000	0.000
2	2.884	2.664	3.199	65771	16265	4.044	1.000	   	1	N2O	0.112	12396	12.100	1.528	1.699	0.000	0	0	100.000	100.000
3	3.459	3.338	3.965	11035	521	21.190	0.000	   			0.334	539	278.449	2.573	1.645	2.987	0	0	0.000	0.000

[Compound Results(Ch1)]
# of IDs	6
ID#	Name	R.Time	Area	Height	Conc.	Curve	3rd	2nd	1st	Constant	Area Ratio	Height Ratio	Conc. %	Norm Conc.
1	CO	1.468	3883	1282	100.000	Linear	0.000000e+00	0.000000e+00	3.882904e+001	0.000000e+00	0	0	16.667	16.667
2	CH4	1.571	21267	10610	100.000	Linear	0.000000e+00	0.000000e+00	2.126708e+002	0.000000e+00	0	0	16.667	16.667
3	CO2	1.996	2215746	1058313	400.000	Linear	0.000000e+00	0.000000e+00	5.539365e+003	0.000000e+00	0	0	66.667	66.667
4	Ethylene	0.000	0	0	0.000	Linear	0.000000e+00	0.000000e+00	0.000000e+00	0.000000e+00	0	0	0.000	0.000
5	Acetylene	0.000	0	0	0.000	Linear	0.000000e+00	0.000000e+00	0.000000e+00	0.000000e+00	0	0	0.000	0.000
6	Ethane	0.000	0	0	0.000	Linear	0.000000e+00	0.000000e+00	0.000000e+00	0.000000e+00	0	0	0.000	0.000

[Compound Results(Ch2)]
# of IDs	5
ID#	Name	R.Time	Area	Height	Conc.	Curve	3rd	2nd	1st	Constant	Area Ratio	Height Ratio	Conc. %	Norm Conc.
1	Hydrogen	0.000	0	0	0.000	Linear	0.000000e+00	0.000000e+00	0.000000e+00	0.000000e+00	0	0	0.000	0.000
2	Oxygen	0.000	0	0	0.000	Linear	0.000000e+00	0.000000e+00	0.000000e+00	0.000000e+00	0	0	0.000	0.000
3	Nitrogen	0.000	0	0	0.000	Linear	0.000000e+00	0.000000e+00	0.000000e+00	0.000000e+00	0	0	0.000	0.000
4	Methane	0.000	0	0	0.000	Linear	0.000000e+00	0.000000e+00	0.000000e+00	0.000000e+00	0	0	0.000	0.000
5	Carbon Monoxide	0.000	0	0	0.000	Linear	0.000000e+00	0.000000e+00	0.000000e+00	0.000000e+00	0	0	0.000	0.000

[Compound Results(Ch3)]
# of IDs	2
ID#	Name	R.Time	Area	Height	Conc.	Curve	3rd	2nd	1st	Constant	Area Ratio	Height Ratio	Conc. %	Norm Conc.
1	N2O	2.884	65771	16265	1.000	Linear	0.000000e+00	0.000000e+00	6.577070e+004	0.000000e+00	0	0	100.000	100.000
2	SF6	0.000	0	0	0.000	Linear	0.000000e+00	0.000000e+00	0.000000e+00	0.000000e+00	0	0	0.000	0.000

[Group Results(Ch1)]
# of Groups	0

[Group Results(Ch2)]
# of Groups	0

[Group Results(Ch3)]
# of Groups	0

[Chromatogram (Ch1)]
Interval(msec)	220
# of Points	1091
Start Time(min)	0.002
End Time(min)	3.998
R.Time (min)	Intensity
0.00167	7
0.00533	1
0.00900	-8
0.01267	-16
0.01633	-15
0.02000	-10
0.02367	-2
0.02733	3
0.03100	5
0.03467	4
0.03833	1
0.04200	0
0.04567	3
0.04933	7
0.05300	9
0.05667	9
0.06033	9
0.06400	4
0.06767	1
0.07133	-1
0.07500	1
0.07867	3
0.08233	6
0.08600	9
0.08967	12
0.09333	13
0.09700	10
0.10067	6
0.10433	6
0.10800	9
0.11167	11
0.11533	10
0.11900	8
0.12267	4
0.12633	-1
0.13000	-3
0.13367	-2
0.13733	2
0.14100	7
0.14467	11
0.14833	12
0.15200	9
0.15567	2
0.15933	-5
0.16300	-10
0.16667	-15
0.17033	-18
0.17400	-19
0.17767	-16
0.18133	-12
0.18500	-8
0.18867	-8
0.19233	-8
0.19600	-9
0.19967	-11
0.20333	-13
0.20700	-16
0.21067	-20
0.21433	-22
0.21800	-20
0.22167	-16
0.22533	-13
0.22900	-14
0.23267	-16
0.23633	-14
0.24000	-11
0.24367	-10
0.24733	-10
0.25100	-12
0.25467	-13
0.25833	-15
0.26200	-17
0.26567	-19
0.26933	-20
0.27300	-22
0.27667	-22
0.28033	-22
0.28400	-23
0.28767	-25
0.29133	-26
0.29500	-26
0.29867	-26
0.30233	-25
0.30600	-23
0.30967	-26
0.31333	-29
0.31700	-27
0.32067	-24
0.32433	-24
0.32800	-27
0.33167	-29
0.33533	-31
0.33900	-30
0.34267	-29
0.34633	-30
0.35000	-33
0.35367	-35
0.35733	-34
0.36100	-35
0.36467	-38
0.36833	-41
0.37200	-42
0.37567	-41
0.37933	-38
0.38300	-34
0.38667	-27
0.39033	-19
0.39400	-11
0.39767	-4
0.40133	2
0.40500	4
0.40867	-2
0.41233	-12
0.41600	-20
0.41967	-26
0.42333	-31
0.42700	-34
0.43067	-36
0.43433	-35
0.43800	-37
0.44167	-42
0.44533	-44
0.44900	-41
0.45267	-38
0.45633	-37
0.46000	-37
0.46367	-35
0.46733	-31
0.47100	-26
0.47467	-22
0.47833	-22
0.48200	-26
0.48567	-33
0.48933	-37
0.49300	-41
0.49667	-48
0.50033	-53
0.50400	-56
0.50767	-55
0.51133	-45
0.51500	-35
0.51867	-29
0.52233	-24
0.52600	-21
0.52967	-18
0.53333	-18
0.53700	-22
0.54067	-26
0.54433	-28
0.54800	-27
0.55167	-29
0.55533	-30
0.55900	-32
0.56267	-35
0.56633	-35
0.57000	-35
0.57367	-38
0.57733	-44
0.58100	-49
0.58467	-50
0.58833	-49
0.59200	-47
0.59567	-44
0.59933	-41
0.60300	-42
0.60667	-43
0.61033	-45
0.61400	-47
0.61767	-50
0.62133	-53
0.62500	-55
0.62867	-55
0.63233	-53
0.63600	-50
0.63967	-44
0.64333	-40
0.64700	-37
0.65067	-35
0.65433	-34
0.65800	-34
0.66167	-36
0.66533	-37
0.66900	-39
0.67267	-41
0.67633	-43
0.68000	-45
0.68367	-49
0.68733	-52
0.69100	-56
0.69467	-55
0.69833	-50
0.70200	-41
0.70567	-31
0.70933	-28
0.71300	-32
0.71667	-41
0.72033	-46
0.72400	-52
0.72767	-56
0.73133	-57
0.73500	-58
0.73867	-63
0.74233	-69
0.74600	-74
0.74967	-76
0.75333	-73
0.75700	-67
0.76067	-59
0.76433	-53
0.76800	-51
0.77167	-49
0.77533	-49
0.77900	-50
0.78267	-49
0.78633	-48
0.79000	-50
0.79367	-54
0.79733	-57
0.80100	-61
0.80467	-66
0.80833	-70
0.81200	-71
0.81567	-67
0.81933	-59
0.82300	-52
0.82667	-49
0.83033	-50
0.83400	-56
0.83767	-59
0.84133	-59
0.84500	-57
0.84867	-54
0.85233	-55
0.85600	-60
0.85967	-67
0.86333	-75
0.86700	-82
0.87067	-82
0.87433	-78
0.87800	-69
0.88167	-60
0.88533	-52
0.88900	-48
0.89267	-45
0.89633	-47
0.90000	-53
0.90367	-57
0.90733	-58
0.91100	-55
0.91467	-52
0.91833	-54
0.92200	-60
0.92567	-64
0.92933	-66
0.93300	-67
0.93667	-69
0.94033	-72
0.94400	-78
0.94767	-84
0.95133	-89
0.95500	-94
0.95867	-95
0.96233	-91
0.96600	-83
0.96967	-73
0.97333	-62
0.97700	-54
0.98067	-50
0.98433	-51
0.98800	-56
0.99167	-60
0.99533	-62
0.99900	-64
1.00267	-65
1.00633	-65
1.01000	-67
1.01367	-73
1.01733	-80
1.02100	-84
1.02467	-87
1.02833	-88
1.03200	-86
1.03567	-81
1.03933	-75
1.04300	-69
1.04667	-66
1.05033	-66
1.05400	-71
1.05767	-77
1.06133	-81
1.06500	-83
1.06867	-84
1.07233	-84
1.07600	-82
1.07967	-81
1.08333	-78
1.08700	-75
1.09067	-74
1.09433	-73
1.09800	-71
1.10167	-69
1.10533	-66
1.10900	-65
1.11267	-68
1.11633	-74
1.12000	-81
1.12367	-84
1.12733	-84
1.13100	-85
1.13467	-89
1.13833	-91
1.14200	-88
1.14567	-80
1.14933	-74
1.15300	-70
1.15667	-67
1.16033	-65
1.16400	-67
1.16767	-68
1.17133	-71
1.17500	-77
1.17867	-84
1.18233	-89
1.18600	-93
1.18967	-98
1.19333	-102
1.19700	-102
1.20067	-98
1.20433	-92
1.20800	-87
1.21167	-82
1.21533	-78
1.21900	-75
1.22267	-75
1.22633	-75
1.23000	-75
1.23367	-73
1.23733	-75
1.24100	-80
1.24467	-87
1.24833	-91
1.25200	-94
1.25567	-95
1.25933	-94
1.26300	-93
1.26667	-92
1.27033	-92
1.27400	-94
1.27767	-97
1.28133	-98
1.28500	-95
1.28867	-90
1.29233	-88
1.29600	-92
1.29967	-96
1.30333	-100
1.30700	-101
1.31067	-101
1.31433	-99
1.31800	-94
1.32167	-93
1.32533	-97
1.32900	-102
1.33267	-106
1.33633	-108
1.34000	-108
1.34367	-105
1.34733	-104
1.35100	-106
1.35467	-110
1.35833	-112
1.36200	-111
1.36567	-109
1.36933	-109
1.37300	-107
1.37667	-102
1.38033	-100
1.38400	-101
1.38767	-104
1.39133	-106
1.39500	-108
1.39867	-107
1.40233	-104
1.40600	-102
1.40967	-101
1.41333	-102
1.41700	-104
1.42067	-107
1.42433	-107
1.42800	-105
1.43167	-105
1.43533	-103
1.43900	-81
1.44267	17
1.44633	239
1.45000	529
1.45367	793
1.45733	985
1.46100	1104
1.46467	1162
1.46833	1179
1.47200	1170
1.47567	1144
1.47933	1103
1.48300	1042
1.48667	954
1.49033	840
1.49400	711
1.49767	580
1.50133	458
1.50500	353
1.50867	263
1.51233	187
1.51600	123
1.51967	70
1.52333	29
1.52700	-3
1.53067	-26
1.53433	-37
1.53800	5
1.54167	258
1.54533	1011
1.54900	2455
1.55267	4414
1.55633	6461
1.56000	8238
1.56367	9574
1.56733	10372
1.57100	10506
1.57467	9870
1.57833	8554
1.58200	6860
1.58567	5146
1.58933	3662
1.59300	2504
1.59667	1662
1.60033	1075
1.60400	676
1.60767	407
1.61133	227
1.61500	108
1.61867	31
1.62233	-21
1.62600	-57
1.62967	-83
1.63333	-99
1.63700	-105
1.64067	-106
1.64433	-109
1.64800	-113
1.65167	-121
1.65533	-127
1.65900	-132
1.66267	-135
1.66633	-135
1.67000	-132
1.67367	-128
1.67733	-126
1.68100	-123
1.68467	-118
1.68833	-117
1.69200	-119
1.69567	-121
1.69933	-124
1.70300	-128
1.70667	-131
1.71033	-131
1.71400	-130
1.71767	-127
1.72133	-126
1.72500	-127
1.72867	-130
1.73233	-135
1.73600	-138
1.73967	-139
1.74333	-139
1.74700	-138
1.75067	-134
1.75433	-130
1.75800	-127
1.76167	-124
1.76533	-121
1.76900	-117
1.77267	-115
1.77633	-115
1.78000	-117
1.78367	-114
1.78733	-107
1.79100	-107
1.79467	-112
1.79833	-120
1.80200	-129
1.80567	-137
1.80933	-141
1.81300	-142
1.81667	-138
1.82033	-136
1.82400	-134
1.82767	-130
1.83133	-123
1.83500	-115
1.83867	-113
1.84233	-116
1.84600	-125
1.84967	-134
1.85333	-137
1.85700	-135
1.86067	-130
1.86433	-125
1.86800	-122
1.87167	-121
1.87533	-121
1.87900	-118
1.88267	-114
1.88633	-110
1.89000	-109
1.89367	-107
1.89733	-105
1.90100	-104
1.90467	-108
1.90833	-114
1.91200	-119
1.91567	-122
1.91933	-123
1.92300	-120
1.92667	-117
1.93033	-117
1.93400	-120
1.93767	-122
1.94133	-122
1.94500	-120
1.94867	-113
1.95233	-91
1.95600	55
1.95967	933
1.96333	5101
1.96700	20034
1.97067	61007
1.97433	147636
1.97800	290364
1.98167	477845
1.98533	679383
1.98900	859998
1.99267	992153
1.99633	1058224
2.00000	1050934
2.00367	974719
2.00733	846298
2.01100	690710
2.01467	533625
2.01833	393989
2.02200	280995
2.02567	195668
2.02933	134349
2.03300	91772
2.03667	62871
2.04033	43516
2.04400	30618
2.04767	22011
2.05133	16229
2.05500	12303
2.05867	9593
2.06233	7684
2.06600	6308
2.06967	5295
2.07333	4533
2.07700	3946
2.08067	3479
2.08433	3099
2.08800	2781
2.09167	2514
2.09533	2287
2.09900	2092
2.10267	1924
2.10633	1779
2.11000	1654
2.11367	1549
2.11733	1459
2.12100	1376
2.12467	1298
2.12833	1223
2.13200	1153
2.13567	1092
2.13933	1042
2.14300	996
2.14667	951
2.15033	908
2.15400	867
2.15767	829
2.16133	795
2.16500	761
2.16867	729
2.17233	702
2.17600	678
2.17967	656
2.18333	635
2.18700	615
2.19067	595
2.19433	574
2.19800	552
2.20167	531
2.20533	514
2.20900	501
2.21267	491
2.21633	480
2.22000	471
2.22367	460
2.22733	449
2.23100	437
2.23467	423
2.23833	409
2.24200	396
2.24567	386
2.24933	379
2.25300	372
2.25667	364
2.26033	355
2.26400	345
2.26767	337
2.27133	330
2.27500	325
2.27867	320
2.28233	314
2.28600	309
2.28967	304
2.29333	300
2.29700	295
2.30067	287
2.30433	276
2.30800	262
2.31167	248
2.31533	235
2.31900	228
2.32267	230
2.32633	235
2.33000	235
2.33367	235
2.33733	233
2.34100	230
2.34467	225
2.34833	220
2.35200	218
2.35567	215
2.35933	211
2.36300	204
2.36667	199
2.37033	198
2.37400	199
2.37767	199
2.38133	195
2.38500	189
2.38867	185
2.39233	186
2.39600	190
2.39967	192
2.40333	191
2.40700	189
2.41067	184
2.41433	179
2.41800	176
2.42167	175
2.42533	178
2.42900	179
2.43267	182
2.43633	182
2.44000	181
2.44367	179
2.44733	171
2.45100	159
2.45467	152
2.45833	148
2.46200	146
2.46567	147
2.46933	151
2.47300	155
2.47667	157
2.48033	155
2.48400	149
2.48767	142
2.49133	136
2.49500	130
2.49867	128
2.50233	129
2.50600	130
2.50967	132
2.51333	137
2.51700	142
2.52067	144
2.52433	140
2.52800	138
2.53167	143
2.53533	149
2.53900	152
2.54267	149
2.54633	142
2.55000	135
2.55367	129
2.55733	121
2.56100	116
2.56467	111
2.56833	106
2.57200	105
2.57567	107
2.57933	109
2.58300	109
2.58667	105
2.59033	103
2.59400	103
2.59767	107
2.60133	109
2.60500	111
2.60867	114
2.61233	117
2.61600	117
2.61967	115
2.62333	112
2.62700	108
2.63067	104
2.63433	100
2.63800	96
2.64167	91
2.64533	91
2.64900	95
2.65267	101
2.65633	104
2.66000	104
2.66367	104
2.66733	104
2.67100	106
2.67467	110
2.67833	114
2.68200	119
2.68567	124
2.68933	126
2.69300	124
2.69667	118
2.70033	109
2.70400	103
2.70767	97
2.71133	93
2.71500	92
2.71867	93
2.72233	97
2.72600	99
2.72967	98
2.73333	96
2.73700	95
2.74067	98
2.74433	103
2.74800	109
2.75167	113
2.75533	115
2.75900	115
2.76267	114
2.76633	114
2.77000	113
2.77367	112
2.77733	106
2.78100	99
2.78467	92
2.78833	88
2.79200	86
2.79567	87
2.79933	91
2.80300	96
2.80667	99
2.81033	102
2.81400	108
2.81767	116
2.82133	124
2.82500	127
2.82867	125
2.83233	118
2.83600	109
2.83967	100
2.84333	94
2.84700	89
2.85067	89
2.85433	91
2.85800	94
2.86167	96
2.86533	99
2.86900	102
2.87267	101
2.87633	99
2.88000	97
2.88367	92
2.88733	85
2.89100	79
2.89467	79
2.89833	83
2.90200	84
2.90567	82
2.90933	80
2.91300	77
2.91667	77
2.92033	80
2.92400	82
2.92767	83
2.93133	85
2.93500	87
2.93867	90
2.94233	94
2.94600	100
2.94967	109
2.95333	115
2.95700	119
2.96067	118
2.96433	115
2.96800	111
2.97167	106
2.97533	102
2.97900	99
2.98267	95
2.98633	89
2.99000	84
2.99367	83
2.99733	86
3.00100	90
3.00467	94
3.00833	100
3.01200	104
3.01567	105
3.01933	103
3.02300	96
3.02667	90
3.03033	87
3.03400	85
3.03767	83
3.04133	86
3.04500	91
3.04867	96
3.05233	98
3.05600	98
3.05967	95
3.06333	94
3.06700	96
3.07067	97
3.07433	96
3.07800	92
3.08167	84
3.08533	74
3.08900	66
3.09267	61
3.09633	59
3.10000	61
3.10367	64
3.10733	71
3.11100	81
3.11467	91
3.11833	97
3.12200	98
3.12567	97
3.12933	93
3.13300	89
3.13667	86
3.14033	81
3.14400	76
3.14767	70
3.15133	64
3.15500	59
3.15867	59
3.16233	63
3.16600	67
3.16967	70
3.17333	70
3.17700	68
3.18067	65
3.18433	63
3.18800	60
3.19167	58
3.19533	60
3.19900	67
3.20267	74
3.20633	77
3.21000	80
3.21367	81
3.21733	81
3.22100	81
3.22467	81
3.22833	83
3.23200	82
3.23567	82
3.23933	81
3.24300	79
3.24667	78
3.25033	78
3.25400	77
3.25767	72
3.26133	68
3.26500	64
3.26867	61
3.27233	63
3.27600	64
3.27967	64
3.28333	63
3.28700	60
3.29067	59
3.29433	60
3.29800	68
3.30167	76
3.30533	81
3.30900	85
3.31267	87
3.31633	83
3.32000	76
3.32367	70
3.32733	69
3.33100	71
3.33467	75
3.33833	71
3.34200	62
3.34567	49
3.34933	38
3.35300	28
3.35667	21
3.36033	19
3.36400	20
3.36767	24
3.37133	31
3.37500	39
3.37867	46
3.38233	50
3.38600	53
3.38967	54
3.39333	59
3.39700	65
3.40067	68
3.40433	67
3.40800	66
3.41167	66
3.41533	64
3.41900	62
3.42267	60
3.42633	58
3.43000	55
3.43367	58
3.43733	62
3.44100	67
3.44467	72
3.44833	76
3.45200	76
3.45567	71
3.45933	65
3.46300	58
3.46667	52
3.47033	47
3.47400	46
3.47767	47
3.48133	50
3.48500	54
3.48867	53
3.49233	47
3.49600	41
3.49967	35
3.50333	31
3.50700	32
3.51067	38
3.51433	48
3.51800	56
3.52167	59
3.52533	57
3.52900	55
3.53267	54
3.53633	54
3.54000	53
3.54367	51
3.54733	49
3.55100	50
3.55467	53
3.55833	58
3.56200	60
3.56567	60
3.56933	60
3.57300	62
3.57667	65
3.58033	66
3.58400	64
3.58767	61
3.59133	60
3.59500	60
3.59867	58
3.60233	55
3.60600	54
3.60967	53
3.61333	56
3.61700	61
3.62067	64
3.62433	62
3.62800	60
3.63167	61
3.63533	64
3.63900	65
3.64267	64
3.64633	65
3.65000	62
3.65367	57
3.65733	54
3.66100	56
3.66467	61
3.66833	61
3.67200	57
3.67567	50
3.67933	43
3.68300	37
3.68667	38
3.69033	43
3.69400	48
3.69767	52
3.70133	55
3.70500	55
3.70867	50
3.71233	42
3.71600	35
3.71967	33
3.72333	35
3.72700	41
3.73067	48
3.73433	59
3.73800	68
3.74167	71
3.74533	67
3.74900	59
3.75267	50
3.75633	43
3.76000	42
3.76367	43
3.76733	42
3.77100	38
3.77467	34
3.77833	33
3.78200	35
3.78567	37
3.78933	34
3.79300	29
3.79667	21
3.80033	17
3.80400	19
3.80767	22
3.81133	27
3.81500	31
3.81867	31
3.82233	31
3.82600	29
3.82967	28
3.83333	26
3.83700	24
3.84067	25
3.84433	31
3.84800	37
3.85167	42
3.85533	46
3.85900	49
3.86267	54
3.86633	59
3.87000	60
3.87367	60
3.87733	59
3.88100	56
3.88467	53
3.88833	50
3.89200	47
3.89567	39
3.89933	34
3.90300	35
3.90667	38
3.91033	39
3.91400	39
3.91767	41
3.92133	42
3.92500	37
3.92867	34
3.93233	33
3.93600	36
3.93967	43
3.94333	52
3.94700	60
3.95067	64
3.95433	62
3.95800	57
3.96167	53
3.96533	49
3.96900	46
3.97267	45
3.97633	45
3.98000	43
3.98367	37
3.98733	31
3.99100	27
3.99467	24
3.99833	22

[Chromatogram (Ch2)]
Interval(msec)	220
# of Points	1091
Start Time(min)	0.002
End Time(min)	3.998
R.Time (min)	Intensity
0.00167	0
0.00533	0
0.00900	0
0.01267	-0
0.01633	-0
0.02000	-1
0.02367	-1
0.02733	-1
0.03100	-1
0.03467	-2
0.03833	-2
0.04200	-2
0.04567	-2
0.04933	-2
0.05300	-2
0.05667	-1
0.06033	-1
0.06400	-1
0.06767	-0
0.07133	-0
0.07500	0
0.07867	1
0.08233	1
0.08600	2
0.08967	2
0.09333	3
0.09700	3
0.10067	4
0.10433	4
0.10800	4
0.11167	4
0.11533	4
0.11900	4
0.12267	4
0.12633	4
0.13000	4
0.13367	4
0.13733	4
0.14100	4
0.14467	4
0.14833	4
0.15200	4
0.15567	4
0.15933	4
0.16300	4
0.16667	4
0.17033	4
0.17400	3
0.17767	3
0.18133	3
0.18500	3
0.18867	3
0.19233	3
0.19600	2
0.19967	1
0.20333	1
0.20700	0
0.21067	-0
0.21433	-1
0.21800	-1
0.22167	-2
0.22533	-2
0.22900	-2
0.23267	-2
0.23633	-2
0.24000	-2
0.24367	-1
0.24733	-0
0.25100	0
0.25467	0
0.25833	1
0.26200	1
0.26567	2
0.26933	2
0.27300	3
0.27667	3
0.28033	3
0.28400	3
0.28767	3
0.29133	3
0.29500	3
0.29867	3
0.30233	3
0.30600	3
0.30967	2
0.31333	2
0.31700	1
0.32067	1
0.32433	1
0.32800	1
0.33167	1
0.33533	1
0.33900	1
0.34267	1
0.34633	1
0.35000	1
0.35367	0
0.35733	0
0.36100	0
0.36467	0
0.36833	0
0.37200	1
0.37567	1
0.37933	1
0.38300	1
0.38667	1
0.39033	1
0.39400	1
0.39767	1
0.40133	2
0.40500	2
0.40867	2
0.41233	2
0.41600	3
0.41967	3
0.42333	3
0.42700	3
0.43067	3
0.43433	3
0.43800	3
0.44167	3
0.44533	2
0.44900	2
0.45267	2
0.45633	2
0.46000	2
0.46367	1
0.46733	1
0.47100	1
0.47467	1
0.47833	1
0.48200	1
0.48567	1
0.48933	1
0.49300	1
0.49667	1
0.50033	0
0.50400	0
0.50767	0
0.51133	0
0.51500	0
0.51867	1
0.52233	1
0.52600	1
0.52967	1
0.53333	1
0.53700	1
0.54067	1
0.54433	1
0.54800	1
0.55167	0
0.55533	-0
0.55900	-1
0.56267	-2
0.56633	-2
0.57000	-2
0.57367	-2
0.57733	-2
0.58100	-2
0.58467	-2
0.58833	-2
0.59200	-2
0.59567	-2
0.59933	-2
0.60300	-2
0.60667	-1
0.61033	-1
0.61400	-1
0.61767	-1
0.62133	-0
0.62500	0
0.62867	0
0.63233	1
0.63600	1
0.63967	1
0.64333	2
0.64700	2
0.65067	1
0.65433	1
0.65800	1
0.66167	1
0.66533	1
0.66900	1
0.67267	0
0.67633	0
0.68000	0
0.68367	-0
0.68733	-0
0.69100	-0
0.69467	-1
0.69833	-1
0.70200	-1
0.70567	-1
0.70933	-1
0.71300	-1
0.71667	-1
0.72033	-1
0.72400	-1
0.72767	-1
0.73133	-1
0.73500	-1
0.73867	-1
0.74233	-0
0.74600	-0
0.74967	0
0.75333	0
0.75700	0
0.76067	0
0.76433	0
0.76800	0
0.77167	-0
0.77533	-0
0.77900	-0
0.78267	-0
0.78633	-0
0.79000	-0
0.79367	-0
0.79733	-0
0.80100	-0
0.80467	-0
0.80833	-0
0.81200	0
0.81567	0
0.81933	0
0.82300	1
0.82667	1
0.83033	1
0.83400	1
0.83767	1
0.84133	1
0.84500	1
0.84867	0
0.85233	0
0.85600	0
0.85967	-0
0.86333	-0
0.86700	-0
0.87067	-1
0.87433	-1
0.87800	-1
0.88167	-1
0.88533	-2
0.88900	-2
0.89267	-2
0.89633	-2
0.90000	-2
0.90367	-2
0.90733	-2
0.91100	-2
0.91467	-1
0.91833	-1
0.92200	-1
0.92567	-1
0.92933	-2
0.93300	-2
0.93667	-3
0.94033	-3
0.94400	-4
0.94767	-4
0.95133	-4
0.95500	-5
0.95867	-5
0.96233	-5
0.96600	-5
0.96967	-5
0.97333	-5
0.97700	-6
0.98067	-6
0.98433	-6
0.98800	-6
0.99167	-5
0.99533	-5
0.99900	-5
1.00267	-5
1.00633	-5
1.01000	-5
1.01367	-5
1.01733	-4
1.02100	-4
1.02467	-4
1.02833	-4
1.03200	-4
1.03567	-3
1.03933	-3
1.04300	-2
1.04667	-2
1.05033	-1
1.05400	-0
1.05767	1
1.06133	1
1.06500	2
1.06867	2
1.07233	2
1.07600	3
1.07967	3
1.08333	3
1.08700	4
1.09067	4
1.09433	4
1.09800	4
1.10167	3
1.10533	3
1.10900	3
1.11267	3
1.11633	3
1.12000	3
1.12367	3
1.12733	2
1.13100	3
1.13467	3
1.13833	3
1.14200	3
1.14567	3
1.14933	3
1.15300	3
1.15667	3
1.16033	3
1.16400	3
1.16767	2
1.17133	2
1.17500	2
1.17867	2
1.18233	2
1.18600	2
1.18967	2
1.19333	2
1.19700	2
1.20067	2
1.20433	2
1.20800	2
1.21167	2
1.21533	2
1.21900	2
1.22267	2
1.22633	1
1.23000	1
1.23367	1
1.23733	1
1.24100	0
1.24467	0
1.24833	0
1.25200	-0
1.25567	-0
1.25933	-0
1.26300	-1
1.26667	-1
1.27033	-1
1.27400	-1
1.27767	-1
1.28133	-1
1.28500	-1
1.28867	-1
1.29233	-1
1.29600	-1
1.29967	-1
1.30333	-1
1.30700	-1
1.31067	-0
1.31433	-0
1.31800	-0
1.32167	-0
1.32533	-0
1.32900	-0
1.33267	-0
1.33633	-1
1.34000	-1
1.34367	-1
1.34733	-1
1.35100	-1
1.35467	-1
1.35833	-1
1.36200	-1
1.36567	-1
1.36933	-1
1.37300	-1
1.37667	-1
1.38033	-1
1.38400	-1
1.38767	-1
1.39133	-2
1.39500	-2
1.39867	-2
1.40233	-2
1.40600	-3
1.40967	-3
1.41333	-3
1.41700	-4
1.42067	-4
1.42433	-4
1.42800	-4
1.43167	-4
1.43533	-4
1.43900	-4
1.44267	-3
1.44633	-3
1.45000	-2
1.45367	-2
1.45733	-2
1.46100	-2
1.46467	-2
1.46833	-2
1.47200	-2
1.47567	-2
1.47933	-2
1.48300	-2
1.48667	-2
1.49033	-2
1.49400	-2
1.49767	-2
1.50133	-1
1.50500	-1
1.50867	-1
1.51233	-0
1.51600	0
1.51967	1
1.52333	1
1.52700	1
1.53067	1
1.53433	1
1.53800	1
1.54167	1
1.54533	1
1.54900	1
1.55267	1
1.55633	1
1.56000	1
1.56367	1
1.56733	0
1.57100	0
1.57467	-0
1.57833	-1
1.58200	-1
1.58567	-1
1.58933	-1
1.59300	-2
1.59667	-2
1.60033	-3
1.60400	-4
1.60767	-6
1.61133	-8
1.61500	-10
1.61867	-12
1.62233	-14
1.62600	-17
1.62967	-20
1.63333	-24
1.63700	-27
1.64067	-32
1.64433	-36
1.64800	-40
1.65167	-44
1.65533	-48
1.65900	-52
1.66267	-56
1.66633	-60
1.67000	-65
1.67367	-69
1.67733	-75
1.68100	-79
1.68467	-84
1.68833	-88
1.69200	-92
1.69567	-95
1.69933	-98
1.70300	-100
1.70667	-102
1.71033	-104
1.71400	-105
1.71767	-106
1.72133	-108
1.72500	-109
1.72867	-111
1.73233	-113
1.73600	-114
1.73967	-115
1.74333	-116
1.74700	-117
1.75067	-117
1.75433	-118
1.75800	-118
1.76167	-118
1.76533	-119
1.76900	-119
1.77267	-120
1.77633	-120
1.78000	-121
1.78367	-121
1.78733	-121
1.79100	-121
1.79467	-122
1.79833	-122
1.80200	-122
1.80567	-123
1.80933	-123
1.81300	-123
1.81667	-123
1.82033	-123
1.82400	-124
1.82767	-124
1.83133	-125
1.83500	-125
1.83867	-125
1.84233	-125
1.84600	-125
1.84967	-124
1.85333	-123
1.85700	-122
1.86067	-121
1.86433	-120
1.86800	-119
1.87167	-119
1.87533	-119
1.87900	-120
1.88267	-120
1.88633	-121
1.89000	-121
1.89367	-122
1.89733	-122
1.90100	-123
1.90467	-123
1.90833	-123
1.91200	-122
1.91567	-122
1.91933	-121
1.92300	-121
1.92667	-120
1.93033	-120
1.93400	-120
1.93767	-120
1.94133	-120
1.94500	-120
1.94867	-120
1.95233	-119
1.95600	-119
1.95967	-118
1.96333	-117
1.96700	-117
1.97067	-116
1.97433	-115
1.97800	-115
1.98167	-115
1.98533	-116
1.98900	-116
1.99267	-116
1.99633	-116
2.00000	-116
2.00367	-116
2.00733	-116
2.01100	-115
2.01467	-114
2.01833	-113
2.02200	-112
2.02567	-112
2.02933	-112
2.03300	-112
2.03667	-113
2.04033	-113
2.04400	-113
2.04767	-113
2.05133	-112
2.05500	-112
2.05867	-112
2.06233	-111
2.06600	-111
2.06967	-112
2.07333	-112
2.07700	-112
2.08067	-112
2.08433	-112
2.08800	-112
2.09167	-112
2.09533	-111
2.09900	-111
2.10267	-110
2.10633	-109
2.11000	-109
2.11367	-109
2.11733	-108
2.12100	-108
2.12467	-107
2.12833	-107
2.13200	-106
2.13567	-105
2.13933	-105
2.14300	-105
2.14667	-105
2.15033	-105
2.15400	-105
2.15767	-104
2.16133	-104
2.16500	-104
2.16867	-104
2.17233	-104
2.17600	-103
2.17967	-103
2.18333	-102
2.18700	-101
2.19067	-100
2.19433	-99
2.19800	-99
2.20167	-98
2.20533	-98
2.20900	-98
2.21267	-97
2.21633	-97
2.22000	-96
2.22367	-95
2.22733	-95
2.23100	-94
2.23467	-94
2.23833	-94
2.24200	-94
2.24567	-94
2.24933	-94
2.25300	-94
2.25667	-94
2.26033	-94
2.26400	-94
2.26767	-94
2.27133	-94
2.27500	-94
2.27867	-95
2.28233	-96
2.28600	-96
2.28967	-96
2.29333	-95
2.29700	-94
2.30067	-94
2.30433	-93
2.30800	-93
2.31167	-92
2.31533	-92
2.31900	-91
2.32267	-91
2.32633	-90
2.33000	-89
2.33367	-88
2.33733	-87
2.34100	-86
2.34467	-86
2.34833	-85
2.35200	-85
2.35567	-85
2.35933	-85
2.36300	-85
2.36667	-84
2.37033	-84
2.37400	-82
2.37767	-81
2.38133	-78
2.38500	-75
2.38867	-71
2.39233	-67
2.39600	-62
2.39967	-57
2.40333	-52
2.40700	-47
2.41067	-42
2.41433	-37
2.41800	-33
2.42167	-30
2.42533	-27
2.42900	-23
2.43267	-20
2.43633	-17
2.44000	-14
2.44367	-12
2.44733	-10
2.45100	-9
2.45467	-8
2.45833	-6
2.46200	-5
2.46567	-4
2.46933	-2
2.47300	-1
2.47667	0
2.48033	1
2.48400	1
2.48767	2
2.49133	2
2.49500	3
2.49867	4
2.50233	5
2.50600	6
2.50967	8
2.51333	9
2.51700	9
2.52067	9
2.52433	9
2.52800	9
2.53167	9
2.53533	9
2.53900	10
2.54267	10
2.54633	11
2.55000	13
2.55367	14
2.55733	15
2.56100	16
2.56467	17
2.56833	18
2.57200	18
2.57567	18
2.57933	18
2.58300	18
2.58667	19
2.59033	19
2.59400	19
2.59767	19
2.60133	19
2.60500	19
2.60867	20
2.61233	20
2.61600	20
2.61967	21
2.62333	21
2.62700	21
2.63067	22
2.63433	22
2.63800	22
2.64167	22
2.64533	22
2.64900	22
2.65267	22
2.65633	22
2.66000	21
2.66367	21
2.66733	21
2.67100	22
2.67467	22
2.67833	22
2.68200	23
2.68567	23
2.68933	23
2.69300	23
2.69667	24
2.70033	24
2.70400	23
2.70767	23
2.71133	23
2.71500	23
2.71867	22
2.72233	22
2.72600	22
2.72967	23
2.73333	23
2.73700	23
2.74067	24
2.74433	24
2.74800	24
2.75167	24
2.75533	25
2.75900	25
2.76267	25
2.76633	25
2.77000	26
2.77367	26
2.77733	26
2.78100	26
2.78467	27
2.78833	27
2.79200	27
2.79567	27
2.79933	27
2.80300	27
2.80667	27
2.81033	27
2.81400	27
2.81767	27
2.82133	27
2.82500	26
2.82867	26
2.83233	26
2.83600	26
2.83967	26
2.84333	25
2.84700	24
2.85067	21
2.85433	17
2.85800	10
2.86167	-0
2.86533	-14
2.86900	-32
2.87267	-54
2.87633	-82
2.88000	-115
2.88367	-153
2.88733	-196
2.89100	-244
2.89467	-297
2.89833	-354
2.90200	-415
2.90567	-480
2.90933	-548
2.91300	-619
2.91667	-693
2.92033	-769
2.92400	-848
2.92767	-929
2.93133	-1012
2.93500	-1096
2.93867	-1182
2.94233	-1270
2.94600	-1358
2.94967	-1442
2.95333	-1511
2.95700	-1551
2.96067	-1556
2.96433	-1526
2.96800	-1466
2.97167	-1381
2.97533	-1281
2.97900	-1171
2.98267	-1059
2.98633	-948
2.99000	-842
2.99367	-742
2.99733	-650
3.00100	-567
3.00467	-492
3.00833	-426
3.01200	-367
3.01567	-315
3.01933	-270
3.02300	-231
3.02667	-197
3.03033	-168
3.03400	-143
3.03767	-121
3.04133	-103
3.04500	-87
3.04867	-73
3.05233	-61
3.05600	-51
3.05967	-43
3.06333	-36
3.06700	-29
3.07067	-24
3.07433	-19
3.07800	-15
3.08167	-11
3.08533	-8
3.08900	-5
3.09267	-3
3.09633	-0
3.10000	1
3.10367	3
3.10733	4
3.11100	6
3.11467	7
3.11833	8
3.12200	8
3.12567	9
3.12933	10
3.13300	10
3.13667	11
3.14033	11
3.14400	12
3.14767	12
3.15133	12
3.15500	12
3.15867	13
3.16233	13
3.16600	14
3.16967	14
3.17333	15
3.17700	16
3.18067	16
3.18433	17
3.18800	18
3.19167	19
3.19533	19
3.19900	20
3.20267	21
3.20633	22
3.21000	22
3.21367	23
3.21733	23
3.22100	24
3.22467	24
3.22833	24
3.23200	25
3.23567	25
3.23933	25
3.24300	25
3.24667	25
3.25033	25
3.25400	25
3.25767	25
3.26133	26
3.26500	26
3.26867	26
3.27233	26
3.27600	26
3.27967	25
3.28333	25
3.28700	25
3.29067	25
3.29433	26
3.29800	26
3.30167	26
3.30533	26
3.30900	26
3.31267	26
3.31633	26
3.32000	26
3.32367	26
3.32733	26
3.33100	25
3.33467	25
3.33833	25
3.34200	25
3.34567	25
3.34933	25
3.35300	25
3.35667	26
3.36033	26
3.36400	26
3.36767	26
3.37133	26
3.37500	26
3.37867	26
3.38233	27
3.38600	27
3.38967	27
3.39333	27
3.39700	27
3.40067	27
3.40433	27
3.40800	26
3.41167	26
3.41533	26
3.41900	26
3.42267	26
3.42633	26
3.43000	26
3.43367	26
3.43733	26
3.44100	27
3.44467	27
3.44833	27
3.45200	27
3.45567	27
3.45933	26
3.46300	26
3.46667	26
3.47033	26
3.47400	26
3.47767	26
3.48133	26
3.48500	26
3.48867	26
3.49233	26
3.49600	26
3.49967	26
3.50333	26
3.50700	26
3.51067	26
3.51433	26
3.51800	26
3.52167	26
3.52533	26
3.52900	26
3.53267	26
3.53633	26
3.54000	26
3.54367	25
3.54733	25
3.55100	25
3.55467	25
3.55833	25
3.56200	25
3.56567	26
3.56933	26
3.57300	26
3.57667	26
3.58033	26
3.58400	27
3.58767	27
3.59133	27
3.59500	27
3.59867	28
3.60233	28
3.60600	28
3.60967	28
3.61333	28
3.61700	27
3.62067	27
3.62433	26
3.62800	26
3.63167	26
3.63533	26
3.63900	25
3.64267	25
3.64633	25
3.65000	25
3.65367	25
3.65733	25
3.66100	25
3.66467	26
3.66833	26
3.67200	26
3.67567	26
3.67933	27
3.68300	27
3.68667	27
3.69033	27
3.69400	27
3.69767	27
3.70133	27
3.70500	28
3.70867	28
3.71233	28
3.71600	28
3.71967	28
3.72333	29
3.72700	29
3.73067	29
3.73433	29
3.73800	29
3.74167	29
3.74533	28
3.74900	28
3.75267	28
3.75633	28
3.76000	28
3.76367	28
3.76733	28
3.77100	28
3.77467	27
3.77833	27
3.78200	27
3.78567	27
3.78933	27
3.79300	26
3.79667	26
3.80033	26
3.80400	26
3.80767	26
3.81133	26
3.81500	27
3.81867	27
3.82233	27
3.82600	27
3.82967	27
3.83333	27
3.83700	27
3.84067	27
3.84433	27
3.84800	27
3.85167	27
3.85533	28
3.85900	28
3.86267	28
3.86633	28
3.87000	28
3.87367	28
3.87733	28
3.88100	28
3.88467	27
3.88833	27
3.89200	28
3.89567	28
3.89933	27
3.90300	27
3.90667	27
3.91033	27
3.91400	27
3.91767	27
3.92133	27
3.92500	27
3.92867	28
3.93233	28
3.93600	28
3.93967	28
3.94333	28
3.94700	28
3.95067	28
3.95433	28
3.95800	28
3.96167	28
3.96533	29
3.96900	29
3.97267	29
3.97633	29
3.98000	28
3.98367	28
3.98733	28
3.99100	28
3.99467	28
3.99833	27

[Chromatogram (Ch3)]
Interval(msec)	220
# of Points	1091
Start Time(min)	0.002
End Time(min)	3.998
R.Time (min)	Intensity
0.00167	-0
0.00533	1
0.00900	2
0.01267	1
0.01633	2
0.02000	4
0.02367	6
0.02733	7
0.03100	6
0.03467	4
0.03833	1
0.04200	0
0.04567	-2
0.04933	-3
0.05300	-4
0.05667	-3
0.06033	-0
0.06400	2
0.06767	2
0.07133	1
0.07500	1
0.07867	1
0.08233	4
0.08600	4
0.08967	2
0.09333	0
0.09700	-0
0.10067	-0
0.10433	0
0.10800	2
0.11167	1
0.11533	-1
0.11900	-1
0.12267	-2
0.12633	-2
0.13000	-1
0.13367	1
0.13733	4
0.14100	3
0.14467	2
0.14833	2
0.15200	2
0.15567	3
0.15933	1
0.16300	-1
0.16667	-0
0.17033	1
0.17400	3
0.17767	2
0.18133	1
0.18500	3
0.18867	6
0.19233	6
0.19600	5
0.19967	5
0.20333	5
0.20700	7
0.21067	6
0.21433	4
0.21800	1
0.22167	-3
0.22533	-5
0.22900	-4
0.23267	-1
0.23633	-1
0.24000	0
0.24367	3
0.24733	6
0.25100	7
0.25467	6
0.25833	6
0.26200	7
0.26567	8
0.26933	9
0.27300	7
0.27667	6
0.28033	7
0.28400	6
0.28767	7
0.29133	8
0.29500	7
0.29867	8
0.30233	8
0.30600	8
0.30967	10
0.31333	11
0.31700	10
0.32067	9
0.32433	7
0.32800	7
0.33167	8
0.33533	9
0.33900	10
0.34267	9
0.34633	8
0.35000	9
0.35367	7
0.35733	5
0.36100	3
0.36467	2
0.36833	4
0.37200	5
0.37567	8
0.37933	10
0.38300	11
0.38667	11
0.39033	9
0.39400	9
0.39767	10
0.40133	9
0.40500	10
0.40867	11
0.41233	10
0.41600	10
0.41967	10
0.42333	9
0.42700	10
0.43067	11
0.43433	13
0.43800	15
0.44167	16
0.44533	18
0.44900	20
0.45267	21
0.45633	19
0.46000	18
0.46367	17
0.46733	16
0.47100	17
0.47467	17
0.47833	16
0.48200	18
0.48567	19
0.48933	18
0.49300	16
0.49667	14
0.50033	16
0.50400	18
0.50767	18
0.51133	19
0.51500	19
0.51867	18
0.52233	19
0.52600	23
0.52967	25
0.53333	25
0.53700	24
0.54067	22
0.54433	22
0.54800	22
0.55167	22
0.55533	24
0.55900	26
0.56267	27
0.56633	27
0.57000	26
0.57367	24
0.57733	23
0.58100	25
0.58467	25
0.58833	24
0.59200	24
0.59567	24
0.59933	26
0.60300	26
0.60667	26
0.61033	27
0.61400	28
0.61767	27
0.62133	24
0.62500	22
0.62867	23
0.63233	24
0.63600	23
0.63967	24
0.64333	27
0.64700	29
0.65067	29
0.65433	29
0.65800	30
0.66167	28
0.66533	25
0.66900	26
0.67267	27
0.67633	28
0.68000	27
0.68367	26
0.68733	27
0.69100	28
0.69467	28
0.69833	29
0.70200	31
0.70567	33
0.70933	33
0.71300	31
0.71667	31
0.72033	29
0.72400	30
0.72767	31
0.73133	31
0.73500	31
0.73867	31
0.74233	32
0.74600	33
0.74967	33
0.75333	33
0.75700	32
0.76067	32
0.76433	32
0.76800	33
0.77167	34
0.77533	34
0.77900	34
0.78267	35
0.78633	38
0.79000	40
0.79367	40
0.79733	40
0.80100	40
0.80467	41
0.80833	41
0.81200	41
0.81567	38
0.81933	34
0.82300	33
0.82667	34
0.83033	35
0.83400	37
0.83767	39
0.84133	40
0.84500	41
0.84867	42
0.85233	44
0.85600	46
0.85967	48
0.86333	48
0.86700	49
0.87067	50
0.87433	49
0.87800	48
0.88167	48
0.88533	47
0.88900	47
0.89267	46
0.89633	44
0.90000	42
0.90367	43
0.90733	45
0.91100	45
0.91467	47
0.91833	49
0.92200	49
0.92567	47
0.92933	47
0.93300	47
0.93667	48
0.94033	49
0.94400	50
0.94767	50
0.95133	52
0.95500	52
0.95867	53
0.96233	53
0.96600	52
0.96967	49
0.97333	47
0.97700	46
0.98067	46
0.98433	46
0.98800	45
0.99167	46
0.99533	47
0.99900	46
1.00267	46
1.00633	45
1.01000	46
1.01367	50
1.01733	56
1.02100	59
1.02467	60
1.02833	57
1.03200	54
1.03567	53
1.03933	53
1.04300	53
1.04667	53
1.05033	52
1.05400	51
1.05767	50
1.06133	52
1.06500	53
1.06867	54
1.07233	56
1.07600	57
1.07967	59
1.08333	62
1.08700	61
1.09067	58
1.09433	58
1.09800	57
1.10167	56
1.10533	54
1.10900	53
1.11267	53
1.11633	55
1.12000	56
1.12367	59
1.12733	60
1.13100	60
1.13467	59
1.13833	57
1.14200	60
1.14567	61
1.14933	62
1.15300	63
1.15667	63
1.16033	64
1.16400	67
1.16767	69
1.17133	69
1.17500	67
1.17867	64
1.18233	63
1.18600	63
1.18967	62
1.19333	61
1.19700	59
1.20067	60
1.20433	61
1.20800	63
1.21167	62
1.21533	61
1.21900	62
1.22267	63
1.22633	64
1.23000	65
1.23367	65
1.23733	64
1.24100	63
1.24467	62
1.24833	61
1.25200	61
1.25567	61
1.25933	61
1.26300	61
1.26667	60
1.27033	57
1.27400	57
1.27767	58
1.28133	61
1.28500	63
1.28867	65
1.29233	66
1.29600	67
1.29967	66
1.30333	66
1.30700	65
1.31067	65
1.31433	65
1.31800	66
1.32167	66
1.32533	66
1.32900	64
1.33267	62
1.33633	62
1.34000	64
1.34367	65
1.34733	65
1.35100	66
1.35467	67
1.35833	66
1.36200	63
1.36567	64
1.36933	67
1.37300	68
1.37667	69
1.38033	69
1.38400	70
1.38767	71
1.39133	71
1.39500	70
1.39867	66
1.40233	64
1.40600	67
1.40967	70
1.41333	72
1.41700	72
1.42067	70
1.42433	70
1.42800	69
1.43167	68
1.43533	67
1.43900	65
1.44267	63
1.44633	61
1.45000	60
1.45367	61
1.45733	65
1.46100	67
1.46467	70
1.46833	71
1.47200	71
1.47567	71
1.47933	71
1.48300	73
1.48667	74
1.49033	72
1.49400	70
1.49767	67
1.50133	67
1.50500	70
1.50867	70
1.51233	71
1.51600	72
1.51967	72
1.52333	71
1.52700	71
1.53067	71
1.53433	72
1.53800	72
1.54167	71
1.54533	71
1.54900	70
1.55267	69
1.55633	71
1.56000	71
1.56367	70
1.56733	71
1.57100	71
1.57467	72
1.57833	73
1.58200	73
1.58567	70
1.58933	69
1.59300	70
1.59667	72
1.60033	71
1.60400	70
1.60767	70
1.61133	71
1.61500	70
1.61867	70
1.62233	72
1.62600	73
1.62967	75
1.63333	77
1.63700	80
1.64067	81
1.64433	81
1.64800	81
1.65167	79
1.65533	80
1.65900	82
1.66267	82
1.66633	82
1.67000	82
1.67367	81
1.67733	82
1.68100	83
1.68467	84
1.68833	84
1.69200	85
1.69567	86
1.69933	86
1.70300	87
1.70667	87
1.71033	89
1.71400	91
1.71767	92
1.72133	90
1.72500	87
1.72867	86
1.73233	87
1.73600	88
1.73967	91
1.74333	92
1.74700	92
1.75067	93
1.75433	97
1.75800	98
1.76167	99
1.76533	98
1.76900	98
1.77267	98
1.77633	98
1.78000	99
1.78367	99
1.78733	98
1.79100	99
1.79467	99
1.79833	97
1.80200	96
1.80567	96
1.80933	98
1.81300	99
1.81667	100
1.82033	100
1.82400	102
1.82767	106
1.83133	108
1.83500	110
1.83867	111
1.84233	111
1.84600	112
1.84967	113
1.85333	114
1.85700	114
1.86067	115
1.86433	115
1.86800	113
1.87167	111
1.87533	110
1.87900	112
1.88267	114
1.88633	116
1.89000	116
1.89367	115
1.89733	116
1.90100	118
1.90467	119
1.90833	119
1.91200	121
1.91567	125
1.91933	127
1.92300	127
1.92667	126
1.93033	126
1.93400	129
1.93767	132
1.94133	132
1.94500	128
1.94867	128
1.95233	128
1.95600	129
1.95967	129
1.96333	129
1.96700	131
1.97067	133
1.97433	134
1.97800	134
1.98167	134
1.98533	136
1.98900	138
1.99267	139
1.99633	139
2.00000	140
2.00367	142
2.00733	142
2.01100	142
2.01467	143
2.01833	144
2.02200	146
2.02567	148
2.02933	151
2.03300	154
2.03667	155
2.04033	155
2.04400	154
2.04767	155
2.05133	157
2.05500	159
2.05867	159
2.06233	157
2.06600	157
2.06967	156
2.07333	160
2.07700	163
2.08067	165
2.08433	166
2.08800	167
2.09167	169
2.09533	169
2.09900	168
2.10267	168
2.10633	169
2.11000	172
2.11367	173
2.11733	174
2.12100	175
2.12467	176
2.12833	177
2.13200	178
2.13567	178
2.13933	181
2.14300	184
2.14667	186
2.15033	185
2.15400	185
2.15767	184
2.16133	185
2.16500	185
2.16867	186
2.17233	187
2.17600	188
2.17967	187
2.18333	186
2.18700	186
2.19067	186
2.19433	188
2.19800	191
2.20167	192
2.20533	193
2.20900	193
2.21267	195
2.21633	195
2.22000	195
2.22367	195
2.22733	196
2.23100	197
2.23467	196
2.23833	194
2.24200	195
2.24567	196
2.24933	197
2.25300	198
2.25667	197
2.26033	198
2.26400	201
2.26767	204
2.27133	207
2.27500	206
2.27867	206
2.28233	204
2.28600	205
2.28967	208
2.29333	209
2.29700	209
2.30067	209
2.30433	209
2.30800	210
2.31167	210
2.31533	211
2.31900	211
2.32267	208
2.32633	206
2.33000	207
2.33367	209
2.33733	211
2.34100	212
2.34467	214
2.34833	216
2.35200	218
2.35567	219
2.35933	219
2.36300	219
2.36667	221
2.37033	224
2.37400	224
2.37767	223
2.38133	222
2.38500	222
2.38867	219
2.39233	218
2.39600	219
2.39967	220
2.40333	220
2.40700	220
2.41067	219
2.41433	220
2.41800	223
2.42167	227
2.42533	231
2.42900	232
2.43267	234
2.43633	232
2.44000	232
2.44367	240
2.44733	264
2.45100	293
2.45467	314
2.45833	322
2.46200	316
2.46567	307
2.46933	299
2.47300	293
2.47667	286
2.48033	280
2.48400	271
2.48767	262
2.49133	254
2.49500	248
2.49867	246
2.50233	244
2.50600	242
2.50967	239
2.51333	236
2.51700	234
2.52067	233
2.52433	232
2.52800	229
2.53167	226
2.53533	220
2.53900	215
2.54267	210
2.54633	203
2.55000	198
2.55367	195
2.55733	191
2.56100	187
2.56467	183
2.56833	181
2.57200	179
2.57567	178
2.57933	177
2.58300	175
2.58667	173
2.59033	172
2.59400	171
2.59767	166
2.60133	157
2.60500	141
2.60867	115
2.61233	81
2.61600	41
2.61967	1
2.62333	-40
2.62700	-79
2.63067	-116
2.63433	-146
2.63800	-170
2.64167	-188
2.64533	-200
2.64900	-207
2.65267	-210
2.65633	-209
2.66000	-205
2.66367	-200
2.66733	-191
2.67100	-182
2.67467	-174
2.67833	-165
2.68200	-155
2.68567	-144
2.68933	-133
2.69300	-122
2.69667	-111
2.70033	-103
2.70400	-95
2.70767	-86
2.71133	-76
2.71500	-65
2.71867	-56
2.72233	-46
2.72600	-37
2.72967	-28
2.73333	-20
2.73700	-12
2.74067	-5
2.74433	1
2.74800	5
2.75167	7
2.75533	8
2.75900	11
2.76267	18
2.76633	26
2.77000	32
2.77367	35
2.77733	35
2.78100	36
2.78467	39
2.78833	42
2.79200	47
2.79567	51
2.79933	53
2.80300	55
2.80667	57
2.81033	59
2.81400	62
2.81767	67
2.82133	79
2.82500	110
2.82867	182
2.83233	335
2.83600	626
2.83967	1125
2.84333	1895
2.84700	2980
2.85067	4381
2.85433	6061
2.85800	7934
2.86167	9877
2.86533	11758
2.86900	13434
2.87267	14776
2.87633	15695
2.88000	16160
2.88367	16185
2.88733	15823
2.89100	15149
2.89467	14246
2.89833	13204
2.90200	12094
2.90567	10971
2.90933	9874
2.91300	8826
2.91667	7848
2.92033	6949
2.92400	6131
2.92767	5396
2.93133	4738
2.93500	4154
2.93867	3636
2.94233	3180
2.94600	2776
2.94967	2422
2.95333	2112
2.95700	1842
2.96067	1604
2.96433	1400
2.96800	1223
2.97167	1070
2.97533	937
2.97900	823
2.98267	723
2.98633	637
2.99000	565
2.99367	502
2.99733	446
3.00100	397
3.00467	355
3.00833	319
3.01200	287
3.01567	261
3.01933	241
3.02300	222
3.02667	205
3.03033	190
3.03400	178
3.03767	168
3.04133	160
3.04500	150
3.04867	143
3.05233	138
3.05600	132
3.05967	127
3.06333	123
3.06700	121
3.07067	121
3.07433	119
3.07800	114
3.08167	108
3.08533	106
3.08900	104
3.09267	103
3.09633	102
3.10000	102
3.10367	102
3.10733	101
3.11100	99
3.11467	98
3.11833	98
3.12200	100
3.12567	102
3.12933	103
3.13300	102
3.13667	100
3.14033	100
3.14400	100
3.14767	99
3.15133	97
3.15500	94
3.15867	93
3.16233	91
3.16600	89
3.16967	89
3.17333	89
3.17700	89
3.18067	87
3.18433	88
3.18800	88
3.19167	89
3.19533	90
3.19900	90
3.20267	90
3.20633	90
3.21000	91
3.21367	92
3.21733	92
3.22100	93
3.22467	93
3.22833	94
3.23200	96
3.23567	96
3.23933	97
3.24300	95
3.24667	91
3.25033	90
3.25400	90
3.25767	90
3.26133	90
3.26500	89
3.26867	88
3.27233	88
3.27600	88
3.27967	84
3.28333	82
3.28700	83
3.29067	85
3.29433	86
3.29800	87
3.30167	87
3.30533	87
3.30900	87
3.31267	88
3.31633	89
3.32000	84
3.32367	48
3.32733	6
3.33100	-17
3.33467	-18
3.33833	-3
3.34200	22
3.34567	51
3.34933	82
3.35300	111
3.35667	137
3.36033	163
3.36400	186
3.36767	211
3.37133	234
3.37500	255
3.37867	276
3.38233	299
3.38600	325
3.38967	352
3.39333	378
3.39700	406
3.40067	431
3.40433	455
3.40800	475
3.41167	494
3.41533	514
3.41900	532
3.42267	547
3.42633	562
3.43000	573
3.43367	582
3.43733	590
3.44100	596
3.44467	600
3.44833	602
3.45200	605
3.45567	609
3.45933	613
3.46300	615
3.46667	615
3.47033	615
3.47400	618
3.47767	619
3.48133	622
3.48500	622
3.48867	620
3.49233	619
3.49600	620
3.49967	620
3.50333	620
3.50700	621
3.51067	621
3.51433	619
3.51800	615
3.52167	613
3.52533	613
3.52900	612
3.53267	612
3.53633	613
3.54000	613
3.54367	613
3.54733	610
3.55100	611
3.55467	612
3.55833	612
3.56200	612
3.56567	611
3.56933	610
3.57300	610
3.57667	611
3.58033	612
3.58400	612
3.58767	612
3.59133	613
3.59500	610
3.59867	607
3.60233	607
3.60600	608
3.60967	608
3.61333	607
3.61700	606
3.62067	605
3.62433	604
3.62800	604
3.63167	603
3.63533	601
3.63900	598
3.64267	599
3.64633	600
3.65000	601
3.65367	602
3.65733	602
3.66100	601
3.66467	600
3.66833	598
3.67200	596
3.67567	594
3.67933	594
3.68300	592
3.68667	590
3.69033	588
3.69400	587
3.69767	586
3.70133	582
3.70500	580
3.70867	580
3.71233	581
3.71600	582
3.71967	583
3.72333	585
3.72700	585
3.73067	583
3.73433	581
3.73800	578
3.74167	575
3.74533	573
3.74900	574
3.75267	574
3.75633	574
3.76000	573
3.76367	572
3.76733	570
3.77100	566
3.77467	565
3.77833	566
3.78200	568
3.78567	568
3.78933	564
3.79300	561
3.79667	559
3.80033	557
3.80400	553
3.80767	551
3.81133	549
3.81500	548
3.81867	549
3.82233	550
3.82600	551
3.82967	550
3.83333	546
3.83700	543
3.84067	541
3.84433	540
3.84800	537
3.85167	533
3.85533	531
3.85900	530
3.86267	529
3.86633	528
3.87000	526
3.87367	524
3.87733	522
3.88100	522
3.88467	521
3.88833	520
3.89200	520
3.89567	520
3.89933	520
3.90300	517
3.90667	513
3.91033	508
3.91400	506
3.91767	507
3.92133	507
3.92500	509
3.92867	509
3.93233	508
3.93600	506
3.93967	502
3.94333	498
3.94700	496
3.95067	496
3.95433	495
3.95800	493
3.96167	490
3.96533	489
3.96900	488
3.97267	485
3.97633	483
3.98000	481
3.98367	477
3.98733	474
3.99100	475
3.99467	476
3.99833	474

[Status Trace (Column Oven Temperature)]
Interval(msec)	1000
# of Points	240
Start Time(min)	0.006
End Time(min)	3.989
Intensity Units	
Intensity Multiplier	1
R.Time (min)	Intensity
0.00590	35.03
0.02257	35.04
0.03923	35.04
0.05590	35.05
0.07257	35.03
0.08923	35.03
0.10590	35.02
0.12257	35.01
0.13923	35.00
0.15590	34.99
0.17257	35.00
0.18923	35.01
0.20590	35.02
0.22257	35.03
0.23923	35.03
0.25590	35.03
0.27257	35.00
0.28923	34.99
0.30590	34.98
0.32257	34.98
0.33923	34.97
0.35590	34.99
0.37257	34.98
0.38923	34.99
0.40590	34.98
0.42257	34.97
0.43923	34.97
0.45590	34.96
0.47257	34.96
0.48923	34.96
0.50590	34.96
0.52257	34.98
0.53923	34.97
0.55590	34.99
0.57257	35.00
0.58923	34.99
0.60590	34.99
0.62257	34.99
0.63923	34.98
0.65590	34.97
0.67257	34.97
0.68923	34.98
0.70590	34.99
0.72257	34.99
0.73923	34.97
0.75590	34.98
0.77257	34.98
0.78923	34.99
0.80590	34.98
0.82257	34.98
0.83923	34.98
0.85590	34.98
0.87257	34.99
0.88923	34.99
0.90590	34.98
0.92257	34.99
0.93923	35.02
0.95590	35.03
0.97257	35.04
0.98923	35.05
1.00590	35.06
1.02257	35.06
1.03923	35.05
1.05590	35.03
1.07257	35.00
1.08923	34.99
1.10590	34.99
1.12257	34.98
1.13923	34.98
1.15590	34.99
1.17257	34.98
1.18923	34.98
1.20590	34.97
1.22257	34.97
1.23923	34.98
1.25590	34.99
1.27257	34.99
1.28923	34.98
1.30590	34.97
1.32257	34.98
1.33923	34.97
1.35590	34.96
1.37257	34.96
1.38923	34.97
1.40590	34.97
1.42257	34.99
1.43923	34.99
1.45590	34.99
1.47257	35.00
1.48923	35.00
1.50590	34.99
1.52257	34.99
1.53923	34.97
1.55590	34.97
1.57257	34.97
1.58923	34.97
1.60590	35.01
1.62257	35.14
1.63923	35.33
1.65590	35.57
1.67257	35.90
1.68923	36.26
1.70590	36.60
1.72257	36.95
1.73923	37.30
1.75590	37.62
1.77257	37.95
1.78923	38.29
1.80590	38.62
1.82257	38.97
1.83923	39.30
1.85590	39.58
1.87257	39.91
1.88923	40.24
1.90590	40.57
1.92257	40.89
1.93923	41.23
1.95590	41.55
1.97257	41.88
1.98923	42.21
2.00590	42.53
2.02257	42.85
2.03923	43.18
2.05590	43.48
2.07257	43.83
2.08923	44.17
2.10590	44.48
2.12257	44.82
2.13923	45.15
2.15590	45.47
2.17257	45.81
2.18923	46.11
2.20590	46.46
2.22257	46.77
2.23923	47.10
2.25590	47.42
2.27257	47.79
2.28923	48.11
2.30590	48.43
2.32257	48.77
2.33923	49.06
2.35590	49.40
2.37257	49.62
2.38923	49.70
2.40590	49.69
2.42257	49.70
2.43923	49.69
2.45590	49.74
2.47257	49.75
2.48923	49.78
2.50590	49.78
2.52257	49.81
2.53923	49.84
2.55590	49.82
2.57257	49.82
2.58923	49.83
2.60590	49.84
2.62257	49.84
2.63923	49.84
2.65590	49.85
2.67257	49.85
2.68923	49.84
2.70590	49.86
2.72257	49.86
2.73923	49.86
2.75590	49.86
2.77257	49.86
2.78923	49.86
2.80590	49.85
2.82257	49.86
2.83923	49.89
2.85590	49.90
2.87257	49.91
2.88923	49.93
2.90590	49.94
2.92257	49.97
2.93923	49.98
2.95590	50.00
2.97257	50.02
2.98923	50.04
3.00590	50.04
3.02257	50.05
3.03923	50.06
3.05590	50.07
3.07257	50.08
3.08923	50.08
3.10590	50.08
3.12257	50.10
3.13923	50.10
3.15590	50.11
3.17257	50.11
3.18923	50.10
3.20590	50.08
3.22257	50.08
3.23923	50.07
3.25590	50.06
3.27257	50.05
3.28923	50.04
3.30590	50.04
3.32257	50.05
3.33923	50.04
3.35590	50.04
3.37257	50.04
3.38923	50.04
3.40590	50.05
3.42257	50.05
3.43923	50.06
3.45590	50.06
3.47257	50.06
3.48923	50.06
3.50590	50.06
3.52257	50.06
3.53923	50.07
3.55590	50.08
3.57257	50.07
3.58923	50.07
3.60590	50.07
3.62257	50.08
3.63923	50.09
3.65590	50.10
3.67257	50.10
3.68923	50.09
3.70590	50.08
3.72257	50.08
3.73923	50.07
3.75590	50.07
3.77257	50.08
3.78923	50.08
3.80590	50.09
3.82257	50.09
3.83923	50.07
3.85590	50.07
3.87257	50.07
3.88923	50.07
3.90590	50.07
3.92257	50.06
3.93923	50.06
3.95590	50.05
3.97257	50.05
3.98923	50.05

[Status Trace (Injection Unit Temperature)]
Interval(msec)	1000
# of Points	240
Start Time(min)	0.006
End Time(min)	3.989
Intensity Units	
Intensity Multiplier	1
R.Time (min)	Intensity
0.00590	99.98
0.02257	99.98
0.03923	99.98
0.05590	99.97
0.07257	99.98
0.08923	99.98
0.10590	99.98
0.12257	99.98
0.13923	99.98
0.15590	99.98
0.17257	99.98
0.18923	99.98
0.20590	99.98
0.22257	99.98
0.23923	99.98
0.25590	99.98
0.27257	99.98
0.28923	99.98
0.30590	99.98
0.32257	99.98
0.33923	99.97
0.35590	99.98
0.37257	99.98
0.38923	99.98
0.40590	99.98
0.42257	99.98
0.43923	99.98
0.45590	99.98
0.47257	99.98
0.48923	99.98
0.50590	99.98
0.52257	99.97
0.53923	99.98
0.55590	99.98
0.57257	99.97
0.58923	99.98
0.60590	99.98
0.62257	99.98
0.63923	99.98
0.65590	99.98
0.67257	99.98
0.68923	99.97
0.70590	99.98
0.72257	99.98
0.73923	99.98
0.75590	99.98
0.77257	99.98
0.78923	99.98
0.80590	99.98
0.82257	99.98
0.83923	99.98
0.85590	99.98
0.87257	99.98
0.88923	99.98
0.90590	99.98
0.92257	99.98
0.93923	99.98
0.95590	99.98
0.97257	99.98
0.98923	99.98
1.00590	99.98
1.02257	99.98
1.03923	99.98
1.05590	99.98
1.07257	99.98
1.08923	99.98
1.10590	99.98
1.12257	99.99
1.13923	99.98
1.15590	99.98
1.17257	99.98
1.18923	99.98
1.20590	99.98
1.22257	99.99
1.23923	99.98
1.25590	99.99
1.27257	99.98
1.28923	99.98
1.30590	99.99
1.32257	99.99
1.33923	99.99
1.35590	99.99
1.37257	99.98
1.38923	99.99
1.40590	99.99
1.42257	99.99
1.43923	99.99
1.45590	99.99
1.47257	99.99
1.48923	99.99
1.50590	99.99
1.52257	99.99
1.53923	99.99
1.55590	99.99
1.57257	99.98
1.58923	99.99
1.60590	99.99
1.62257	99.99
1.63923	99.99
1.65590	99.99
1.67257	99.99
1.68923	99.98
1.70590	99.98
1.72257	99.98
1.73923	99.99
1.75590	99.99
1.77257	99.99
1.78923	99.98
1.80590	99.98
1.82257	99.98
1.83923	99.99
1.85590	99.98
1.87257	99.98
1.88923	99.98
1.90590	99.98
1.92257	99.97
1.93923	99.98
1.95590	99.98
1.97257	99.98
1.98923	99.98
2.00590	99.97
2.02257	99.98
2.03923	99.98
2.05590	99.98
2.07257	99.97
2.08923	99.97
2.10590	99.98
2.12257	99.97
2.13923	99.98
2.15590	99.97
2.17257	99.97
2.18923	99.97
2.20590	99.97
2.22257	99.98
2.23923	99.97
2.25590	99.97
2.27257	99.97
2.28923	99.97
2.30590	99.97
2.32257	99.98
2.33923	99.97
2.35590	99.97
2.37257	99.97
2.38923	99.97
2.40590	99.97
2.42257	99.97
2.43923	99.97
2.45590	99.97
2.47257	99.97
2.48923	99.97
2.50590	99.97
2.52257	99.98
2.53923	99.97
2.55590	99.97
2.57257	99.97
2.58923	99.98
2.60590	99.97
2.62257	99.98
2.63923	99.98
2.65590	99.98
2.67257	99.98
2.68923	99.98
2.70590	99.98
2.72257	99.98
2.73923	99.99
2.75590	99.99
2.77257	99.99
2.78923	99.98
2.80590	99.99
2.82257	99.99
2.83923	100.00
2.85590	99.99
2.87257	100.00
2.88923	100.00
2.90590	100.00
2.92257	100.00
2.93923	100.00
2.95590	100.00
2.97257	100.01
2.98923	100.01
3.00590	100.01
3.02257	100.01
3.03923	100.01
3.05590	100.01
3.07257	100.01
3.08923	100.02
3.10590	100.02
3.12257	100.02
3.13923	100.01
3.15590	100.02
3.17257	100.02
3.18923	100.02
3.20590	100.02
3.22257	100.03
3.23923	100.02
3.25590	100.03
3.27257	100.02
3.28923	100.03
3.30590	100.03
3.32257	100.02
3.33923	100.03
3.35590	100.03
3.37257	100.03
3.38923	100.03
3.40590	100.03
3.42257	100.03
3.43923	100.04
3.45590	100.04
3.47257	100.03
3.48923	100.04
3.50590	100.04
3.52257	100.04
3.53923	100.04
3.55590	100.04
3.57257	100.04
3.58923	100.04
3.60590	100.04
3.62257	100.04
3.63923	100.04
3.65590	100.04
3.67257	100.04
3.68923	100.05
3.70590	100.04
3.72257	100.04
3.73923	100.04
3.75590	100.04
3.77257	100.04
3.78923	100.04
3.80590	100.04
3.82257	100.04
3.83923	100.04
3.85590	100.05
3.87257	100.04
3.88923	100.05
3.90590	100.04
3.92257	100.05
3.93923	100.04
3.95590	100.04
3.97257	100.05
3.98923	100.05

[Status Trace (Carrier Gas Pressure)]
Interval(msec)	1000
# of Points	240
Start Time(min)	0.006
End Time(min)	3.989
Intensity Units	
Intensity Multiplier	1
R.Time (min)	Intensity
0.00590	58.00
0.02257	55.74
0.03923	56.78
0.05590	58.98
0.07257	59.72
0.08923	58.15
0.10590	57.98
0.12257	58.01
0.13923	58.01
0.15590	58.01
0.17257	58.00
0.18923	58.00
0.20590	58.00
0.22257	58.00
0.23923	58.00
0.25590	58.00
0.27257	58.00
0.28923	58.00
0.30590	58.00
0.32257	58.00
0.33923	58.00
0.35590	58.00
0.37257	58.00
0.38923	58.00
0.40590	58.00
0.42257	58.00
0.43923	58.00
0.45590	58.00
0.47257	58.00
0.48923	58.00
0.50590	58.00
0.52257	58.00
0.53923	58.00
0.55590	58.00
0.57257	58.00
0.58923	58.00
0.60590	58.00
0.62257	58.00
0.63923	58.00
0.65590	58.00
0.67257	58.00
0.68923	58.00
0.70590	58.00
0.72257	58.00
0.73923	58.00
0.75590	58.00
0.77257	58.00
0.78923	58.00
0.80590	58.00
0.82257	58.00
0.83923	58.00
0.85590	58.00
0.87257	58.00
0.88923	58.00
0.90590	58.00
0.92257	58.00
0.93923	58.00
0.95590	58.00
0.97257	58.00
0.98923	58.00
1.00590	58.00
1.02257	58.00
1.03923	58.00
1.05590	58.00
1.07257	58.00
1.08923	58.00
1.10590	58.00
1.12257	58.00
1.13923	58.00
1.15590	58.00
1.17257	58.00
1.18923	58.00
1.20590	58.00
1.22257	58.00
1.23923	58.00
1.25590	58.00
1.27257	58.00
1.28923	58.00
1.30590	58.00
1.32257	58.00
1.33923	58.00
1.35590	58.00
1.37257	58.00
1.38923	58.00
1.40590	58.00
1.42257	58.00
1.43923	58.00
1.45590	58.00
1.47257	58.00
1.48923	58.00
1.50590	58.00
1.52257	58.00
1.53923	58.00
1.55590	58.00
1.57257	58.00
1.58923	58.00
1.60590	58.00
1.62257	58.00
1.63923	58.01
1.65590	58.00
1.67257	58.01
1.68923	58.00
1.70590	58.00
1.72257	58.00
1.73923	58.00
1.75590	58.00
1.77257	58.00
1.78923	58.00
1.80590	58.00
1.82257	58.00
1.83923	58.00
1.85590	58.00
1.87257	58.00
1.88923	58.00
1.90590	58.00
1.92257	58.00
1.93923	58.00
1.95590	58.00
1.97257	58.00
1.98923	58.00
2.00590	58.00
2.02257	58.00
2.03923	58.00
2.05590	58.00
2.07257	58.00
2.08923	58.00
2.10590	58.00
2.12257	58.00
2.13923	58.00
2.15590	58.00
2.17257	58.00
2.18923	58.00
2.20590	58.00
2.22257	58.00
2.23923	58.00
2.25590	58.00
2.27257	58.00
2.28923	58.00
2.30590	58.00
2.32257	58.00
2.33923	58.00
2.35590	58.00
2.37257	58.00
2.38923	57.99
2.40590	57.99
2.42257	58.00
2.43923	58.00
2.45590	58.00
2.47257	58.00
2.48923	58.00
2.50590	57.99
2.52257	57.99
2.53923	58.00
2.55590	58.00
2.57257	58.00
2.58923	58.00
2.60590	58.00
2.62257	58.00
2.63923	58.00
2.65590	58.00
2.67257	58.00
2.68923	58.00
2.70590	58.00
2.72257	58.00
2.73923	58.00
2.75590	58.00
2.77257	58.00
2.78923	58.00
2.80590	58.00
2.82257	58.00
2.83923	58.00
2.85590	58.00
2.87257	58.00
2.88923	58.00
2.90590	58.00
2.92257	58.00
2.93923	58.00
2.95590	58.00
2.97257	58.00
2.98923	58.00
3.00590	58.00
3.02257	58.00
3.03923	58.00
3.05590	58.00
3.07257	58.00
3.08923	58.00
3.10590	58.00
3.12257	58.00
3.13923	58.00
3.15590	58.00
3.17257	58.00
3.18923	58.00
3.20590	58.00
3.22257	58.00
3.23923	58.00
3.25590	58.00
3.27257	58.00
3.28923	58.00
3.30590	58.00
3.32257	58.00
3.33923	58.00
3.35590	58.00
3.37257	58.00
3.38923	58.00
3.40590	58.00
3.42257	58.00
3.43923	58.00
3.45590	58.00
3.47257	58.00
3.48923	58.00
3.50590	58.00
3.52257	58.00
3.53923	58.00
3.55590	58.00
3.57257	58.00
3.58923	58.00
3.60590	58.00
3.62257	58.00
3.63923	58.00
3.65590	58.00
3.67257	58.00
3.68923	58.00
3.70590	58.00
3.72257	58.00
3.73923	58.00
3.75590	58.00
3.77257	58.00
3.78923	58.00
3.80590	58.00
3.82257	58.00
3.83923	58.00
3.85590	58.00
3.87257	58.00
3.88923	58.00
3.90590	58.00
3.92257	58.00
3.93923	58.00
3.95590	58.00
3.97257	58.00
3.98923	58.00

[Status Trace (Carrier Gas Flow)]
Interval(msec)	1000
# of Points	240
Start Time(min)	0.006
End Time(min)	3.989
Intensity Units	
Intensity Multiplier	1
R.Time (min)	Intensity
0.00590	34.52
0.02257	34.55
0.03923	34.55
0.05590	34.55
0.07257	34.49
0.08923	34.52
0.10590	34.52
0.12257	34.52
0.13923	34.52
0.15590	34.52
0.17257	34.52
0.18923	34.52
0.20590	34.52
0.22257	34.52
0.23923	34.52
0.25590	34.52
0.27257	34.52
0.28923	34.52
0.30590	34.52
0.32257	34.52
0.33923	34.52
0.35590	34.52
0.37257	34.52
0.38923	34.52
0.40590	34.52
0.42257	34.52
0.43923	34.52
0.45590	34.52
0.47257	34.52
0.48923	34.52
0.50590	34.52
0.52257	34.52
0.53923	34.52
0.55590	34.52
0.57257	34.52
0.58923	34.52
0.60590	34.52
0.62257	34.52
0.63923	34.52
0.65590	34.52
0.67257	34.52
0.68923	34.52
0.70590	34.52
0.72257	34.52
0.73923	34.52
0.75590	34.52
0.77257	34.52
0.78923	34.52
0.80590	34.52
0.82257	34.52
0.83923	34.52
0.85590	34.52
0.87257	34.52
0.88923	34.52
0.90590	34.52
0.92257	34.52
0.93923	34.52
0.95590	34.52
0.97257	34.52
0.98923	34.52
1.00590	34.52
1.02257	34.52
1.03923	34.52
1.05590	34.52
1.07257	34.52
1.08923	34.52
1.10590	34.52
1.12257	34.52
1.13923	34.52
1.15590	34.52
1.17257	34.52
1.18923	34.52
1.20590	34.52
1.22257	34.52
1.23923	34.52
1.25590	34.52
1.27257	34.52
1.28923	34.52
1.30590	34.52
1.32257	34.52
1.33923	34.52
1.35590	34.52
1.37257	34.52
1.38923	34.52
1.40590	34.52
1.42257	34.52
1.43923	34.52
1.45590	34.52
1.47257	34.52
1.48923	34.52
1.50590	34.52
1.52257	34.52
1.53923	34.52
1.55590	34.52
1.57257	34.52
1.58923	34.52
1.60590	34.52
1.62257	34.52
1.63923	34.52
1.65590	34.52
1.67257	34.52
1.68923	34.52
1.70590	34.52
1.72257	34.52
1.73923	34.52
1.75590	34.52
1.77257	34.52
1.78923	34.52
1.80590	34.52
1.82257	34.52
1.83923	34.52
1.85590	34.52
1.87257	34.52
1.88923	34.52
1.90590	34.51
1.92257	34.52
1.93923	34.52
1.95590	34.52
1.97257	34.52
1.98923	34.52
2.00590	34.52
2.02257	34.52
2.03923	34.52
2.05590	34.52
2.07257	34.52
2.08923	34.52
2.10590	34.52
2.12257	34.52
2.13923	34.52
2.15590	34.52
2.17257	34.52
2.18923	34.52
2.20590	34.52
2.22257	34.52
2.23923	34.52
2.25590	34.52
2.27257	34.52
2.28923	34.52
2.30590	34.52
2.32257	34.52
2.33923	34.52
2.35590	34.52
2.37257	34.52
2.38923	34.52
2.40590	34.52
2.42257	34.52
2.43923	34.52
2.45590	34.52
2.47257	34.52
2.48923	34.52
2.50590	34.50
2.52257	34.52
2.53923	34.52
2.55590	34.52
2.57257	34.52
2.58923	34.52
2.60590	34.52
2.62257	34.52
2.63923	34.52
2.65590	34.52
2.67257	34.52
2.68923	34.52
2.70590	34.52
2.72257	34.52
2.73923	34.52
2.75590	34.52
2.77257	34.52
2.78923	34.52
2.80590	34.52
2.82257	34.52
2.83923	34.52
2.85590	34.52
2.87257	34.52
2.88923	34.52
2.90590	34.51
2.92257	34.52
2.93923	34.52
2.95590	34.52
2.97257	34.52
2.98923	34.53
3.00590	34.52
3.02257	34.51
3.03923	34.53
3.05590	34.52
3.07257	34.51
3.08923	34.51
3.10590	34.52
3.12257	34.52
3.13923	34.53
3.15590	34.53
3.17257	34.51
3.18923	34.52
3.20590	34.53
3.22257	34.52
3.23923	34.52
3.25590	34.51
3.27257	34.51
3.28923	34.53
3.30590	34.51
3.32257	34.50
3.33923	34.53
3.35590	34.52
3.37257	34.52
3.38923	34.51
3.40590	34.52
3.42257	34.52
3.43923	34.52
3.45590	34.52
3.47257	34.52
3.48923	34.52
3.50590	34.52
3.52257	34.52
3.53923	34.52
3.55590	34.52
3.57257	34.52
3.58923	34.52
3.60590	34.51
3.62257	34.52
3.63923	34.52
3.65590	34.52
3.67257	34.52
3.68923	34.51
3.70590	34.52
3.72257	34.52
3.73923	34.52
3.75590	34.52
3.77257	34.52
3.78923	34.52
3.80590	34.52
3.82257	34.52
3.83923	34.52
3.85590	34.52
3.87257	34.52
3.88923	34.52
3.90590	34.52
3.92257	34.52
3.93923	34.52
3.95590	34.52
3.97257	34.52
3.98923	34.52

[Status Trace (Column Flow)]
Interval(msec)	1000
# of Points	240
Start Time(min)	0.006
End Time(min)	3.989
Intensity Units	
Intensity Multiplier	1
R.Time (min)	Intensity
0.00590	5.56
0.02257	5.29
0.03923	5.41
0.05590	5.67
0.07257	5.76
0.08923	5.57
0.10590	5.55
0.12257	5.56
0.13923	5.56
0.15590	5.56
0.17257	5.56
0.18923	5.56
0.20590	5.56
0.22257	5.56
0.23923	5.56
0.25590	5.56
0.27257	5.56
0.28923	5.56
0.30590	5.56
0.32257	5.56
0.33923	5.56
0.35590	5.56
0.37257	5.56
0.38923	5.56
0.40590	5.56
0.42257	5.56
0.43923	5.56
0.45590	5.56
0.47257	5.56
0.48923	5.56
0.50590	5.56
0.52257	5.56
0.53923	5.56
0.55590	5.56
0.57257	5.56
0.58923	5.56
0.60590	5.56
0.62257	5.56
0.63923	5.56
0.65590	5.56
0.67257	5.56
0.68923	5.56
0.70590	5.56
0.72257	5.56
0.73923	5.56
0.75590	5.56
0.77257	5.56
0.78923	5.56
0.80590	5.56
0.82257	5.56
0.83923	5.56
0.85590	5.56
0.87257	5.56
0.88923	5.56
0.90590	5.56
0.92257	5.56
0.93923	5.56
0.95590	5.56
0.97257	5.56
0.98923	5.56
1.00590	5.56
1.02257	5.56
1.03923	5.56
1.05590	5.56
1.07257	5.56
1.08923	5.56
1.10590	5.56
1.12257	5.56
1.13923	5.56
1.15590	5.56
1.17257	5.56
1.18923	5.56
1.20590	5.56
1.22257	5.56
1.23923	5.56
1.25590	5.56
1.27257	5.56
1.28923	5.56
1.30590	5.56
1.32257	5.56
1.33923	5.56
1.35590	5.56
1.37257	5.56
1.38923	5.56
1.40590	5.56
1.42257	5.56
1.43923	5.56
1.45590	5.56
1.47257	5.56
1.48923	5.56
1.50590	5.56
1.52257	5.56
1.53923	5.56
1.55590	5.56
1.57257	5.56
1.58923	5.56
1.60590	5.56
1.62257	5.55
1.63923	5.55
1.65590	5.54
1.67257	5.53
1.68923	5.52
1.70590	5.51
1.72257	5.50
1.73923	5.49
1.75590	5.48
1.77257	5.47
1.78923	5.46
1.80590	5.45
1.82257	5.44
1.83923	5.42
1.85590	5.42
1.87257	5.41
1.88923	5.40
1.90590	5.39
1.92257	5.38
1.93923	5.37
1.95590	5.36
1.97257	5.35
1.98923	5.34
2.00590	5.33
2.02257	5.32
2.03923	5.31
2.05590	5.30
2.07257	5.29
2.08923	5.28
2.10590	5.27
2.12257	5.26
2.13923	5.25
2.15590	5.24
2.17257	5.23
2.18923	5.22
2.20590	5.21
2.22257	5.20
2.23923	5.19
2.25590	5.18
2.27257	5.17
2.28923	5.17
2.30590	5.16
2.32257	5.15
2.33923	5.14
2.35590	5.13
2.37257	5.12
2.38923	5.12
2.40590	5.12
2.42257	5.12
2.43923	5.12
2.45590	5.12
2.47257	5.12
2.48923	5.12
2.50590	5.12
2.52257	5.12
2.53923	5.12
2.55590	5.12
2.57257	5.12
2.58923	5.12
2.60590	5.12
2.62257	5.12
2.63923	5.12
2.65590	5.12
2.67257	5.12
2.68923	5.12
2.70590	5.12
2.72257	5.12
2.73923	5.12
2.75590	5.12
2.77257	5.12
2.78923	5.12
2.80590	5.12
2.82257	5.12
2.83923	5.12
2.85590	5.12
2.87257	5.11
2.88923	5.11
2.90590	5.11
2.92257	5.11
2.93923	5.11
2.95590	5.11
2.97257	5.11
2.98923	5.11
3.00590	5.11
3.02257	5.11
3.03923	5.11
3.05590	5.11
3.07257	5.11
3.08923	5.11
3.10590	5.11
3.12257	5.11
3.13923	5.11
3.15590	5.11
3.17257	5.11
3.18923	5.11
3.20590	5.11
3.22257	5.11
3.23923	5.11
3.25590	5.11
3.27257	5.11
3.28923	5.11
3.30590	5.11
3.32257	5.11
3.33923	5.11
3.35590	5.11
3.37257	5.11
3.38923	5.11
3.40590	5.11
3.42257	5.11
3.43923	5.11
3.45590	5.11
3.47257	5.11
3.48923	5.11
3.50590	5.11
3.52257	5.11
3.53923	5.11
3.55590	5.11
3.57257	5.11
3.58923	5.11
3.60590	5.11
3.62257	5.11
3.63923	5.11
3.65590	5.11
3.67257	5.11
3.68923	5.11
3.70590	5.11
3.72257	5.11
3.73923	5.11
3.75590	5.11
3.77257	5.11
3.78923	5.11
3.80590	5.11
3.82257	5.11
3.83923	5.11
3.85590	5.11
3.87257	5.11
3.88923	5.11
3.90590	5.11
3.92257	5.11
3.93923	5.11
3.95590	5.11
3.97257	5.11
3.98923	5.11

[Status Trace (Linear Velocity)]
Interval(msec)	1000
# of Points	240
Start Time(min)	0.006
End Time(min)	3.989
Intensity Units	
Intensity Multiplier	1
R.Time (min)	Intensity
0.00590	39.02
0.02257	37.54
0.03923	38.22
0.05590	39.67
0.07257	40.15
0.08923	39.12
0.10590	39.01
0.12257	39.03
0.13923	39.03
0.15590	39.03
0.17257	39.03
0.18923	39.03
0.20590	39.03
0.22257	39.02
0.23923	39.02
0.25590	39.02
0.27257	39.03
0.28923	39.03
0.30590	39.03
0.32257	39.03
0.33923	39.03
0.35590	39.03
0.37257	39.03
0.38923	39.03
0.40590	39.03
0.42257	39.03
0.43923	39.03
0.45590	39.03
0.47257	39.03
0.48923	39.03
0.50590	39.03
0.52257	39.03
0.53923	39.03
0.55590	39.03
0.57257	39.03
0.58923	39.03
0.60590	39.03
0.62257	39.03
0.63923	39.03
0.65590	39.03
0.67257	39.03
0.68923	39.03
0.70590	39.03
0.72257	39.03
0.73923	39.03
0.75590	39.03
0.77257	39.03
0.78923	39.03
0.80590	39.03
0.82257	39.03
0.83923	39.03
0.85590	39.03
0.87257	39.03
0.88923	39.03
0.90590	39.03
0.92257	39.03
0.93923	39.02
0.95590	39.02
0.97257	39.02
0.98923	39.02
1.00590	39.02
1.02257	39.02
1.03923	39.02
1.05590	39.02
1.07257	39.02
1.08923	39.03
1.10590	39.03
1.12257	39.03
1.13923	39.03
1.15590	39.03
1.17257	39.03
1.18923	39.03
1.20590	39.03
1.22257	39.03
1.23923	39.03
1.25590	39.03
1.27257	39.03
1.28923	39.03
1.30590	39.03
1.32257	39.03
1.33923	39.03
1.35590	39.03
1.37257	39.03
1.38923	39.03
1.40590	39.03
1.42257	39.03
1.43923	39.03
1.45590	39.03
1.47257	39.03
1.48923	39.02
1.50590	39.03
1.52257	39.03
1.53923	39.03
1.55590	39.03
1.57257	39.03
1.58923	39.03
1.60590	39.03
1.62257	39.01
1.63923	39.00
1.65590	38.97
1.67257	38.94
1.68923	38.91
1.70590	38.87
1.72257	38.84
1.73923	38.81
1.75590	38.77
1.77257	38.74
1.78923	38.71
1.80590	38.68
1.82257	38.65
1.83923	38.62
1.85590	38.59
1.87257	38.56
1.88923	38.53
1.90590	38.50
1.92257	38.47
1.93923	38.44
1.95590	38.41
1.97257	38.37
1.98923	38.35
2.00590	38.32
2.02257	38.29
2.03923	38.26
2.05590	38.23
2.07257	38.20
2.08923	38.17
2.10590	38.13
2.12257	38.11
2.13923	38.08
2.15590	38.05
2.17257	38.02
2.18923	37.99
2.20590	37.96
2.22257	37.93
2.23923	37.90
2.25590	37.87
2.27257	37.84
2.28923	37.81
2.30590	37.78
2.32257	37.75
2.33923	37.72
2.35590	37.69
2.37257	37.67
2.38923	37.66
2.40590	37.66
2.42257	37.67
2.43923	37.67
2.45590	37.66
2.47257	37.66
2.48923	37.66
2.50590	37.66
2.52257	37.65
2.53923	37.65
2.55590	37.66
2.57257	37.66
2.58923	37.66
2.60590	37.66
2.62257	37.65
2.63923	37.65
2.65590	37.65
2.67257	37.65
2.68923	37.65
2.70590	37.65
2.72257	37.65
2.73923	37.65
2.75590	37.65
2.77257	37.65
2.78923	37.65
2.80590	37.65
2.82257	37.65
2.83923	37.65
2.85590	37.65
2.87257	37.65
2.88923	37.65
2.90590	37.65
2.92257	37.64
2.93923	37.64
2.95590	37.64
2.97257	37.64
2.98923	37.64
3.00590	37.64
3.02257	37.64
3.03923	37.64
3.05590	37.63
3.07257	37.63
3.08923	37.63
3.10590	37.63
3.12257	37.63
3.13923	37.63
3.15590	37.63
3.17257	37.63
3.18923	37.63
3.20590	37.63
3.22257	37.63
3.23923	37.64
3.25590	37.64
3.27257	37.64
3.28923	37.64
3.30590	37.64
3.32257	37.64
3.33923	37.64
3.35590	37.64
3.37257	37.64
3.38923	37.64
3.40590	37.64
3.42257	37.64
3.43923	37.64
3.45590	37.64
3.47257	37.64
3.48923	37.64
3.50590	37.64
3.52257	37.64
3.53923	37.63
3.55590	37.63
3.57257	37.63
3.58923	37.63
3.60590	37.63
3.62257	37.63
3.63923	37.63
3.65590	37.63
3.67257	37.63
3.68923	37.63
3.70590	37.63
3.72257	37.63
3.73923	37.63
3.75590	37.63
3.77257	37.63
3.78923	37.63
3.80590	37.63
3.82257	37.63
3.83923	37.63
3.85590	37.63
3.87257	37.64
3.88923	37.63
3.90590	37.63
3.92257	37.64
3.93923	37.64
3.95590	37.64
3.97257	37.64
3.98923	37.64

