[Header]
Application Name	LabSolutions
Version	5.110
Data File Name	C:\Users\User\Desktop\Junior\UIC Prairie Sampling\2023\8.18.23\081823b_004.gcd
Output Date	8/31/2023
Output Time	12:48:13 PM

[File Information]
Type	Data File
Generated	8/31/2023 11:09:17 AM
Generated by	System Administrator
Modified	8/31/2023 11:15:33 AM
Modified by	System Administrator

[Sample Information]
Operator Name	System Administrator
Acquired	8/31/2023 11:11:32 AM
Sample Type	0:Unknown
Level	0
Sample Name	090
Sample ID	090
ISTD Amount1	1
ISTD Amount2	1
ISTD Amount3	1
ISTD Amount4	1
ISTD Amount5	1
ISTD Amount6	1
ISTD Amount7	1
ISTD Amount8	1
ISTD Amount9	1
ISTD Amount10	1
ISTD Amount11	1
ISTD Amount12	1
ISTD Amount13	1
ISTD Amount14	1
ISTD Amount15	1
ISTD Amount16	1
ISTD Amount17	1
ISTD Amount18	1
ISTD Amount19	1
ISTD Amount20	1
ISTD Amount21	1
ISTD Amount22	1
ISTD Amount23	1
ISTD Amount24	1
ISTD Amount25	1
ISTD Amount26	1
ISTD Amount27	1
ISTD Amount28	1
ISTD Amount29	1
ISTD Amount30	1
ISTD Amount31	1
ISTD Amount32	1
Sample Amount	1
Dilution Factor	1
Vial#	89
Injection Volume	1
Injection Count	1
Bar Code	

[Original Files]
Data File	C:\Users\User\Desktop\Junior\UIC Prairie Sampling\8.18.23\081823b_004.gcd
Method File	C:\LabSolutions\Data\GHG_4min_2022\ghg3_togas_w_acet_4 min_new_int.gcm
Batch File	C:\LabSolutions\Data\BATCH FILES\081823b.gcb
Report Format File	c:\LabSolutions\System\DEFAULT.lsr

[File Description]


[Configuration]
Instrument Name	C0B7VH3-Instrument1
Instrument #	1
Line #	1
# of Detectors	3
Detector ID	DET#1	DET#2	DET#3
Detector Name	FID	PTCD	ECD
# of Channels	1	1	1

[Peak Table(Ch1)]
# of Peaks	3
Peak#	R.Time	I.Time	F.Time	Area	Height	A/H	Conc.	Mark	ID#	Name	k'	Plate #	Plate Ht.	Tailing	Resolution	Sep.Factor	Area Ratio	Height Ratio	Conc. %	Norm Conc.
1	1.476	1.454	1.516	817	425	1.923	0.000	   	1	CO	0.000	10831	13.849	0.000	0.000	0.000	0	0	0.000	0.000
2	1.564	1.516	1.652	19736	9881	1.997	96.216	 V 	2	CH4	0.060	11431	13.122	1.141	1.528	0.000	0	0	18.783	18.783
3	1.989	1.941	2.623	2158823	1025470	2.105	416.045	   	3	CO2	0.348	17104	8.770	1.280	7.128	5.833	0	0	81.217	81.217

[Peak Table(Ch2)]
# of Peaks	1
Peak#	R.Time	I.Time	F.Time	Area	Height	A/H	Conc.	Mark	ID#	Name	k'	Plate #	Plate Ht.	Tailing	Resolution	Sep.Factor	Area Ratio	Height Ratio	Conc. %	Norm Conc.
1	2.961	2.913	3.093	2491	673	3.701	0.000	   	1	Hydrogen	0.000	14930	10.047	1.913	0.000	0.000	0	0	0.000	0.000

[Peak Table(Ch3)]
# of Peaks	6
Peak#	R.Time	I.Time	F.Time	Area	Height	A/H	Conc.	Mark	ID#	Name	k'	Plate #	Plate Ht.	Tailing	Resolution	Sep.Factor	Area Ratio	Height Ratio	Conc. %	Norm Conc.
1	2.458	2.334	2.502	937	337	2.781	0.000	   			0.000	13166	11.393	0.000	0.000	0.000	0	0	0.000	0.000
2	2.517	2.502	2.565	405	158	2.559	0.000	 V 			0.024	3728	40.231	0.000	0.468	0.000	0	0	0.000	0.000
3	2.612	2.565	2.689	525	136	3.861	0.000	 V 			0.063	8302	18.068	0.000	0.682	2.625	0	0	0.000	0.000
4	2.891	2.730	3.063	48908	12830	3.812	0.724	   	1	N2O	0.176	13070	11.476	1.506	2.582	2.810	0	0	100.000	100.000
5	3.305	3.195	3.430	169	18	9.169	0.000	   			0.345	867	172.982	1.074	1.506	1.958	0	0	0.000	0.000
6	3.665	3.584	3.980	6626	537	12.343	0.000	   			0.491	1429	104.974	2.478	0.859	1.424	0	0	0.000	0.000

[Compound Results(Ch1)]
# of IDs	6
ID#	Name	R.Time	Area	Height	Conc.	Curve	3rd	2nd	1st	Constant	Area Ratio	Height Ratio	Conc. %	Norm Conc.
1	CO	1.476	817	425	0.000	Linear	0.000000e+00	0.000000e+00	0.000000e+00	0.000000e+00	0	0	0.000	0.000
2	CH4	1.564	19736	9881	96.216	Linear	0.000000e+00	0.000000e+00	2.051179e+002	0.000000e+00	0	0	18.783	18.783
3	CO2	1.989	2158823	1025470	416.045	Linear	0.000000e+00	0.000000e+00	5.188919e+003	0.000000e+00	0	0	81.217	81.217
4	Ethylene	0.000	0	0	0.000	Linear	0.000000e+00	0.000000e+00	0.000000e+00	0.000000e+00	0	0	0.000	0.000
5	Acetylene	0.000	0	0	0.000	Linear	0.000000e+00	0.000000e+00	0.000000e+00	0.000000e+00	0	0	0.000	0.000
6	Ethane	0.000	0	0	0.000	Linear	0.000000e+00	0.000000e+00	0.000000e+00	0.000000e+00	0	0	0.000	0.000

[Compound Results(Ch2)]
# of IDs	5
ID#	Name	R.Time	Area	Height	Conc.	Curve	3rd	2nd	1st	Constant	Area Ratio	Height Ratio	Conc. %	Norm Conc.
1	Hydrogen	2.961	2491	673	0.000	Linear	0.000000e+00	0.000000e+00	0.000000e+00	0.000000e+00	0	0	0.000	0.000
2	Oxygen	0.000	0	0	0.000	Linear	0.000000e+00	0.000000e+00	0.000000e+00	0.000000e+00	0	0	0.000	0.000
3	Nitrogen	0.000	0	0	0.000	Linear	0.000000e+00	0.000000e+00	0.000000e+00	0.000000e+00	0	0	0.000	0.000
4	Methane	0.000	0	0	0.000	Linear	0.000000e+00	0.000000e+00	0.000000e+00	0.000000e+00	0	0	0.000	0.000
5	Carbon Monoxide	0.000	0	0	0.000	Linear	0.000000e+00	0.000000e+00	0.000000e+00	0.000000e+00	0	0	0.000	0.000

[Compound Results(Ch3)]
# of IDs	2
ID#	Name	R.Time	Area	Height	Conc.	Curve	3rd	2nd	1st	Constant	Area Ratio	Height Ratio	Conc. %	Norm Conc.
1	N2O	2.891	48908	12830	0.724	Linear	0.000000e+00	0.000000e+00	6.759880e+004	0.000000e+00	0	0	100.000	100.000
2	SF6	0.000	0	0	0.000	Linear	0.000000e+00	0.000000e+00	0.000000e+00	0.000000e+00	0	0	0.000	0.000

[Group Results(Ch1)]
# of Groups	0

[Group Results(Ch2)]
# of Groups	0

[Group Results(Ch3)]
# of Groups	0

[Chromatogram (Ch1)]
Interval(msec)	220
# of Points	1091
Start Time(min)	0.002
End Time(min)	3.998
R.Time (min)	Intensity
0.00167	-11
0.00533	-9
0.00900	-9
0.01267	-9
0.01633	-8
0.02000	-12
0.02367	-20
0.02733	-31
0.03100	-39
0.03467	-42
0.03833	-41
0.04200	-39
0.04567	-38
0.04933	-36
0.05300	-30
0.05667	-25
0.06033	-23
0.06400	-23
0.06767	-23
0.07133	-18
0.07500	-10
0.07867	-5
0.08233	-1
0.08600	-4
0.08967	-9
0.09333	-16
0.09700	-23
0.10067	-30
0.10433	-33
0.10800	-33
0.11167	-32
0.11533	-30
0.11900	-27
0.12267	-23
0.12633	-17
0.13000	-12
0.13367	-10
0.13733	-8
0.14100	-5
0.14467	-5
0.14833	-8
0.15200	-12
0.15567	-16
0.15933	-19
0.16300	-19
0.16667	-19
0.17033	-22
0.17400	-25
0.17767	-28
0.18133	-29
0.18500	-28
0.18867	-27
0.19233	-27
0.19600	-28
0.19967	-27
0.20333	-22
0.20700	-16
0.21067	-11
0.21433	-8
0.21800	-8
0.22167	-15
0.22533	-25
0.22900	-33
0.23267	-37
0.23633	-41
0.24000	-43
0.24367	-44
0.24733	-42
0.25100	-34
0.25467	-27
0.25833	-24
0.26200	-25
0.26567	-26
0.26933	-27
0.27300	-24
0.27667	-18
0.28033	-13
0.28400	-12
0.28767	-15
0.29133	-16
0.29500	-16
0.29867	-14
0.30233	-15
0.30600	-17
0.30967	-20
0.31333	-22
0.31700	-24
0.32067	-29
0.32433	-35
0.32800	-43
0.33167	-48
0.33533	-47
0.33900	-40
0.34267	-29
0.34633	-18
0.35000	-11
0.35367	-9
0.35733	-9
0.36100	-8
0.36467	-3
0.36833	2
0.37200	4
0.37567	1
0.37933	-3
0.38300	-5
0.38667	-6
0.39033	-4
0.39400	0
0.39767	5
0.40133	4
0.40500	-0
0.40867	-8
0.41233	-15
0.41600	-22
0.41967	-28
0.42333	-32
0.42700	-33
0.43067	-29
0.43433	-22
0.43800	-17
0.44167	-11
0.44533	-8
0.44900	-9
0.45267	-13
0.45633	-20
0.46000	-26
0.46367	-30
0.46733	-29
0.47100	-21
0.47467	-11
0.47833	-1
0.48200	6
0.48567	8
0.48933	7
0.49300	3
0.49667	-0
0.50033	-4
0.50400	-11
0.50767	-20
0.51133	-27
0.51500	-28
0.51867	-25
0.52233	-24
0.52600	-25
0.52967	-24
0.53333	-21
0.53700	-18
0.54067	-19
0.54433	-24
0.54800	-28
0.55167	-28
0.55533	-27
0.55900	-29
0.56267	-32
0.56633	-31
0.57000	-30
0.57367	-25
0.57733	-20
0.58100	-17
0.58467	-19
0.58833	-26
0.59200	-33
0.59567	-39
0.59933	-44
0.60300	-46
0.60667	-43
0.61033	-36
0.61400	-31
0.61767	-25
0.62133	-18
0.62500	-8
0.62867	-0
0.63233	5
0.63600	6
0.63967	1
0.64333	-5
0.64700	-13
0.65067	-19
0.65433	-23
0.65800	-24
0.66167	-25
0.66533	-27
0.66900	-31
0.67267	-35
0.67633	-41
0.68000	-43
0.68367	-39
0.68733	-33
0.69100	-27
0.69467	-22
0.69833	-19
0.70200	-14
0.70567	-7
0.70933	0
0.71300	4
0.71667	6
0.72033	6
0.72400	6
0.72767	7
0.73133	6
0.73500	2
0.73867	-6
0.74233	-14
0.74600	-20
0.74967	-23
0.75333	-26
0.75700	-29
0.76067	-32
0.76433	-34
0.76800	-35
0.77167	-35
0.77533	-34
0.77900	-30
0.78267	-25
0.78633	-20
0.79000	-19
0.79367	-23
0.79733	-30
0.80100	-38
0.80467	-39
0.80833	-33
0.81200	-26
0.81567	-21
0.81933	-18
0.82300	-20
0.82667	-22
0.83033	-21
0.83400	-20
0.83767	-23
0.84133	-25
0.84500	-25
0.84867	-23
0.85233	-16
0.85600	-8
0.85967	-3
0.86333	-7
0.86700	-13
0.87067	-21
0.87433	-31
0.87800	-38
0.88167	-38
0.88533	-34
0.88900	-31
0.89267	-28
0.89633	-26
0.90000	-26
0.90367	-29
0.90733	-35
0.91100	-40
0.91467	-45
0.91833	-48
0.92200	-49
0.92567	-50
0.92933	-53
0.93300	-55
0.93667	-56
0.94033	-52
0.94400	-46
0.94767	-40
0.95133	-36
0.95500	-32
0.95867	-27
0.96233	-23
0.96600	-23
0.96967	-24
0.97333	-25
0.97700	-24
0.98067	-23
0.98433	-21
0.98800	-20
0.99167	-23
0.99533	-26
0.99900	-27
1.00267	-32
1.00633	-36
1.01000	-38
1.01367	-38
1.01733	-36
1.02100	-36
1.02467	-39
1.02833	-42
1.03200	-39
1.03567	-33
1.03933	-25
1.04300	-17
1.04667	-14
1.05033	-15
1.05400	-16
1.05767	-15
1.06133	-16
1.06500	-18
1.06867	-23
1.07233	-29
1.07600	-33
1.07967	-35
1.08333	-35
1.08700	-32
1.09067	-30
1.09433	-32
1.09800	-36
1.10167	-42
1.10533	-45
1.10900	-43
1.11267	-37
1.11633	-32
1.12000	-28
1.12367	-29
1.12733	-33
1.13100	-35
1.13467	-35
1.13833	-34
1.14200	-33
1.14567	-32
1.14933	-34
1.15300	-35
1.15667	-32
1.16033	-30
1.16400	-31
1.16767	-34
1.17133	-37
1.17500	-38
1.17867	-38
1.18233	-41
1.18600	-45
1.18967	-47
1.19333	-42
1.19700	-34
1.20067	-27
1.20433	-21
1.20800	-15
1.21167	-12
1.21533	-14
1.21900	-19
1.22267	-23
1.22633	-24
1.23000	-24
1.23367	-25
1.23733	-23
1.24100	-22
1.24467	-22
1.24833	-23
1.25200	-26
1.25567	-28
1.25933	-26
1.26300	-22
1.26667	-20
1.27033	-18
1.27400	-19
1.27767	-20
1.28133	-20
1.28500	-23
1.28867	-28
1.29233	-37
1.29600	-48
1.29967	-54
1.30333	-52
1.30700	-45
1.31067	-37
1.31433	-29
1.31800	-25
1.32167	-25
1.32533	-28
1.32900	-31
1.33267	-35
1.33633	-37
1.34000	-36
1.34367	-32
1.34733	-25
1.35100	-16
1.35467	-7
1.35833	1
1.36200	8
1.36567	10
1.36933	9
1.37300	6
1.37667	1
1.38033	-4
1.38400	-13
1.38767	-24
1.39133	-32
1.39500	-35
1.39867	-36
1.40233	-38
1.40600	-40
1.40967	-38
1.41333	-30
1.41700	-21
1.42067	-19
1.42433	-22
1.42800	-29
1.43167	-36
1.43533	-34
1.43900	-28
1.44267	-51
1.44633	-91
1.45000	-106
1.45367	-75
1.45733	-13
1.46100	65
1.46467	151
1.46833	239
1.47200	314
1.47567	354
1.47933	351
1.48300	312
1.48667	254
1.49033	193
1.49400	137
1.49767	93
1.50133	59
1.50500	37
1.50867	23
1.51233	11
1.51600	2
1.51967	-1
1.52333	-2
1.52700	0
1.53067	44
1.53433	267
1.53800	945
1.54167	2281
1.54533	4124
1.54900	6068
1.55267	7760
1.55633	9025
1.56000	9757
1.56367	9827
1.56733	9155
1.57100	7857
1.57467	6247
1.57833	4662
1.58200	3315
1.58567	2279
1.58933	1530
1.59300	1011
1.59667	661
1.60033	432
1.60400	284
1.60767	186
1.61133	120
1.61500	74
1.61867	43
1.62233	23
1.62600	11
1.62967	0
1.63333	-8
1.63700	-14
1.64067	-20
1.64433	-26
1.64800	-32
1.65167	-37
1.65533	-38
1.65900	-37
1.66267	-34
1.66633	-34
1.67000	-36
1.67367	-39
1.67733	-41
1.68100	-43
1.68467	-44
1.68833	-44
1.69200	-42
1.69567	-40
1.69933	-40
1.70300	-40
1.70667	-37
1.71033	-37
1.71400	-40
1.71767	-42
1.72133	-41
1.72500	-38
1.72867	-37
1.73233	-38
1.73600	-41
1.73967	-45
1.74333	-46
1.74700	-44
1.75067	-42
1.75433	-40
1.75800	-40
1.76167	-40
1.76533	-40
1.76900	-37
1.77267	-34
1.77633	-34
1.78000	-39
1.78367	-43
1.78733	-44
1.79100	-42
1.79467	-41
1.79833	-44
1.80200	-50
1.80567	-55
1.80933	-58
1.81300	-60
1.81667	-60
1.82033	-58
1.82400	-57
1.82767	-56
1.83133	-53
1.83500	-52
1.83867	-53
1.84233	-52
1.84600	-47
1.84967	-40
1.85333	-36
1.85700	-34
1.86067	-34
1.86433	-34
1.86800	-35
1.87167	-34
1.87533	-34
1.87900	-34
1.88267	-36
1.88633	-40
1.89000	-43
1.89367	-47
1.89733	-50
1.90100	-51
1.90467	-47
1.90833	-43
1.91200	-41
1.91567	-41
1.91933	-41
1.92300	-40
1.92667	-39
1.93033	-37
1.93400	-32
1.93767	-27
1.94133	-25
1.94500	-6
1.94867	164
1.95233	1230
1.95600	6218
1.95967	23610
1.96333	69809
1.96700	164298
1.97067	314674
1.97433	504878
1.97800	700997
1.98167	868171
1.98533	981248
1.98900	1025479
1.99267	997074
1.99633	905225
2.00000	770356
2.00367	618329
2.00733	472202
2.01100	346782
2.01467	247718
2.01833	174055
2.02200	121556
2.02567	85191
2.02933	60433
2.03300	43719
2.03667	32444
2.04033	24791
2.04400	19535
2.04767	15863
2.05133	13242
2.05500	11325
2.05867	9886
2.06233	8775
2.06600	7897
2.06967	7189
2.07333	6607
2.07700	6114
2.08067	5690
2.08433	5323
2.08800	5003
2.09167	4724
2.09533	4474
2.09900	4246
2.10267	4038
2.10633	3847
2.11000	3670
2.11367	3507
2.11733	3357
2.12100	3216
2.12467	3085
2.12833	2966
2.13200	2859
2.13567	2764
2.13933	2671
2.14300	2578
2.14667	2484
2.15033	2396
2.15400	2316
2.15767	2245
2.16133	2179
2.16500	2115
2.16867	2053
2.17233	1997
2.17600	1945
2.17967	1894
2.18333	1843
2.18700	1793
2.19067	1747
2.19433	1705
2.19800	1667
2.20167	1629
2.20533	1588
2.20900	1545
2.21267	1502
2.21633	1461
2.22000	1423
2.22367	1395
2.22733	1372
2.23100	1349
2.23467	1322
2.23833	1298
2.24200	1275
2.24567	1251
2.24933	1226
2.25300	1200
2.25667	1175
2.26033	1152
2.26400	1131
2.26767	1111
2.27133	1093
2.27500	1079
2.27867	1067
2.28233	1053
2.28600	1034
2.28967	1015
2.29333	995
2.29700	978
2.30067	961
2.30433	945
2.30800	930
2.31167	915
2.31533	900
2.31900	887
2.32267	873
2.32633	858
2.33000	841
2.33367	820
2.33733	800
2.34100	788
2.34467	783
2.34833	783
2.35200	781
2.35567	776
2.35933	770
2.36300	761
2.36667	753
2.37033	750
2.37400	749
2.37767	745
2.38133	739
2.38500	731
2.38867	718
2.39233	703
2.39600	690
2.39967	676
2.40333	663
2.40700	656
2.41067	654
2.41433	653
2.41800	651
2.42167	648
2.42533	648
2.42900	644
2.43267	634
2.43633	623
2.44000	610
2.44367	602
2.44733	600
2.45100	596
2.45467	592
2.45833	593
2.46200	597
2.46567	597
2.46933	592
2.47300	584
2.47667	577
2.48033	570
2.48400	561
2.48767	553
2.49133	547
2.49500	544
2.49867	541
2.50233	539
2.50600	534
2.50967	531
2.51333	525
2.51700	521
2.52067	518
2.52433	516
2.52800	514
2.53167	513
2.53533	507
2.53900	500
2.54267	495
2.54633	490
2.55000	485
2.55367	483
2.55733	484
2.56100	489
2.56467	495
2.56833	498
2.57200	497
2.57567	496
2.57933	495
2.58300	496
2.58667	497
2.59033	496
2.59400	494
2.59767	490
2.60133	484
2.60500	479
2.60867	477
2.61233	477
2.61600	476
2.61967	476
2.62333	475
2.62700	471
2.63067	467
2.63433	465
2.63800	463
2.64167	465
2.64533	472
2.64900	478
2.65267	481
2.65633	483
2.66000	486
2.66367	488
2.66733	487
2.67100	484
2.67467	481
2.67833	478
2.68200	477
2.68567	477
2.68933	474
2.69300	468
2.69667	461
2.70033	456
2.70400	454
2.70767	455
2.71133	455
2.71500	455
2.71867	456
2.72233	454
2.72600	451
2.72967	448
2.73333	446
2.73700	445
2.74067	445
2.74433	446
2.74800	448
2.75167	451
2.75533	453
2.75900	452
2.76267	448
2.76633	449
2.77000	456
2.77367	465
2.77733	473
2.78100	477
2.78467	475
2.78833	471
2.79200	467
2.79567	457
2.79933	448
2.80300	443
2.80667	444
2.81033	451
2.81400	457
2.81767	456
2.82133	451
2.82500	448
2.82867	448
2.83233	449
2.83600	453
2.83967	458
2.84333	462
2.84700	461
2.85067	459
2.85433	456
2.85800	452
2.86167	452
2.86533	451
2.86900	450
2.87267	449
2.87633	448
2.88000	445
2.88367	443
2.88733	442
2.89100	443
2.89467	445
2.89833	445
2.90200	447
2.90567	454
2.90933	460
2.91300	467
2.91667	475
2.92033	478
2.92400	478
2.92767	475
2.93133	471
2.93500	468
2.93867	468
2.94233	469
2.94600	473
2.94967	477
2.95333	480
2.95700	479
2.96067	475
2.96433	473
2.96800	473
2.97167	472
2.97533	475
2.97900	479
2.98267	481
2.98633	480
2.99000	477
2.99367	474
2.99733	473
3.00100	471
3.00467	470
3.00833	468
3.01200	468
3.01567	469
3.01933	472
3.02300	475
3.02667	476
3.03033	478
3.03400	478
3.03767	478
3.04133	474
3.04500	469
3.04867	463
3.05233	457
3.05600	453
3.05967	454
3.06333	459
3.06700	462
3.07067	458
3.07433	453
3.07800	452
3.08167	454
3.08533	457
3.08900	462
3.09267	468
3.09633	471
3.10000	472
3.10367	472
3.10733	471
3.11100	470
3.11467	470
3.11833	471
3.12200	470
3.12567	469
3.12933	468
3.13300	466
3.13667	462
3.14033	456
3.14400	452
3.14767	452
3.15133	456
3.15500	460
3.15867	462
3.16233	462
3.16600	462
3.16967	460
3.17333	458
3.17700	460
3.18067	463
3.18433	464
3.18800	463
3.19167	463
3.19533	464
3.19900	467
3.20267	468
3.20633	468
3.21000	469
3.21367	466
3.21733	463
3.22100	462
3.22467	461
3.22833	457
3.23200	452
3.23567	449
3.23933	450
3.24300	452
3.24667	453
3.25033	451
3.25400	452
3.25767	454
3.26133	458
3.26500	461
3.26867	461
3.27233	460
3.27600	456
3.27967	453
3.28333	450
3.28700	446
3.29067	442
3.29433	441
3.29800	444
3.30167	448
3.30533	451
3.30900	451
3.31267	449
3.31633	452
3.32000	457
3.32367	461
3.32733	459
3.33100	455
3.33467	454
3.33833	455
3.34200	456
3.34567	454
3.34933	451
3.35300	451
3.35667	449
3.36033	445
3.36400	442
3.36767	439
3.37133	435
3.37500	432
3.37867	430
3.38233	430
3.38600	433
3.38967	438
3.39333	439
3.39700	434
3.40067	432
3.40433	433
3.40800	436
3.41167	435
3.41533	429
3.41900	425
3.42267	424
3.42633	426
3.43000	430
3.43367	432
3.43733	434
3.44100	438
3.44467	442
3.44833	443
3.45200	441
3.45567	441
3.45933	445
3.46300	450
3.46667	455
3.47033	460
3.47400	460
3.47767	457
3.48133	452
3.48500	448
3.48867	450
3.49233	451
3.49600	447
3.49967	441
3.50333	435
3.50700	432
3.51067	429
3.51433	425
3.51800	421
3.52167	415
3.52533	410
3.52900	407
3.53267	406
3.53633	409
3.54000	420
3.54367	432
3.54733	442
3.55100	447
3.55467	445
3.55833	440
3.56200	433
3.56567	428
3.56933	426
3.57300	424
3.57667	422
3.58033	419
3.58400	416
3.58767	413
3.59133	409
3.59500	404
3.59867	401
3.60233	401
3.60600	404
3.60967	407
3.61333	408
3.61700	411
3.62067	414
3.62433	413
3.62800	409
3.63167	403
3.63533	398
3.63900	395
3.64267	395
3.64633	394
3.65000	390
3.65367	388
3.65733	388
3.66100	390
3.66467	391
3.66833	395
3.67200	401
3.67567	405
3.67933	404
3.68300	401
3.68667	399
3.69033	396
3.69400	396
3.69767	399
3.70133	401
3.70500	401
3.70867	401
3.71233	400
3.71600	400
3.71967	402
3.72333	406
3.72700	406
3.73067	403
3.73433	398
3.73800	397
3.74167	404
3.74533	409
3.74900	410
3.75267	406
3.75633	400
3.76000	394
3.76367	389
3.76733	381
3.77100	371
3.77467	360
3.77833	350
3.78200	345
3.78567	346
3.78933	355
3.79300	367
3.79667	379
3.80033	389
3.80400	394
3.80767	393
3.81133	390
3.81500	385
3.81867	377
3.82233	369
3.82600	364
3.82967	362
3.83333	362
3.83700	364
3.84067	367
3.84433	367
3.84800	365
3.85167	360
3.85533	357
3.85900	358
3.86267	363
3.86633	370
3.87000	376
3.87367	378
3.87733	376
3.88100	375
3.88467	379
3.88833	384
3.89200	387
3.89567	389
3.89933	390
3.90300	390
3.90667	386
3.91033	380
3.91400	375
3.91767	371
3.92133	369
3.92500	367
3.92867	367
3.93233	368
3.93600	368
3.93967	366
3.94333	363
3.94700	360
3.95067	355
3.95433	352
3.95800	352
3.96167	352
3.96533	349
3.96900	347
3.97267	346
3.97633	345
3.98000	345
3.98367	344
3.98733	342
3.99100	337
3.99467	334
3.99833	330

[Chromatogram (Ch2)]
Interval(msec)	220
# of Points	1091
Start Time(min)	0.002
End Time(min)	3.998
R.Time (min)	Intensity
0.00167	0
0.00533	0
0.00900	0
0.01267	0
0.01633	0
0.02000	1
0.02367	1
0.02733	1
0.03100	1
0.03467	1
0.03833	1
0.04200	1
0.04567	2
0.04933	2
0.05300	2
0.05667	2
0.06033	1
0.06400	1
0.06767	1
0.07133	1
0.07500	1
0.07867	1
0.08233	1
0.08600	1
0.08967	1
0.09333	1
0.09700	1
0.10067	1
0.10433	1
0.10800	1
0.11167	1
0.11533	1
0.11900	2
0.12267	2
0.12633	2
0.13000	2
0.13367	2
0.13733	2
0.14100	2
0.14467	2
0.14833	2
0.15200	2
0.15567	2
0.15933	2
0.16300	2
0.16667	2
0.17033	2
0.17400	2
0.17767	2
0.18133	2
0.18500	2
0.18867	2
0.19233	2
0.19600	2
0.19967	1
0.20333	1
0.20700	1
0.21067	1
0.21433	1
0.21800	1
0.22167	1
0.22533	1
0.22900	1
0.23267	1
0.23633	1
0.24000	1
0.24367	1
0.24733	2
0.25100	2
0.25467	2
0.25833	1
0.26200	1
0.26567	1
0.26933	1
0.27300	2
0.27667	2
0.28033	2
0.28400	2
0.28767	2
0.29133	2
0.29500	2
0.29867	2
0.30233	2
0.30600	2
0.30967	2
0.31333	2
0.31700	2
0.32067	2
0.32433	1
0.32800	1
0.33167	1
0.33533	1
0.33900	1
0.34267	1
0.34633	1
0.35000	1
0.35367	1
0.35733	1
0.36100	1
0.36467	1
0.36833	1
0.37200	1
0.37567	1
0.37933	1
0.38300	1
0.38667	1
0.39033	0
0.39400	0
0.39767	-0
0.40133	0
0.40500	0
0.40867	0
0.41233	0
0.41600	0
0.41967	0
0.42333	0
0.42700	0
0.43067	0
0.43433	0
0.43800	1
0.44167	1
0.44533	1
0.44900	1
0.45267	2
0.45633	2
0.46000	2
0.46367	2
0.46733	2
0.47100	2
0.47467	2
0.47833	1
0.48200	1
0.48567	1
0.48933	1
0.49300	1
0.49667	1
0.50033	1
0.50400	1
0.50767	1
0.51133	1
0.51500	1
0.51867	1
0.52233	1
0.52600	1
0.52967	1
0.53333	1
0.53700	1
0.54067	1
0.54433	0
0.54800	0
0.55167	1
0.55533	1
0.55900	1
0.56267	1
0.56633	1
0.57000	1
0.57367	1
0.57733	1
0.58100	2
0.58467	2
0.58833	1
0.59200	1
0.59567	1
0.59933	1
0.60300	1
0.60667	1
0.61033	0
0.61400	0
0.61767	0
0.62133	-0
0.62500	0
0.62867	0
0.63233	0
0.63600	0
0.63967	0
0.64333	0
0.64700	0
0.65067	-0
0.65433	-0
0.65800	-1
0.66167	-1
0.66533	-1
0.66900	-0
0.67267	0
0.67633	0
0.68000	0
0.68367	1
0.68733	1
0.69100	1
0.69467	1
0.69833	1
0.70200	1
0.70567	0
0.70933	0
0.71300	0
0.71667	0
0.72033	-0
0.72400	-0
0.72767	-0
0.73133	-0
0.73500	0
0.73867	0
0.74233	0
0.74600	1
0.74967	0
0.75333	0
0.75700	0
0.76067	-0
0.76433	-0
0.76800	-1
0.77167	-1
0.77533	-0
0.77900	-0
0.78267	-0
0.78633	0
0.79000	0
0.79367	1
0.79733	1
0.80100	1
0.80467	1
0.80833	1
0.81200	1
0.81567	1
0.81933	1
0.82300	1
0.82667	1
0.83033	1
0.83400	1
0.83767	1
0.84133	1
0.84500	1
0.84867	1
0.85233	1
0.85600	1
0.85967	1
0.86333	1
0.86700	0
0.87067	0
0.87433	-0
0.87800	-0
0.88167	-1
0.88533	-1
0.88900	-1
0.89267	-1
0.89633	-2
0.90000	-2
0.90367	-2
0.90733	-2
0.91100	-2
0.91467	-2
0.91833	-2
0.92200	-2
0.92567	-2
0.92933	-1
0.93300	-1
0.93667	-1
0.94033	-1
0.94400	-1
0.94767	-1
0.95133	-1
0.95500	-1
0.95867	-0
0.96233	-0
0.96600	-0
0.96967	-0
0.97333	-0
0.97700	-1
0.98067	-1
0.98433	-1
0.98800	-1
0.99167	-1
0.99533	-1
0.99900	-1
1.00267	-1
1.00633	-1
1.01000	-1
1.01367	-1
1.01733	-1
1.02100	-1
1.02467	-1
1.02833	-1
1.03200	-1
1.03567	-1
1.03933	-1
1.04300	-1
1.04667	-1
1.05033	-1
1.05400	-1
1.05767	-1
1.06133	-1
1.06500	-2
1.06867	-2
1.07233	-2
1.07600	-2
1.07967	-2
1.08333	-2
1.08700	-2
1.09067	-2
1.09433	-2
1.09800	-2
1.10167	-2
1.10533	-1
1.10900	-1
1.11267	-1
1.11633	-1
1.12000	-1
1.12367	-1
1.12733	-0
1.13100	-0
1.13467	-0
1.13833	-0
1.14200	-0
1.14567	-0
1.14933	-1
1.15300	-1
1.15667	-1
1.16033	-1
1.16400	-1
1.16767	-1
1.17133	-1
1.17500	-1
1.17867	-1
1.18233	-0
1.18600	-0
1.18967	-0
1.19333	-0
1.19700	-0
1.20067	-0
1.20433	-0
1.20800	-0
1.21167	-0
1.21533	-1
1.21900	-1
1.22267	-1
1.22633	-1
1.23000	-1
1.23367	-1
1.23733	-1
1.24100	-1
1.24467	-1
1.24833	-1
1.25200	-1
1.25567	-1
1.25933	-1
1.26300	-1
1.26667	-1
1.27033	-1
1.27400	-1
1.27767	-1
1.28133	-1
1.28500	-1
1.28867	-1
1.29233	-1
1.29600	-1
1.29967	-1
1.30333	-1
1.30700	-1
1.31067	-1
1.31433	-1
1.31800	-1
1.32167	-1
1.32533	-1
1.32900	-1
1.33267	-1
1.33633	-1
1.34000	-1
1.34367	-1
1.34733	-1
1.35100	-1
1.35467	-1
1.35833	-1
1.36200	-1
1.36567	-1
1.36933	-1
1.37300	-1
1.37667	-1
1.38033	-1
1.38400	-1
1.38767	-1
1.39133	-2
1.39500	-2
1.39867	-2
1.40233	-2
1.40600	-3
1.40967	-3
1.41333	-3
1.41700	-3
1.42067	-3
1.42433	-3
1.42800	-3
1.43167	-3
1.43533	-3
1.43900	-3
1.44267	-3
1.44633	-3
1.45000	-3
1.45367	-3
1.45733	-3
1.46100	-3
1.46467	-3
1.46833	-3
1.47200	-2
1.47567	-2
1.47933	-2
1.48300	-2
1.48667	-2
1.49033	-2
1.49400	-2
1.49767	-2
1.50133	-2
1.50500	-2
1.50867	-2
1.51233	-2
1.51600	-2
1.51967	-2
1.52333	-2
1.52700	-2
1.53067	-2
1.53433	-2
1.53800	-2
1.54167	-2
1.54533	-1
1.54900	-1
1.55267	-2
1.55633	-2
1.56000	-2
1.56367	-2
1.56733	-2
1.57100	-2
1.57467	-2
1.57833	-2
1.58200	-1
1.58567	-1
1.58933	-1
1.59300	-2
1.59667	-2
1.60033	-3
1.60400	-4
1.60767	-5
1.61133	-7
1.61500	-9
1.61867	-12
1.62233	-14
1.62600	-17
1.62967	-20
1.63333	-23
1.63700	-27
1.64067	-30
1.64433	-33
1.64800	-36
1.65167	-39
1.65533	-43
1.65900	-46
1.66267	-50
1.66633	-54
1.67000	-58
1.67367	-63
1.67733	-68
1.68100	-72
1.68467	-77
1.68833	-80
1.69200	-84
1.69567	-87
1.69933	-89
1.70300	-91
1.70667	-92
1.71033	-93
1.71400	-94
1.71767	-95
1.72133	-96
1.72500	-97
1.72867	-97
1.73233	-98
1.73600	-98
1.73967	-98
1.74333	-98
1.74700	-98
1.75067	-97
1.75433	-96
1.75800	-96
1.76167	-95
1.76533	-94
1.76900	-94
1.77267	-94
1.77633	-95
1.78000	-96
1.78367	-97
1.78733	-98
1.79100	-99
1.79467	-100
1.79833	-100
1.80200	-100
1.80567	-100
1.80933	-100
1.81300	-100
1.81667	-100
1.82033	-100
1.82400	-100
1.82767	-100
1.83133	-101
1.83500	-101
1.83867	-101
1.84233	-100
1.84600	-100
1.84967	-100
1.85333	-99
1.85700	-99
1.86067	-99
1.86433	-99
1.86800	-99
1.87167	-99
1.87533	-99
1.87900	-99
1.88267	-99
1.88633	-100
1.89000	-100
1.89367	-100
1.89733	-100
1.90100	-99
1.90467	-99
1.90833	-98
1.91200	-98
1.91567	-97
1.91933	-97
1.92300	-97
1.92667	-97
1.93033	-97
1.93400	-96
1.93767	-96
1.94133	-95
1.94500	-95
1.94867	-95
1.95233	-95
1.95600	-95
1.95967	-95
1.96333	-94
1.96700	-94
1.97067	-94
1.97433	-94
1.97800	-94
1.98167	-94
1.98533	-94
1.98900	-94
1.99267	-94
1.99633	-93
2.00000	-93
2.00367	-92
2.00733	-91
2.01100	-90
2.01467	-90
2.01833	-89
2.02200	-89
2.02567	-88
2.02933	-88
2.03300	-88
2.03667	-89
2.04033	-89
2.04400	-89
2.04767	-89
2.05133	-89
2.05500	-89
2.05867	-89
2.06233	-89
2.06600	-89
2.06967	-89
2.07333	-89
2.07700	-88
2.08067	-87
2.08433	-87
2.08800	-86
2.09167	-86
2.09533	-85
2.09900	-84
2.10267	-84
2.10633	-83
2.11000	-83
2.11367	-83
2.11733	-83
2.12100	-83
2.12467	-84
2.12833	-84
2.13200	-85
2.13567	-85
2.13933	-85
2.14300	-85
2.14667	-85
2.15033	-84
2.15400	-83
2.15767	-82
2.16133	-81
2.16500	-80
2.16867	-79
2.17233	-78
2.17600	-77
2.17967	-76
2.18333	-76
2.18700	-76
2.19067	-77
2.19433	-77
2.19800	-77
2.20167	-78
2.20533	-78
2.20900	-78
2.21267	-78
2.21633	-78
2.22000	-77
2.22367	-76
2.22733	-75
2.23100	-75
2.23467	-74
2.23833	-73
2.24200	-73
2.24567	-73
2.24933	-73
2.25300	-73
2.25667	-73
2.26033	-73
2.26400	-72
2.26767	-72
2.27133	-71
2.27500	-71
2.27867	-70
2.28233	-70
2.28600	-70
2.28967	-70
2.29333	-70
2.29700	-69
2.30067	-69
2.30433	-68
2.30800	-68
2.31167	-67
2.31533	-68
2.31900	-68
2.32267	-69
2.32633	-69
2.33000	-69
2.33367	-69
2.33733	-68
2.34100	-68
2.34467	-67
2.34833	-66
2.35200	-65
2.35567	-64
2.35933	-63
2.36300	-62
2.36667	-61
2.37033	-58
2.37400	-56
2.37767	-53
2.38133	-50
2.38500	-46
2.38867	-43
2.39233	-39
2.39600	-35
2.39967	-30
2.40333	-26
2.40700	-22
2.41067	-18
2.41433	-14
2.41800	-11
2.42167	-8
2.42533	-5
2.42900	-3
2.43267	-1
2.43633	0
2.44000	2
2.44367	4
2.44733	6
2.45100	7
2.45467	8
2.45833	9
2.46200	9
2.46567	9
2.46933	9
2.47300	9
2.47667	10
2.48033	11
2.48400	12
2.48767	13
2.49133	13
2.49500	14
2.49867	15
2.50233	15
2.50600	16
2.50967	16
2.51333	17
2.51700	17
2.52067	18
2.52433	18
2.52800	18
2.53167	19
2.53533	19
2.53900	19
2.54267	19
2.54633	18
2.55000	17
2.55367	16
2.55733	15
2.56100	15
2.56467	14
2.56833	13
2.57200	12
2.57567	12
2.57933	12
2.58300	12
2.58667	12
2.59033	13
2.59400	13
2.59767	14
2.60133	15
2.60500	16
2.60867	17
2.61233	18
2.61600	18
2.61967	19
2.62333	19
2.62700	19
2.63067	20
2.63433	20
2.63800	20
2.64167	20
2.64533	21
2.64900	21
2.65267	22
2.65633	22
2.66000	23
2.66367	23
2.66733	24
2.67100	24
2.67467	24
2.67833	24
2.68200	24
2.68567	24
2.68933	24
2.69300	24
2.69667	23
2.70033	23
2.70400	23
2.70767	24
2.71133	24
2.71500	25
2.71867	25
2.72233	26
2.72600	26
2.72967	27
2.73333	27
2.73700	27
2.74067	27
2.74433	28
2.74800	28
2.75167	28
2.75533	28
2.75900	28
2.76267	28
2.76633	28
2.77000	28
2.77367	28
2.77733	28
2.78100	28
2.78467	28
2.78833	28
2.79200	28
2.79567	28
2.79933	27
2.80300	27
2.80667	27
2.81033	27
2.81400	27
2.81767	27
2.82133	27
2.82500	27
2.82867	27
2.83233	27
2.83600	27
2.83967	28
2.84333	28
2.84700	28
2.85067	28
2.85433	27
2.85800	26
2.86167	24
2.86533	21
2.86900	15
2.87267	8
2.87633	-2
2.88000	-13
2.88367	-27
2.88733	-42
2.89100	-57
2.89467	-73
2.89833	-87
2.90200	-100
2.90567	-110
2.90933	-115
2.91300	-115
2.91667	-108
2.92033	-94
2.92400	-70
2.92767	-34
2.93133	14
2.93500	78
2.93867	161
2.94233	262
2.94600	372
2.94967	471
2.95333	544
2.95700	586
2.96067	599
2.96433	590
2.96800	565
2.97167	530
2.97533	490
2.97900	449
2.98267	407
2.98633	367
2.99000	330
2.99367	295
2.99733	264
3.00100	236
3.00467	211
3.00833	188
3.01200	169
3.01567	151
3.01933	136
3.02300	122
3.02667	110
3.03033	100
3.03400	91
3.03767	84
3.04133	77
3.04500	72
3.04867	67
3.05233	63
3.05600	59
3.05967	56
3.06333	53
3.06700	50
3.07067	48
3.07433	45
3.07800	44
3.08167	42
3.08533	41
3.08900	40
3.09267	39
3.09633	38
3.10000	38
3.10367	37
3.10733	37
3.11100	36
3.11467	36
3.11833	35
3.12200	34
3.12567	34
3.12933	34
3.13300	33
3.13667	33
3.14033	33
3.14400	33
3.14767	33
3.15133	33
3.15500	33
3.15867	33
3.16233	33
3.16600	32
3.16967	32
3.17333	33
3.17700	33
3.18067	33
3.18433	33
3.18800	34
3.19167	34
3.19533	34
3.19900	34
3.20267	34
3.20633	34
3.21000	35
3.21367	35
3.21733	35
3.22100	35
3.22467	35
3.22833	35
3.23200	35
3.23567	35
3.23933	36
3.24300	36
3.24667	35
3.25033	35
3.25400	35
3.25767	35
3.26133	35
3.26500	35
3.26867	35
3.27233	35
3.27600	35
3.27967	35
3.28333	34
3.28700	34
3.29067	34
3.29433	34
3.29800	34
3.30167	34
3.30533	34
3.30900	34
3.31267	33
3.31633	33
3.32000	33
3.32367	33
3.32733	32
3.33100	32
3.33467	32
3.33833	32
3.34200	32
3.34567	32
3.34933	32
3.35300	32
3.35667	32
3.36033	32
3.36400	32
3.36767	31
3.37133	31
3.37500	31
3.37867	31
3.38233	30
3.38600	30
3.38967	30
3.39333	30
3.39700	30
3.40067	30
3.40433	30
3.40800	30
3.41167	30
3.41533	30
3.41900	30
3.42267	30
3.42633	30
3.43000	30
3.43367	30
3.43733	30
3.44100	30
3.44467	30
3.44833	30
3.45200	30
3.45567	30
3.45933	30
3.46300	30
3.46667	30
3.47033	30
3.47400	30
3.47767	29
3.48133	29
3.48500	29
3.48867	29
3.49233	30
3.49600	29
3.49967	30
3.50333	29
3.50700	29
3.51067	29
3.51433	29
3.51800	29
3.52167	29
3.52533	29
3.52900	29
3.53267	29
3.53633	30
3.54000	30
3.54367	30
3.54733	30
3.55100	30
3.55467	30
3.55833	30
3.56200	29
3.56567	29
3.56933	29
3.57300	29
3.57667	29
3.58033	29
3.58400	29
3.58767	29
3.59133	29
3.59500	29
3.59867	29
3.60233	29
3.60600	29
3.60967	29
3.61333	29
3.61700	29
3.62067	29
3.62433	29
3.62800	29
3.63167	29
3.63533	29
3.63900	29
3.64267	30
3.64633	30
3.65000	30
3.65367	30
3.65733	30
3.66100	29
3.66467	29
3.66833	29
3.67200	29
3.67567	29
3.67933	29
3.68300	29
3.68667	29
3.69033	29
3.69400	29
3.69767	29
3.70133	29
3.70500	29
3.70867	29
3.71233	28
3.71600	28
3.71967	29
3.72333	29
3.72700	29
3.73067	29
3.73433	29
3.73800	29
3.74167	29
3.74533	30
3.74900	30
3.75267	30
3.75633	30
3.76000	30
3.76367	30
3.76733	31
3.77100	30
3.77467	30
3.77833	30
3.78200	30
3.78567	29
3.78933	29
3.79300	29
3.79667	29
3.80033	29
3.80400	29
3.80767	29
3.81133	29
3.81500	29
3.81867	29
3.82233	29
3.82600	29
3.82967	30
3.83333	30
3.83700	30
3.84067	30
3.84433	30
3.84800	30
3.85167	30
3.85533	31
3.85900	31
3.86267	31
3.86633	31
3.87000	31
3.87367	31
3.87733	31
3.88100	31
3.88467	30
3.88833	30
3.89200	30
3.89567	30
3.89933	30
3.90300	30
3.90667	30
3.91033	30
3.91400	30
3.91767	30
3.92133	30
3.92500	30
3.92867	30
3.93233	30
3.93600	30
3.93967	30
3.94333	30
3.94700	30
3.95067	30
3.95433	30
3.95800	30
3.96167	30
3.96533	30
3.96900	30
3.97267	30
3.97633	30
3.98000	30
3.98367	30
3.98733	30
3.99100	30
3.99467	30
3.99833	30

[Chromatogram (Ch3)]
Interval(msec)	220
# of Points	1091
Start Time(min)	0.002
End Time(min)	3.998
R.Time (min)	Intensity
0.00167	-1
0.00533	-2
0.00900	-4
0.01267	-5
0.01633	-7
0.02000	-8
0.02367	-8
0.02733	-7
0.03100	-6
0.03467	-4
0.03833	-3
0.04200	-4
0.04567	-6
0.04933	-7
0.05300	-6
0.05667	-3
0.06033	-2
0.06400	-2
0.06767	-3
0.07133	-3
0.07500	-2
0.07867	-3
0.08233	-3
0.08600	-2
0.08967	-2
0.09333	-2
0.09700	-2
0.10067	-1
0.10433	-2
0.10800	-2
0.11167	-2
0.11533	-1
0.11900	-1
0.12267	-1
0.12633	-2
0.13000	-0
0.13367	-1
0.13733	-0
0.14100	-0
0.14467	-2
0.14833	-1
0.15200	-2
0.15567	-1
0.15933	-2
0.16300	-4
0.16667	-4
0.17033	-2
0.17400	-0
0.17767	1
0.18133	1
0.18500	1
0.18867	-1
0.19233	-1
0.19600	-1
0.19967	-1
0.20333	-3
0.20700	-3
0.21067	-2
0.21433	-1
0.21800	-1
0.22167	-2
0.22533	-5
0.22900	-8
0.23267	-8
0.23633	-7
0.24000	-7
0.24367	-8
0.24733	-7
0.25100	-7
0.25467	-6
0.25833	-4
0.26200	-2
0.26567	-5
0.26933	-7
0.27300	-7
0.27667	-6
0.28033	-5
0.28400	-6
0.28767	-7
0.29133	-6
0.29500	-6
0.29867	-6
0.30233	-4
0.30600	-2
0.30967	-2
0.31333	-3
0.31700	-4
0.32067	-5
0.32433	-6
0.32800	-7
0.33167	-7
0.33533	-5
0.33900	-2
0.34267	-2
0.34633	-3
0.35000	-2
0.35367	-1
0.35733	-0
0.36100	-1
0.36467	-0
0.36833	0
0.37200	0
0.37567	0
0.37933	-0
0.38300	-0
0.38667	1
0.39033	3
0.39400	4
0.39767	5
0.40133	5
0.40500	2
0.40867	1
0.41233	1
0.41600	2
0.41967	1
0.42333	-2
0.42700	-5
0.43067	-6
0.43433	-5
0.43800	-3
0.44167	-1
0.44533	1
0.44900	2
0.45267	1
0.45633	-0
0.46000	-0
0.46367	1
0.46733	2
0.47100	1
0.47467	1
0.47833	1
0.48200	3
0.48567	3
0.48933	3
0.49300	4
0.49667	5
0.50033	2
0.50400	-0
0.50767	-1
0.51133	0
0.51500	2
0.51867	5
0.52233	5
0.52600	2
0.52967	-0
0.53333	-1
0.53700	0
0.54067	2
0.54433	2
0.54800	-0
0.55167	-0
0.55533	2
0.55900	3
0.56267	0
0.56633	-3
0.57000	-5
0.57367	-5
0.57733	-6
0.58100	-7
0.58467	-8
0.58833	-8
0.59200	-7
0.59567	-6
0.59933	-4
0.60300	-3
0.60667	-2
0.61033	-0
0.61400	1
0.61767	3
0.62133	2
0.62500	3
0.62867	6
0.63233	5
0.63600	4
0.63967	3
0.64333	2
0.64700	1
0.65067	-0
0.65433	-3
0.65800	-1
0.66167	2
0.66533	3
0.66900	3
0.67267	4
0.67633	3
0.68000	-1
0.68367	-3
0.68733	-2
0.69100	-0
0.69467	0
0.69833	1
0.70200	0
0.70567	-1
0.70933	0
0.71300	1
0.71667	2
0.72033	2
0.72400	3
0.72767	2
0.73133	2
0.73500	4
0.73867	6
0.74233	3
0.74600	1
0.74967	0
0.75333	1
0.75700	3
0.76067	4
0.76433	4
0.76800	5
0.77167	6
0.77533	5
0.77900	3
0.78267	3
0.78633	4
0.79000	4
0.79367	4
0.79733	5
0.80100	6
0.80467	5
0.80833	5
0.81200	5
0.81567	9
0.81933	12
0.82300	11
0.82667	8
0.83033	7
0.83400	4
0.83767	2
0.84133	3
0.84500	4
0.84867	4
0.85233	3
0.85600	5
0.85967	6
0.86333	7
0.86700	8
0.87067	9
0.87433	10
0.87800	10
0.88167	10
0.88533	12
0.88900	13
0.89267	11
0.89633	10
0.90000	11
0.90367	12
0.90733	11
0.91100	10
0.91467	12
0.91833	11
0.92200	9
0.92567	7
0.92933	6
0.93300	7
0.93667	8
0.94033	8
0.94400	7
0.94767	6
0.95133	5
0.95500	3
0.95867	2
0.96233	2
0.96600	1
0.96967	1
0.97333	4
0.97700	6
0.98067	7
0.98433	5
0.98800	5
0.99167	5
0.99533	6
0.99900	5
1.00267	3
1.00633	4
1.01000	6
1.01367	7
1.01733	7
1.02100	8
1.02467	10
1.02833	11
1.03200	9
1.03567	4
1.03933	1
1.04300	-0
1.04667	1
1.05033	1
1.05400	3
1.05767	3
1.06133	1
1.06500	3
1.06867	5
1.07233	8
1.07600	10
1.07967	10
1.08333	9
1.08700	7
1.09067	5
1.09433	6
1.09800	5
1.10167	4
1.10533	5
1.10900	8
1.11267	9
1.11633	10
1.12000	9
1.12367	9
1.12733	7
1.13100	7
1.13467	10
1.13833	10
1.14200	8
1.14567	9
1.14933	9
1.15300	9
1.15667	10
1.16033	11
1.16400	12
1.16767	13
1.17133	11
1.17500	7
1.17867	6
1.18233	5
1.18600	4
1.18967	4
1.19333	6
1.19700	8
1.20067	7
1.20433	6
1.20800	6
1.21167	7
1.21533	8
1.21900	9
1.22267	8
1.22633	8
1.23000	9
1.23367	8
1.23733	5
1.24100	3
1.24467	4
1.24833	7
1.25200	8
1.25567	9
1.25933	8
1.26300	5
1.26667	3
1.27033	2
1.27400	2
1.27767	4
1.28133	4
1.28500	5
1.28867	7
1.29233	9
1.29600	9
1.29967	9
1.30333	8
1.30700	8
1.31067	9
1.31433	11
1.31800	11
1.32167	10
1.32533	9
1.32900	9
1.33267	11
1.33633	13
1.34000	13
1.34367	12
1.34733	11
1.35100	11
1.35467	12
1.35833	10
1.36200	10
1.36567	9
1.36933	9
1.37300	11
1.37667	12
1.38033	12
1.38400	12
1.38767	11
1.39133	11
1.39500	10
1.39867	8
1.40233	5
1.40600	5
1.40967	6
1.41333	9
1.41700	10
1.42067	8
1.42433	7
1.42800	6
1.43167	6
1.43533	5
1.43900	6
1.44267	5
1.44633	5
1.45000	4
1.45367	3
1.45733	5
1.46100	7
1.46467	8
1.46833	7
1.47200	5
1.47567	5
1.47933	5
1.48300	7
1.48667	8
1.49033	8
1.49400	7
1.49767	7
1.50133	7
1.50500	6
1.50867	3
1.51233	1
1.51600	2
1.51967	2
1.52333	6
1.52700	9
1.53067	11
1.53433	12
1.53800	12
1.54167	11
1.54533	10
1.54900	9
1.55267	10
1.55633	10
1.56000	11
1.56367	13
1.56733	11
1.57100	8
1.57467	8
1.57833	10
1.58200	13
1.58567	13
1.58933	13
1.59300	13
1.59667	12
1.60033	8
1.60400	9
1.60767	14
1.61133	17
1.61500	16
1.61867	18
1.62233	18
1.62600	16
1.62967	15
1.63333	15
1.63700	13
1.64067	11
1.64433	12
1.64800	14
1.65167	14
1.65533	16
1.65900	17
1.66267	15
1.66633	17
1.67000	19
1.67367	21
1.67733	20
1.68100	20
1.68467	20
1.68833	20
1.69200	20
1.69567	19
1.69933	17
1.70300	16
1.70667	16
1.71033	17
1.71400	17
1.71767	18
1.72133	17
1.72500	17
1.72867	18
1.73233	19
1.73600	19
1.73967	19
1.74333	18
1.74700	20
1.75067	21
1.75433	21
1.75800	22
1.76167	22
1.76533	22
1.76900	19
1.77267	19
1.77633	20
1.78000	21
1.78367	23
1.78733	25
1.79100	26
1.79467	23
1.79833	22
1.80200	22
1.80567	23
1.80933	23
1.81300	21
1.81667	21
1.82033	22
1.82400	21
1.82767	21
1.83133	20
1.83500	21
1.83867	20
1.84233	22
1.84600	23
1.84967	24
1.85333	24
1.85700	27
1.86067	28
1.86433	28
1.86800	28
1.87167	29
1.87533	29
1.87900	28
1.88267	28
1.88633	29
1.89000	29
1.89367	28
1.89733	28
1.90100	28
1.90467	28
1.90833	26
1.91200	26
1.91567	26
1.91933	27
1.92300	29
1.92667	30
1.93033	29
1.93400	30
1.93767	29
1.94133	28
1.94500	29
1.94867	30
1.95233	32
1.95600	33
1.95967	34
1.96333	36
1.96700	37
1.97067	38
1.97433	40
1.97800	42
1.98167	41
1.98533	42
1.98900	43
1.99267	42
1.99633	41
2.00000	40
2.00367	41
2.00733	42
2.01100	42
2.01467	43
2.01833	47
2.02200	47
2.02567	49
2.02933	48
2.03300	46
2.03667	45
2.04033	46
2.04400	45
2.04767	45
2.05133	44
2.05500	44
2.05867	45
2.06233	47
2.06600	50
2.06967	51
2.07333	52
2.07700	51
2.08067	49
2.08433	47
2.08800	48
2.09167	51
2.09533	53
2.09900	55
2.10267	55
2.10633	57
2.11000	58
2.11367	62
2.11733	61
2.12100	59
2.12467	58
2.12833	58
2.13200	59
2.13567	61
2.13933	63
2.14300	63
2.14667	64
2.15033	64
2.15400	64
2.15767	64
2.16133	63
2.16500	60
2.16867	59
2.17233	61
2.17600	62
2.17967	64
2.18333	66
2.18700	67
2.19067	67
2.19433	68
2.19800	70
2.20167	71
2.20533	71
2.20900	71
2.21267	74
2.21633	75
2.22000	76
2.22367	76
2.22733	74
2.23100	74
2.23467	73
2.23833	74
2.24200	75
2.24567	74
2.24933	73
2.25300	73
2.25667	73
2.26033	76
2.26400	78
2.26767	79
2.27133	81
2.27500	83
2.27867	84
2.28233	87
2.28600	89
2.28967	90
2.29333	88
2.29700	87
2.30067	88
2.30433	89
2.30800	92
2.31167	93
2.31533	93
2.31900	94
2.32267	92
2.32633	89
2.33000	89
2.33367	91
2.33733	93
2.34100	94
2.34467	93
2.34833	94
2.35200	94
2.35567	94
2.35933	94
2.36300	95
2.36667	94
2.37033	94
2.37400	96
2.37767	97
2.38133	99
2.38500	96
2.38867	90
2.39233	90
2.39600	96
2.39967	102
2.40333	108
2.40700	113
2.41067	117
2.41433	116
2.41800	114
2.42167	115
2.42533	114
2.42900	111
2.43267	111
2.43633	111
2.44000	118
2.44367	170
2.44733	256
2.45100	335
2.45467	393
2.45833	417
2.46200	408
2.46567	387
2.46933	371
2.47300	360
2.47667	345
2.48033	322
2.48400	294
2.48767	265
2.49133	240
2.49500	224
2.49867	216
2.50233	215
2.50600	218
2.50967	224
2.51333	231
2.51700	233
2.52067	230
2.52433	223
2.52800	212
2.53167	198
2.53533	184
2.53900	168
2.54267	153
2.54633	141
2.55000	133
2.55367	128
2.55733	123
2.56100	120
2.56467	119
2.56833	122
2.57200	126
2.57567	129
2.57933	135
2.58300	140
2.58667	147
2.59033	155
2.59400	165
2.59767	173
2.60133	183
2.60500	192
2.60867	198
2.61233	202
2.61600	201
2.61967	196
2.62333	189
2.62700	180
2.63067	169
2.63433	158
2.63800	148
2.64167	136
2.64533	125
2.64900	114
2.65267	104
2.65633	96
2.66000	90
2.66367	85
2.66733	83
2.67100	78
2.67467	73
2.67833	69
2.68200	66
2.68567	63
2.68933	59
2.69300	57
2.69667	57
2.70033	57
2.70400	58
2.70767	60
2.71133	62
2.71500	64
2.71867	63
2.72233	61
2.72600	63
2.72967	66
2.73333	69
2.73700	73
2.74067	77
2.74433	79
2.74800	80
2.75167	81
2.75533	83
2.75900	86
2.76267	89
2.76633	91
2.77000	94
2.77367	98
2.77733	103
2.78100	108
2.78467	113
2.78833	117
2.79200	123
2.79567	128
2.79933	132
2.80300	136
2.80667	136
2.81033	137
2.81400	137
2.81767	138
2.82133	139
2.82500	142
2.82867	148
2.83233	164
2.83600	206
2.83967	301
2.84333	495
2.84700	843
2.85067	1402
2.85433	2213
2.85800	3291
2.86167	4608
2.86533	6105
2.86900	7685
2.87267	9225
2.87633	10606
2.88000	11718
2.88367	12490
2.88733	12887
2.89100	12921
2.89467	12638
2.89833	12099
2.90200	11371
2.90567	10521
2.90933	9617
2.91300	8705
2.91667	7818
2.92033	6979
2.92400	6199
2.92767	5483
2.93133	4829
2.93500	4242
2.93867	3720
2.94233	3255
2.94600	2844
2.94967	2483
2.95333	2167
2.95700	1889
2.96067	1647
2.96433	1435
2.96800	1251
2.97167	1092
2.97533	954
2.97900	834
2.98267	729
2.98633	641
2.99000	565
2.99367	500
2.99733	442
3.00100	392
3.00467	351
3.00833	316
3.01200	284
3.01567	257
3.01933	234
3.02300	215
3.02667	196
3.03033	181
3.03400	169
3.03767	158
3.04133	148
3.04500	140
3.04867	135
3.05233	130
3.05600	125
3.05967	121
3.06333	118
3.06700	117
3.07067	114
3.07433	111
3.07800	108
3.08167	109
3.08533	108
3.08900	107
3.09267	105
3.09633	102
3.10000	101
3.10367	101
3.10733	99
3.11100	99
3.11467	101
3.11833	102
3.12200	104
3.12567	105
3.12933	107
3.13300	107
3.13667	110
3.14033	112
3.14400	113
3.14767	112
3.15133	110
3.15500	110
3.15867	111
3.16233	112
3.16600	114
3.16967	115
3.17333	114
3.17700	113
3.18067	111
3.18433	109
3.18800	110
3.19167	112
3.19533	113
3.19900	115
3.20267	118
3.20633	122
3.21000	123
3.21367	122
3.21733	123
3.22100	125
3.22467	127
3.22833	128
3.23200	129
3.23567	128
3.23933	128
3.24300	130
3.24667	132
3.25033	132
3.25400	131
3.25767	130
3.26133	130
3.26500	130
3.26867	133
3.27233	134
3.27600	134
3.27967	134
3.28333	134
3.28700	133
3.29067	132
3.29433	132
3.29800	133
3.30167	135
3.30533	136
3.30900	134
3.31267	132
3.31633	132
3.32000	131
3.32367	130
3.32733	131
3.33100	132
3.33467	133
3.33833	132
3.34200	132
3.34567	132
3.34933	131
3.35300	130
3.35667	131
3.36033	133
3.36400	134
3.36767	134
3.37133	133
3.37500	133
3.37867	132
3.38233	131
3.38600	129
3.38967	127
3.39333	127
3.39700	127
3.40067	129
3.40433	130
3.40800	128
3.41167	127
3.41533	127
3.41900	128
3.42267	127
3.42633	125
3.43000	122
3.43367	118
3.43733	117
3.44100	119
3.44467	120
3.44833	121
3.45200	122
3.45567	124
3.45933	124
3.46300	124
3.46667	122
3.47033	121
3.47400	124
3.47767	123
3.48133	123
3.48500	124
3.48867	124
3.49233	123
3.49600	123
3.49967	125
3.50333	124
3.50700	124
3.51067	125
3.51433	128
3.51800	129
3.52167	130
3.52533	129
3.52900	128
3.53267	127
3.53633	127
3.54000	127
3.54367	129
3.54733	130
3.55100	132
3.55467	132
3.55833	130
3.56200	131
3.56567	128
3.56933	115
3.57300	101
3.57667	92
3.58033	93
3.58400	104
3.58767	123
3.59133	149
3.59500	182
3.59867	222
3.60233	267
3.60600	315
3.60967	365
3.61333	413
3.61700	458
3.62067	500
3.62433	536
3.62800	568
3.63167	597
3.63533	624
3.63900	646
3.64267	665
3.64633	681
3.65000	696
3.65367	707
3.65733	717
3.66100	726
3.66467	732
3.66833	735
3.67200	735
3.67567	735
3.67933	733
3.68300	731
3.68667	730
3.69033	730
3.69400	728
3.69767	725
3.70133	723
3.70500	719
3.70867	715
3.71233	711
3.71600	709
3.71967	707
3.72333	705
3.72700	702
3.73067	698
3.73433	694
3.73800	689
3.74167	687
3.74533	687
3.74900	684
3.75267	680
3.75633	677
3.76000	673
3.76367	669
3.76733	665
3.77100	662
3.77467	661
3.77833	658
3.78200	654
3.78567	655
3.78933	655
3.79300	653
3.79667	649
3.80033	645
3.80400	643
3.80767	643
3.81133	642
3.81500	641
3.81867	641
3.82233	640
3.82600	638
3.82967	634
3.83333	631
3.83700	629
3.84067	626
3.84433	624
3.84800	622
3.85167	618
3.85533	614
3.85900	613
3.86267	613
3.86633	612
3.87000	609
3.87367	605
3.87733	603
3.88100	601
3.88467	599
3.88833	597
3.89200	594
3.89567	593
3.89933	591
3.90300	587
3.90667	584
3.91033	582
3.91400	580
3.91767	578
3.92133	574
3.92500	572
3.92867	573
3.93233	573
3.93600	570
3.93967	566
3.94333	562
3.94700	558
3.95067	558
3.95433	559
3.95800	558
3.96167	556
3.96533	553
3.96900	553
3.97267	551
3.97633	551
3.98000	551
3.98367	548
3.98733	545
3.99100	542
3.99467	538
3.99833	534

[Status Trace (Column Oven Temperature)]
Interval(msec)	1000
# of Points	240
Start Time(min)	0.002
End Time(min)	3.986
Intensity Units	
Intensity Multiplier	1
R.Time (min)	Intensity
0.00233	35.08
0.01900	35.07
0.03567	35.08
0.05233	35.06
0.06900	35.06
0.08567	35.06
0.10233	35.05
0.11900	35.05
0.13567	35.04
0.15233	35.04
0.16900	35.04
0.18567	35.04
0.20233	35.03
0.21900	35.03
0.23567	35.04
0.25233	35.03
0.26900	35.03
0.28567	35.02
0.30233	35.02
0.31900	35.03
0.33567	35.03
0.35233	35.03
0.36900	35.03
0.38567	35.03
0.40233	35.03
0.41900	35.02
0.43567	35.02
0.45233	35.01
0.46900	35.00
0.48567	35.00
0.50233	35.00
0.51900	35.00
0.53567	35.00
0.55233	34.99
0.56900	34.99
0.58567	34.99
0.60233	34.99
0.61900	34.99
0.63567	35.00
0.65233	35.00
0.66900	35.00
0.68567	35.00
0.70233	34.99
0.71900	35.00
0.73567	34.99
0.75233	35.00
0.76900	35.00
0.78567	35.00
0.80233	35.00
0.81900	34.99
0.83567	34.99
0.85233	34.98
0.86900	34.98
0.88567	34.99
0.90233	35.00
0.91900	35.00
0.93567	35.00
0.95233	34.99
0.96900	34.98
0.98567	34.98
1.00233	34.98
1.01900	34.98
1.03567	34.99
1.05233	34.99
1.06900	35.00
1.08567	34.99
1.10233	35.00
1.11900	35.00
1.13567	35.00
1.15233	35.00
1.16900	35.00
1.18567	34.99
1.20233	34.99
1.21900	35.00
1.23567	35.00
1.25233	34.99
1.26900	34.99
1.28567	34.99
1.30233	34.98
1.31900	34.98
1.33567	34.98
1.35233	34.99
1.36900	34.99
1.38567	34.98
1.40233	34.99
1.41900	34.99
1.43567	34.99
1.45233	35.00
1.46900	34.99
1.48567	34.99
1.50233	34.99
1.51900	34.99
1.53567	34.98
1.55233	34.97
1.56900	34.98
1.58567	34.98
1.60233	35.03
1.61900	35.13
1.63567	35.29
1.65233	35.52
1.66900	35.84
1.68567	36.21
1.70233	36.57
1.71900	36.91
1.73567	37.25
1.75233	37.57
1.76900	37.88
1.78567	38.23
1.80233	38.56
1.81900	38.90
1.83567	39.24
1.85233	39.57
1.86900	39.89
1.88567	40.24
1.90233	40.56
1.91900	40.89
1.93567	41.21
1.95233	41.56
1.96900	41.87
1.98567	42.21
2.00233	42.53
2.01900	42.85
2.03567	43.17
2.05233	43.50
2.06900	43.83
2.08567	44.15
2.10233	44.47
2.11900	44.79
2.13567	45.14
2.15233	45.46
2.16900	45.77
2.18567	46.09
2.20233	46.44
2.21900	46.76
2.23567	47.08
2.25233	47.42
2.26900	47.73
2.28567	48.08
2.30233	48.39
2.31900	48.72
2.33567	49.06
2.35233	49.36
2.36900	49.59
2.38567	49.71
2.40233	49.72
2.41900	49.72
2.43567	49.74
2.45233	49.73
2.46900	49.77
2.48567	49.78
2.50233	49.79
2.51900	49.80
2.53567	49.80
2.55233	49.82
2.56900	49.83
2.58567	49.84
2.60233	49.84
2.61900	49.85
2.63567	49.85
2.65233	49.85
2.66900	49.85
2.68567	49.88
2.70233	49.90
2.71900	49.88
2.73567	49.88
2.75233	49.88
2.76900	49.88
2.78567	49.89
2.80233	49.91
2.81900	49.93
2.83567	49.95
2.85233	49.96
2.86900	49.97
2.88567	49.98
2.90233	49.99
2.91900	50.00
2.93567	50.00
2.95233	50.01
2.96900	50.01
2.98567	50.02
3.00233	50.03
3.01900	50.04
3.03567	50.04
3.05233	50.05
3.06900	50.06
3.08567	50.07
3.10233	50.08
3.11900	50.09
3.13567	50.10
3.15233	50.11
3.16900	50.11
3.18567	50.11
3.20233	50.08
3.21900	50.06
3.23567	50.05
3.25233	50.03
3.26900	50.02
3.28567	50.00
3.30233	49.99
3.31900	49.99
3.33567	49.99
3.35233	49.99
3.36900	50.00
3.38567	50.00
3.40233	50.01
3.41900	50.00
3.43567	50.01
3.45233	50.01
3.46900	50.01
3.48567	50.01
3.50233	50.02
3.51900	50.03
3.53567	50.03
3.55233	50.03
3.56900	50.04
3.58567	50.04
3.60233	50.05
3.61900	50.05
3.63567	50.05
3.65233	50.06
3.66900	50.06
3.68567	50.06
3.70233	50.07
3.71900	50.07
3.73567	50.06
3.75233	50.06
3.76900	50.06
3.78567	50.06
3.80233	50.06
3.81900	50.07
3.83567	50.07
3.85233	50.06
3.86900	50.07
3.88567	50.07
3.90233	50.07
3.91900	50.07
3.93567	50.07
3.95233	50.07
3.96900	50.07
3.98567	50.08

[Status Trace (Injection Unit Temperature)]
Interval(msec)	1000
# of Points	240
Start Time(min)	0.002
End Time(min)	3.986
Intensity Units	
Intensity Multiplier	1
R.Time (min)	Intensity
0.00233	99.97
0.01900	99.98
0.03567	99.98
0.05233	99.97
0.06900	99.97
0.08567	99.98
0.10233	99.98
0.11900	99.97
0.13567	99.98
0.15233	99.97
0.16900	99.97
0.18567	99.97
0.20233	99.98
0.21900	99.97
0.23567	99.97
0.25233	99.98
0.26900	99.98
0.28567	99.97
0.30233	99.98
0.31900	99.98
0.33567	99.98
0.35233	99.98
0.36900	99.97
0.38567	99.97
0.40233	99.98
0.41900	99.98
0.43567	99.97
0.45233	99.98
0.46900	99.98
0.48567	99.98
0.50233	99.98
0.51900	99.97
0.53567	99.97
0.55233	99.97
0.56900	99.97
0.58567	99.97
0.60233	99.98
0.61900	99.97
0.63567	99.97
0.65233	99.98
0.66900	99.98
0.68567	99.97
0.70233	99.98
0.71900	99.98
0.73567	99.97
0.75233	99.98
0.76900	99.97
0.78567	99.98
0.80233	99.97
0.81900	99.97
0.83567	99.97
0.85233	99.97
0.86900	99.97
0.88567	99.98
0.90233	99.97
0.91900	99.97
0.93567	99.98
0.95233	99.97
0.96900	99.97
0.98567	99.98
1.00233	99.98
1.01900	99.98
1.03567	99.97
1.05233	99.98
1.06900	99.98
1.08567	99.97
1.10233	99.98
1.11900	99.98
1.13567	99.98
1.15233	99.98
1.16900	99.98
1.18567	99.98
1.20233	99.98
1.21900	99.98
1.23567	99.98
1.25233	99.98
1.26900	99.98
1.28567	99.98
1.30233	99.98
1.31900	99.98
1.33567	99.98
1.35233	99.98
1.36900	99.98
1.38567	99.99
1.40233	99.98
1.41900	99.99
1.43567	99.99
1.45233	99.98
1.46900	99.99
1.48567	99.99
1.50233	99.98
1.51900	99.99
1.53567	99.98
1.55233	99.98
1.56900	99.99
1.58567	99.99
1.60233	99.98
1.61900	99.99
1.63567	99.98
1.65233	99.99
1.66900	99.98
1.68567	99.98
1.70233	99.98
1.71900	99.99
1.73567	99.98
1.75233	99.98
1.76900	99.98
1.78567	99.98
1.80233	99.98
1.81900	99.98
1.83567	99.98
1.85233	99.98
1.86900	99.98
1.88567	99.97
1.90233	99.98
1.91900	99.97
1.93567	99.97
1.95233	99.97
1.96900	99.97
1.98567	99.97
2.00233	99.97
2.01900	99.97
2.03567	99.97
2.05233	99.96
2.06900	99.97
2.08567	99.96
2.10233	99.97
2.11900	99.96
2.13567	99.96
2.15233	99.96
2.16900	99.96
2.18567	99.96
2.20233	99.96
2.21900	99.96
2.23567	99.96
2.25233	99.96
2.26900	99.96
2.28567	99.96
2.30233	99.96
2.31900	99.95
2.33567	99.95
2.35233	99.95
2.36900	99.96
2.38567	99.96
2.40233	99.96
2.41900	99.96
2.43567	99.95
2.45233	99.96
2.46900	99.96
2.48567	99.96
2.50233	99.96
2.51900	99.96
2.53567	99.96
2.55233	99.96
2.56900	99.96
2.58567	99.96
2.60233	99.96
2.61900	99.96
2.63567	99.97
2.65233	99.97
2.66900	99.97
2.68567	99.97
2.70233	99.97
2.71900	99.97
2.73567	99.97
2.75233	99.98
2.76900	99.98
2.78567	99.98
2.80233	99.99
2.81900	99.99
2.83567	99.98
2.85233	99.99
2.86900	99.99
2.88567	99.99
2.90233	100.00
2.91900	100.00
2.93567	100.00
2.95233	100.00
2.96900	100.00
2.98567	100.01
3.00233	100.00
3.01900	100.01
3.03567	100.01
3.05233	100.01
3.06900	100.01
3.08567	100.01
3.10233	100.01
3.11900	100.02
3.13567	100.02
3.15233	100.02
3.16900	100.02
3.18567	100.01
3.20233	100.02
3.21900	100.02
3.23567	100.02
3.25233	100.03
3.26900	100.02
3.28567	100.03
3.30233	100.03
3.31900	100.03
3.33567	100.03
3.35233	100.03
3.36900	100.04
3.38567	100.03
3.40233	100.03
3.41900	100.04
3.43567	100.04
3.45233	100.03
3.46900	100.04
3.48567	100.04
3.50233	100.03
3.51900	100.04
3.53567	100.04
3.55233	100.04
3.56900	100.04
3.58567	100.04
3.60233	100.04
3.61900	100.04
3.63567	100.05
3.65233	100.04
3.66900	100.04
3.68567	100.04
3.70233	100.05
3.71900	100.04
3.73567	100.04
3.75233	100.05
3.76900	100.05
3.78567	100.05
3.80233	100.05
3.81900	100.04
3.83567	100.05
3.85233	100.05
3.86900	100.05
3.88567	100.05
3.90233	100.05
3.91900	100.05
3.93567	100.05
3.95233	100.05
3.96900	100.05
3.98567	100.05

[Status Trace (Carrier Gas Pressure)]
Interval(msec)	1000
# of Points	240
Start Time(min)	0.002
End Time(min)	3.986
Intensity Units	
Intensity Multiplier	1
R.Time (min)	Intensity
0.00233	58.00
0.01900	56.30
0.03567	56.31
0.05233	58.48
0.06900	59.89
0.08567	58.32
0.10233	57.97
0.11900	58.00
0.13567	58.01
0.15233	58.01
0.16900	58.00
0.18567	58.00
0.20233	58.00
0.21900	58.00
0.23567	58.00
0.25233	58.00
0.26900	58.00
0.28567	58.00
0.30233	58.00
0.31900	58.00
0.33567	58.00
0.35233	58.00
0.36900	58.00
0.38567	58.00
0.40233	58.00
0.41900	58.00
0.43567	58.00
0.45233	58.00
0.46900	58.00
0.48567	58.00
0.50233	58.00
0.51900	58.00
0.53567	58.00
0.55233	58.00
0.56900	58.00
0.58567	58.00
0.60233	58.00
0.61900	58.00
0.63567	58.00
0.65233	58.00
0.66900	58.00
0.68567	58.00
0.70233	58.00
0.71900	58.00
0.73567	58.00
0.75233	58.00
0.76900	58.00
0.78567	58.00
0.80233	58.00
0.81900	58.00
0.83567	58.00
0.85233	58.00
0.86900	58.00
0.88567	58.00
0.90233	58.00
0.91900	58.00
0.93567	58.00
0.95233	58.00
0.96900	58.00
0.98567	58.00
1.00233	58.00
1.01900	58.00
1.03567	58.00
1.05233	58.00
1.06900	58.00
1.08567	58.00
1.10233	58.00
1.11900	58.00
1.13567	58.00
1.15233	58.00
1.16900	58.00
1.18567	58.00
1.20233	58.00
1.21900	58.00
1.23567	58.00
1.25233	58.00
1.26900	58.00
1.28567	58.00
1.30233	58.00
1.31900	58.00
1.33567	58.00
1.35233	58.00
1.36900	58.00
1.38567	58.00
1.40233	58.00
1.41900	58.00
1.43567	58.00
1.45233	58.00
1.46900	58.00
1.48567	58.00
1.50233	58.00
1.51900	58.00
1.53567	58.00
1.55233	58.00
1.56900	58.00
1.58567	58.00
1.60233	58.00
1.61900	58.00
1.63567	58.00
1.65233	58.00
1.66900	58.01
1.68567	58.01
1.70233	58.00
1.71900	58.00
1.73567	58.00
1.75233	58.00
1.76900	58.00
1.78567	58.00
1.80233	58.00
1.81900	58.00
1.83567	58.00
1.85233	58.00
1.86900	58.00
1.88567	58.00
1.90233	58.00
1.91900	58.00
1.93567	58.00
1.95233	58.00
1.96900	58.00
1.98567	58.00
2.00233	58.00
2.01900	58.00
2.03567	58.00
2.05233	58.00
2.06900	58.00
2.08567	58.00
2.10233	58.00
2.11900	58.00
2.13567	58.00
2.15233	58.00
2.16900	58.00
2.18567	58.00
2.20233	58.00
2.21900	58.00
2.23567	58.00
2.25233	58.00
2.26900	58.00
2.28567	58.00
2.30233	58.00
2.31900	58.00
2.33567	58.00
2.35233	58.00
2.36900	58.00
2.38567	57.99
2.40233	57.99
2.41900	58.00
2.43567	58.00
2.45233	58.00
2.46900	58.00
2.48567	58.00
2.50233	57.99
2.51900	58.02
2.53567	57.99
2.55233	58.00
2.56900	58.00
2.58567	58.00
2.60233	58.00
2.61900	58.00
2.63567	58.00
2.65233	58.00
2.66900	58.00
2.68567	58.00
2.70233	58.00
2.71900	58.00
2.73567	58.00
2.75233	58.00
2.76900	58.00
2.78567	58.00
2.80233	58.00
2.81900	58.00
2.83567	58.00
2.85233	58.00
2.86900	58.00
2.88567	58.00
2.90233	58.00
2.91900	58.00
2.93567	58.00
2.95233	58.00
2.96900	58.00
2.98567	58.00
3.00233	58.00
3.01900	58.00
3.03567	58.00
3.05233	58.00
3.06900	58.00
3.08567	58.00
3.10233	58.00
3.11900	58.00
3.13567	58.00
3.15233	58.00
3.16900	58.00
3.18567	58.00
3.20233	58.00
3.21900	58.00
3.23567	58.00
3.25233	58.00
3.26900	58.00
3.28567	58.00
3.30233	58.00
3.31900	58.00
3.33567	58.00
3.35233	58.00
3.36900	58.00
3.38567	58.00
3.40233	58.00
3.41900	58.00
3.43567	58.00
3.45233	58.00
3.46900	58.00
3.48567	58.00
3.50233	58.00
3.51900	58.00
3.53567	58.00
3.55233	58.00
3.56900	58.00
3.58567	58.00
3.60233	58.00
3.61900	58.00
3.63567	58.00
3.65233	58.00
3.66900	58.00
3.68567	58.00
3.70233	58.00
3.71900	58.00
3.73567	58.00
3.75233	58.00
3.76900	58.00
3.78567	58.00
3.80233	58.00
3.81900	58.00
3.83567	58.00
3.85233	58.00
3.86900	58.00
3.88567	58.00
3.90233	58.00
3.91900	58.00
3.93567	58.00
3.95233	58.00
3.96900	58.00
3.98567	58.00

[Status Trace (Carrier Gas Flow)]
Interval(msec)	1000
# of Points	240
Start Time(min)	0.002
End Time(min)	3.986
Intensity Units	
Intensity Multiplier	1
R.Time (min)	Intensity
0.00233	34.51
0.01900	34.52
0.03567	34.54
0.05233	34.55
0.06900	34.49
0.08567	34.52
0.10233	34.52
0.11900	34.52
0.13567	34.52
0.15233	34.52
0.16900	34.52
0.18567	34.52
0.20233	34.52
0.21900	34.52
0.23567	34.52
0.25233	34.52
0.26900	34.52
0.28567	34.52
0.30233	34.52
0.31900	34.52
0.33567	34.51
0.35233	34.52
0.36900	34.52
0.38567	34.52
0.40233	34.52
0.41900	34.52
0.43567	34.53
0.45233	34.51
0.46900	34.51
0.48567	34.52
0.50233	34.52
0.51900	34.52
0.53567	34.52
0.55233	34.52
0.56900	34.51
0.58567	34.52
0.60233	34.52
0.61900	34.52
0.63567	34.51
0.65233	34.52
0.66900	34.52
0.68567	34.52
0.70233	34.52
0.71900	34.52
0.73567	34.52
0.75233	34.52
0.76900	34.52
0.78567	34.52
0.80233	34.51
0.81900	34.52
0.83567	34.52
0.85233	34.52
0.86900	34.52
0.88567	34.52
0.90233	34.52
0.91900	34.51
0.93567	34.52
0.95233	34.52
0.96900	34.51
0.98567	34.51
1.00233	34.52
1.01900	34.52
1.03567	34.52
1.05233	34.52
1.06900	34.52
1.08567	34.52
1.10233	34.52
1.11900	34.53
1.13567	34.52
1.15233	34.52
1.16900	34.51
1.18567	34.52
1.20233	34.52
1.21900	34.52
1.23567	34.52
1.25233	34.52
1.26900	34.52
1.28567	34.51
1.30233	34.52
1.31900	34.52
1.33567	34.51
1.35233	34.52
1.36900	34.52
1.38567	34.52
1.40233	34.52
1.41900	34.52
1.43567	34.52
1.45233	34.52
1.46900	34.52
1.48567	34.51
1.50233	34.51
1.51900	34.52
1.53567	34.52
1.55233	34.51
1.56900	34.52
1.58567	34.51
1.60233	34.52
1.61900	34.52
1.63567	34.52
1.65233	34.52
1.66900	34.52
1.68567	34.51
1.70233	34.52
1.71900	34.52
1.73567	34.51
1.75233	34.52
1.76900	34.52
1.78567	34.51
1.80233	34.52
1.81900	34.52
1.83567	34.52
1.85233	34.52
1.86900	34.52
1.88567	34.52
1.90233	34.52
1.91900	34.51
1.93567	34.53
1.95233	34.52
1.96900	34.51
1.98567	34.52
2.00233	34.52
2.01900	34.52
2.03567	34.52
2.05233	34.52
2.06900	34.51
2.08567	34.51
2.10233	34.52
2.11900	34.51
2.13567	34.52
2.15233	34.52
2.16900	34.51
2.18567	34.52
2.20233	34.52
2.21900	34.52
2.23567	34.52
2.25233	34.52
2.26900	34.53
2.28567	34.52
2.30233	34.52
2.31900	34.52
2.33567	34.52
2.35233	34.52
2.36900	34.51
2.38567	34.52
2.40233	34.52
2.41900	34.52
2.43567	34.52
2.45233	34.52
2.46900	34.51
2.48567	34.52
2.50233	34.55
2.51900	34.51
2.53567	34.52
2.55233	34.52
2.56900	34.52
2.58567	34.52
2.60233	34.52
2.61900	34.52
2.63567	34.52
2.65233	34.52
2.66900	34.52
2.68567	34.51
2.70233	34.53
2.71900	34.52
2.73567	34.52
2.75233	34.52
2.76900	34.51
2.78567	34.52
2.80233	34.52
2.81900	34.52
2.83567	34.51
2.85233	34.52
2.86900	34.52
2.88567	34.52
2.90233	34.52
2.91900	34.51
2.93567	34.52
2.95233	34.52
2.96900	34.52
2.98567	34.52
3.00233	34.51
3.01900	34.52
3.03567	34.53
3.05233	34.52
3.06900	34.52
3.08567	34.51
3.10233	34.52
3.11900	34.52
3.13567	34.52
3.15233	34.52
3.16900	34.52
3.18567	34.52
3.20233	34.52
3.21900	34.52
3.23567	34.52
3.25233	34.52
3.26900	34.52
3.28567	34.52
3.30233	34.52
3.31900	34.52
3.33567	34.52
3.35233	34.52
3.36900	34.52
3.38567	34.52
3.40233	34.52
3.41900	34.52
3.43567	34.52
3.45233	34.52
3.46900	34.52
3.48567	34.51
3.50233	34.52
3.51900	34.52
3.53567	34.52
3.55233	34.52
3.56900	34.52
3.58567	34.52
3.60233	34.52
3.61900	34.52
3.63567	34.52
3.65233	34.52
3.66900	34.52
3.68567	34.52
3.70233	34.52
3.71900	34.52
3.73567	34.52
3.75233	34.52
3.76900	34.52
3.78567	34.52
3.80233	34.52
3.81900	34.51
3.83567	34.52
3.85233	34.52
3.86900	34.52
3.88567	34.52
3.90233	34.52
3.91900	34.52
3.93567	34.52
3.95233	34.51
3.96900	34.52
3.98567	34.52

[Status Trace (Column Flow)]
Interval(msec)	1000
# of Points	240
Start Time(min)	0.002
End Time(min)	3.986
Intensity Units	
Intensity Multiplier	1
R.Time (min)	Intensity
0.00233	5.53
0.01900	5.33
0.03567	5.33
0.05233	5.58
0.06900	5.75
0.08567	5.57
0.10233	5.52
0.11900	5.53
0.13567	5.53
0.15233	5.53
0.16900	5.53
0.18567	5.53
0.20233	5.53
0.21900	5.53
0.23567	5.53
0.25233	5.53
0.26900	5.53
0.28567	5.53
0.30233	5.53
0.31900	5.53
0.33567	5.53
0.35233	5.53
0.36900	5.53
0.38567	5.53
0.40233	5.53
0.41900	5.53
0.43567	5.53
0.45233	5.53
0.46900	5.53
0.48567	5.53
0.50233	5.53
0.51900	5.53
0.53567	5.53
0.55233	5.53
0.56900	5.53
0.58567	5.53
0.60233	5.53
0.61900	5.53
0.63567	5.53
0.65233	5.53
0.66900	5.53
0.68567	5.53
0.70233	5.53
0.71900	5.53
0.73567	5.53
0.75233	5.53
0.76900	5.53
0.78567	5.53
0.80233	5.53
0.81900	5.53
0.83567	5.53
0.85233	5.53
0.86900	5.53
0.88567	5.53
0.90233	5.53
0.91900	5.53
0.93567	5.53
0.95233	5.53
0.96900	5.53
0.98567	5.53
1.00233	5.53
1.01900	5.53
1.03567	5.53
1.05233	5.53
1.06900	5.53
1.08567	5.53
1.10233	5.53
1.11900	5.53
1.13567	5.53
1.15233	5.53
1.16900	5.53
1.18567	5.53
1.20233	5.53
1.21900	5.53
1.23567	5.53
1.25233	5.53
1.26900	5.53
1.28567	5.53
1.30233	5.53
1.31900	5.53
1.33567	5.53
1.35233	5.53
1.36900	5.53
1.38567	5.53
1.40233	5.53
1.41900	5.53
1.43567	5.53
1.45233	5.53
1.46900	5.53
1.48567	5.53
1.50233	5.53
1.51900	5.53
1.53567	5.53
1.55233	5.53
1.56900	5.53
1.58567	5.53
1.60233	5.53
1.61900	5.53
1.63567	5.52
1.65233	5.51
1.66900	5.50
1.68567	5.49
1.70233	5.48
1.71900	5.47
1.73567	5.46
1.75233	5.45
1.76900	5.44
1.78567	5.43
1.80233	5.42
1.81900	5.41
1.83567	5.40
1.85233	5.39
1.86900	5.38
1.88567	5.37
1.90233	5.36
1.91900	5.35
1.93567	5.34
1.95233	5.33
1.96900	5.32
1.98567	5.31
2.00233	5.30
2.01900	5.29
2.03567	5.28
2.05233	5.27
2.06900	5.26
2.08567	5.25
2.10233	5.24
2.11900	5.23
2.13567	5.22
2.15233	5.21
2.16900	5.21
2.18567	5.20
2.20233	5.19
2.21900	5.18
2.23567	5.17
2.25233	5.16
2.26900	5.15
2.28567	5.14
2.30233	5.13
2.31900	5.12
2.33567	5.11
2.35233	5.10
2.36900	5.10
2.38567	5.09
2.40233	5.09
2.41900	5.09
2.43567	5.09
2.45233	5.09
2.46900	5.09
2.48567	5.09
2.50233	5.09
2.51900	5.09
2.53567	5.09
2.55233	5.09
2.56900	5.09
2.58567	5.09
2.60233	5.09
2.61900	5.09
2.63567	5.09
2.65233	5.09
2.66900	5.09
2.68567	5.09
2.70233	5.09
2.71900	5.09
2.73567	5.09
2.75233	5.09
2.76900	5.09
2.78567	5.09
2.80233	5.09
2.81900	5.09
2.83567	5.09
2.85233	5.09
2.86900	5.09
2.88567	5.09
2.90233	5.09
2.91900	5.09
2.93567	5.09
2.95233	5.09
2.96900	5.09
2.98567	5.09
3.00233	5.09
3.01900	5.08
3.03567	5.08
3.05233	5.08
3.06900	5.08
3.08567	5.08
3.10233	5.08
3.11900	5.08
3.13567	5.08
3.15233	5.08
3.16900	5.08
3.18567	5.08
3.20233	5.08
3.21900	5.08
3.23567	5.08
3.25233	5.09
3.26900	5.09
3.28567	5.09
3.30233	5.09
3.31900	5.09
3.33567	5.09
3.35233	5.09
3.36900	5.09
3.38567	5.09
3.40233	5.09
3.41900	5.09
3.43567	5.09
3.45233	5.09
3.46900	5.09
3.48567	5.09
3.50233	5.09
3.51900	5.09
3.53567	5.09
3.55233	5.09
3.56900	5.08
3.58567	5.08
3.60233	5.08
3.61900	5.08
3.63567	5.08
3.65233	5.08
3.66900	5.08
3.68567	5.08
3.70233	5.08
3.71900	5.08
3.73567	5.08
3.75233	5.08
3.76900	5.08
3.78567	5.08
3.80233	5.08
3.81900	5.08
3.83567	5.08
3.85233	5.08
3.86900	5.08
3.88567	5.08
3.90233	5.08
3.91900	5.08
3.93567	5.08
3.95233	5.08
3.96900	5.08
3.98567	5.08

[Status Trace (Linear Velocity)]
Interval(msec)	1000
# of Points	240
Start Time(min)	0.002
End Time(min)	3.986
Intensity Units	
Intensity Multiplier	1
R.Time (min)	Intensity
0.00233	39.01
0.01900	37.90
0.03567	37.90
0.05233	39.32
0.06900	40.25
0.08567	39.22
0.10233	38.99
0.11900	39.02
0.13567	39.02
0.15233	39.02
0.16900	39.02
0.18567	39.02
0.20233	39.02
0.21900	39.02
0.23567	39.02
0.25233	39.02
0.26900	39.02
0.28567	39.02
0.30233	39.02
0.31900	39.02
0.33567	39.02
0.35233	39.02
0.36900	39.02
0.38567	39.02
0.40233	39.02
0.41900	39.02
0.43567	39.02
0.45233	39.02
0.46900	39.02
0.48567	39.02
0.50233	39.02
0.51900	39.02
0.53567	39.02
0.55233	39.02
0.56900	39.02
0.58567	39.02
0.60233	39.02
0.61900	39.02
0.63567	39.02
0.65233	39.02
0.66900	39.02
0.68567	39.02
0.70233	39.02
0.71900	39.02
0.73567	39.02
0.75233	39.02
0.76900	39.02
0.78567	39.02
0.80233	39.02
0.81900	39.02
0.83567	39.02
0.85233	39.02
0.86900	39.02
0.88567	39.02
0.90233	39.02
0.91900	39.02
0.93567	39.02
0.95233	39.02
0.96900	39.02
0.98567	39.02
1.00233	39.02
1.01900	39.02
1.03567	39.02
1.05233	39.02
1.06900	39.02
1.08567	39.02
1.10233	39.02
1.11900	39.02
1.13567	39.02
1.15233	39.02
1.16900	39.02
1.18567	39.02
1.20233	39.02
1.21900	39.02
1.23567	39.02
1.25233	39.02
1.26900	39.02
1.28567	39.02
1.30233	39.02
1.31900	39.02
1.33567	39.02
1.35233	39.02
1.36900	39.02
1.38567	39.02
1.40233	39.02
1.41900	39.02
1.43567	39.02
1.45233	39.02
1.46900	39.02
1.48567	39.02
1.50233	39.02
1.51900	39.02
1.53567	39.02
1.55233	39.02
1.56900	39.02
1.58567	39.02
1.60233	39.02
1.61900	39.01
1.63567	38.99
1.65233	38.97
1.66900	38.94
1.68567	38.91
1.70233	38.87
1.71900	38.84
1.73567	38.80
1.75233	38.78
1.76900	38.74
1.78567	38.71
1.80233	38.68
1.81900	38.65
1.83567	38.62
1.85233	38.59
1.86900	38.55
1.88567	38.52
1.90233	38.49
1.91900	38.46
1.93567	38.43
1.95233	38.40
1.96900	38.37
1.98567	38.34
2.00233	38.31
2.01900	38.28
2.03567	38.25
2.05233	38.22
2.06900	38.19
2.08567	38.16
2.10233	38.13
2.11900	38.10
2.13567	38.07
2.15233	38.04
2.16900	38.01
2.18567	37.98
2.20233	37.96
2.21900	37.92
2.23567	37.89
2.25233	37.87
2.26900	37.84
2.28567	37.80
2.30233	37.78
2.31900	37.75
2.33567	37.72
2.35233	37.69
2.36900	37.67
2.38567	37.66
2.40233	37.65
2.41900	37.66
2.43567	37.66
2.45233	37.66
2.46900	37.65
2.48567	37.65
2.50233	37.65
2.51900	37.67
2.53567	37.65
2.55233	37.65
2.56900	37.65
2.58567	37.65
2.60233	37.65
2.61900	37.65
2.63567	37.65
2.65233	37.65
2.66900	37.65
2.68567	37.65
2.70233	37.64
2.71900	37.64
2.73567	37.65
2.75233	37.65
2.76900	37.65
2.78567	37.64
2.80233	37.64
2.81900	37.64
2.83567	37.64
2.85233	37.64
2.86900	37.64
2.88567	37.64
2.90233	37.64
2.91900	37.63
2.93567	37.63
2.95233	37.63
2.96900	37.63
2.98567	37.63
3.00233	37.63
3.01900	37.63
3.03567	37.63
3.05233	37.63
3.06900	37.63
3.08567	37.63
3.10233	37.63
3.11900	37.63
3.13567	37.63
3.15233	37.62
3.16900	37.62
3.18567	37.62
3.20233	37.63
3.21900	37.63
3.23567	37.63
3.25233	37.63
3.26900	37.63
3.28567	37.63
3.30233	37.63
3.31900	37.64
3.33567	37.64
3.35233	37.64
3.36900	37.63
3.38567	37.63
3.40233	37.63
3.41900	37.63
3.43567	37.63
3.45233	37.63
3.46900	37.63
3.48567	37.63
3.50233	37.63
3.51900	37.63
3.53567	37.63
3.55233	37.63
3.56900	37.63
3.58567	37.63
3.60233	37.63
3.61900	37.63
3.63567	37.63
3.65233	37.63
3.66900	37.63
3.68567	37.63
3.70233	37.63
3.71900	37.63
3.73567	37.63
3.75233	37.63
3.76900	37.63
3.78567	37.63
3.80233	37.63
3.81900	37.63
3.83567	37.63
3.85233	37.63
3.86900	37.63
3.88567	37.63
3.90233	37.63
3.91900	37.63
3.93567	37.63
3.95233	37.63
3.96900	37.63
3.98567	37.63

