[Header]
Application Name	LabSolutions
Version	5.110
Data File Name	C:\Users\User\Desktop\Junior\UIC Prairie Sampling\2023\8.18.23\081823_055.gcd
Output Date	8/31/2023
Output Time	12:48:10 PM

[File Information]
Type	Data File
Generated	8/30/2023 10:00:35 PM
Generated by	System Administrator
Modified	8/30/2023 10:06:54 PM
Modified by	System Administrator

[Sample Information]
Operator Name	System Administrator
Acquired	8/30/2023 10:02:52 PM
Sample Type	0:Unknown
Level	0
Sample Name	055
Sample ID	055
ISTD Amount1	1
ISTD Amount2	1
ISTD Amount3	1
ISTD Amount4	1
ISTD Amount5	1
ISTD Amount6	1
ISTD Amount7	1
ISTD Amount8	1
ISTD Amount9	1
ISTD Amount10	1
ISTD Amount11	1
ISTD Amount12	1
ISTD Amount13	1
ISTD Amount14	1
ISTD Amount15	1
ISTD Amount16	1
ISTD Amount17	1
ISTD Amount18	1
ISTD Amount19	1
ISTD Amount20	1
ISTD Amount21	1
ISTD Amount22	1
ISTD Amount23	1
ISTD Amount24	1
ISTD Amount25	1
ISTD Amount26	1
ISTD Amount27	1
ISTD Amount28	1
ISTD Amount29	1
ISTD Amount30	1
ISTD Amount31	1
ISTD Amount32	1
Sample Amount	1
Dilution Factor	1
Vial#	54
Injection Volume	1
Injection Count	1
Bar Code	

[Original Files]
Data File	C:\Users\User\Desktop\Junior\UIC Prairie Sampling\8.18.23\081823_055.gcd
Method File	C:\LabSolutions\Data\GHG_4min_2022\ghg3_togas_w_acet_4 min_new_int.gcm
Batch File	C:\LabSolutions\Data\BATCH FILES\081823.gcb
Report Format File	c:\LabSolutions\System\DEFAULT.lsr

[File Description]


[Configuration]
Instrument Name	C0B7VH3-Instrument1
Instrument #	1
Line #	1
# of Detectors	3
Detector ID	DET#1	DET#2	DET#3
Detector Name	FID	PTCD	ECD
# of Channels	1	1	1

[Peak Table(Ch1)]
# of Peaks	3
Peak#	R.Time	I.Time	F.Time	Area	Height	A/H	Conc.	Mark	ID#	Name	k'	Plate #	Plate Ht.	Tailing	Resolution	Sep.Factor	Area Ratio	Height Ratio	Conc. %	Norm Conc.
1	1.501	1.468	1.531	1286	438	2.937	0.000	   	1	CO	0.000	1770	84.736	0.000	0.000	0.000	0	0	0.000	0.000
2	1.564	1.531	1.688	5997	2486	2.413	29.237	 V 	2	CH4	0.042	9384	15.985	0.000	0.601	0.000	0	0	15.341	15.341
3	1.989	1.945	2.499	837211	396994	2.109	161.346	   	3	CO2	0.325	17563	8.541	1.337	6.827	7.824	0	0	84.659	84.659

[Peak Table(Ch2)]
# of Peaks	0

[Peak Table(Ch3)]
# of Peaks	5
Peak#	R.Time	I.Time	F.Time	Area	Height	A/H	Conc.	Mark	ID#	Name	k'	Plate #	Plate Ht.	Tailing	Resolution	Sep.Factor	Area Ratio	Height Ratio	Conc. %	Norm Conc.
1	2.458	2.392	2.510	943	328	2.877	0.000	   			0.000	12071	12.426	0.000	0.000	0.000	0	0	0.000	0.000
2	2.524	2.510	2.576	357	139	2.572	0.000	 V 			0.027	3819	39.281	0.000	0.522	0.000	0	0	0.000	0.000
3	2.627	2.576	2.708	469	117	4.017	0.000	 V 			0.069	8075	18.575	0.000	0.732	2.556	0	0	0.000	0.000
4	2.891	2.755	3.063	14665	3988	3.677	0.217	   	1	N2O	0.176	13919	10.776	1.493	2.456	2.565	0	0	100.000	100.000
5	3.335	3.258	3.965	16784	814	20.609	0.000	   			0.356	400	374.719	4.549	1.160	2.025	0	0	0.000	0.000

[Compound Results(Ch1)]
# of IDs	6
ID#	Name	R.Time	Area	Height	Conc.	Curve	3rd	2nd	1st	Constant	Area Ratio	Height Ratio	Conc. %	Norm Conc.
1	CO	1.501	1286	438	0.000	Linear	0.000000e+00	0.000000e+00	0.000000e+00	0.000000e+00	0	0	0.000	0.000
2	CH4	1.564	5997	2486	29.237	Linear	0.000000e+00	0.000000e+00	2.051179e+002	0.000000e+00	0	0	15.341	15.341
3	CO2	1.989	837211	396994	161.346	Linear	0.000000e+00	0.000000e+00	5.188919e+003	0.000000e+00	0	0	84.659	84.659
4	Ethylene	0.000	0	0	0.000	Linear	0.000000e+00	0.000000e+00	0.000000e+00	0.000000e+00	0	0	0.000	0.000
5	Acetylene	0.000	0	0	0.000	Linear	0.000000e+00	0.000000e+00	0.000000e+00	0.000000e+00	0	0	0.000	0.000
6	Ethane	0.000	0	0	0.000	Linear	0.000000e+00	0.000000e+00	0.000000e+00	0.000000e+00	0	0	0.000	0.000

[Compound Results(Ch2)]
# of IDs	5
ID#	Name	R.Time	Area	Height	Conc.	Curve	3rd	2nd	1st	Constant	Area Ratio	Height Ratio	Conc. %	Norm Conc.
1	Hydrogen	0.000	0	0	0.000	Linear	0.000000e+00	0.000000e+00	0.000000e+00	0.000000e+00	0	0	0.000	0.000
2	Oxygen	0.000	0	0	0.000	Linear	0.000000e+00	0.000000e+00	0.000000e+00	0.000000e+00	0	0	0.000	0.000
3	Nitrogen	0.000	0	0	0.000	Linear	0.000000e+00	0.000000e+00	0.000000e+00	0.000000e+00	0	0	0.000	0.000
4	Methane	0.000	0	0	0.000	Linear	0.000000e+00	0.000000e+00	0.000000e+00	0.000000e+00	0	0	0.000	0.000
5	Carbon Monoxide	0.000	0	0	0.000	Linear	0.000000e+00	0.000000e+00	0.000000e+00	0.000000e+00	0	0	0.000	0.000

[Compound Results(Ch3)]
# of IDs	2
ID#	Name	R.Time	Area	Height	Conc.	Curve	3rd	2nd	1st	Constant	Area Ratio	Height Ratio	Conc. %	Norm Conc.
1	N2O	2.891	14665	3988	0.217	Linear	0.000000e+00	0.000000e+00	6.759880e+004	0.000000e+00	0	0	100.000	100.000
2	SF6	0.000	0	0	0.000	Linear	0.000000e+00	0.000000e+00	0.000000e+00	0.000000e+00	0	0	0.000	0.000

[Group Results(Ch1)]
# of Groups	0

[Group Results(Ch2)]
# of Groups	0

[Group Results(Ch3)]
# of Groups	0

[Chromatogram (Ch1)]
Interval(msec)	220
# of Points	1091
Start Time(min)	0.002
End Time(min)	3.998
R.Time (min)	Intensity
0.00167	3
0.00533	4
0.00900	8
0.01267	11
0.01633	12
0.02000	10
0.02367	7
0.02733	7
0.03100	5
0.03467	3
0.03833	5
0.04200	9
0.04567	9
0.04933	7
0.05300	2
0.05667	3
0.06033	7
0.06400	12
0.06767	14
0.07133	13
0.07500	9
0.07867	3
0.08233	-3
0.08600	-6
0.08967	-8
0.09333	-6
0.09700	-0
0.10067	6
0.10433	7
0.10800	5
0.11167	3
0.11533	1
0.11900	-3
0.12267	-10
0.12633	-16
0.13000	-17
0.13367	-17
0.13733	-15
0.14100	-10
0.14467	-7
0.14833	-9
0.15200	-10
0.15567	-10
0.15933	-9
0.16300	-6
0.16667	-3
0.17033	3
0.17400	10
0.17767	14
0.18133	11
0.18500	6
0.18867	4
0.19233	5
0.19600	5
0.19967	3
0.20333	-1
0.20700	-3
0.21067	-4
0.21433	-7
0.21800	-9
0.22167	-8
0.22533	-5
0.22900	-3
0.23267	-0
0.23633	4
0.24000	8
0.24367	13
0.24733	16
0.25100	18
0.25467	16
0.25833	12
0.26200	5
0.26567	1
0.26933	-3
0.27300	-6
0.27667	-8
0.28033	-10
0.28400	-14
0.28767	-15
0.29133	-11
0.29500	-7
0.29867	-4
0.30233	-2
0.30600	-1
0.30967	0
0.31333	-0
0.31700	-5
0.32067	-13
0.32433	-21
0.32800	-26
0.33167	-29
0.33533	-27
0.33900	-26
0.34267	-25
0.34633	-24
0.35000	-22
0.35367	-20
0.35733	-14
0.36100	-3
0.36467	7
0.36833	11
0.37200	10
0.37567	6
0.37933	-2
0.38300	-8
0.38667	-15
0.39033	-18
0.39400	-18
0.39767	-21
0.40133	-26
0.40500	-27
0.40867	-26
0.41233	-22
0.41600	-16
0.41967	-12
0.42333	-10
0.42700	-8
0.43067	-7
0.43433	-3
0.43800	3
0.44167	5
0.44533	5
0.44900	1
0.45267	-0
0.45633	3
0.46000	6
0.46367	6
0.46733	4
0.47100	6
0.47467	7
0.47833	8
0.48200	6
0.48567	4
0.48933	3
0.49300	1
0.49667	1
0.50033	1
0.50400	-3
0.50767	-10
0.51133	-19
0.51500	-26
0.51867	-24
0.52233	-15
0.52600	-3
0.52967	9
0.53333	16
0.53700	19
0.54067	19
0.54433	16
0.54800	12
0.55167	11
0.55533	9
0.55900	3
0.56267	-5
0.56633	-12
0.57000	-14
0.57367	-12
0.57733	-9
0.58100	-6
0.58467	-1
0.58833	2
0.59200	3
0.59567	4
0.59933	6
0.60300	7
0.60667	8
0.61033	8
0.61400	5
0.61767	4
0.62133	4
0.62500	5
0.62867	4
0.63233	2
0.63600	1
0.63967	5
0.64333	12
0.64700	22
0.65067	27
0.65433	28
0.65800	29
0.66167	31
0.66533	30
0.66900	26
0.67267	20
0.67633	12
0.68000	6
0.68367	1
0.68733	-2
0.69100	-2
0.69467	0
0.69833	6
0.70200	9
0.70567	7
0.70933	-0
0.71300	-9
0.71667	-15
0.72033	-19
0.72400	-20
0.72767	-20
0.73133	-18
0.73500	-9
0.73867	5
0.74233	21
0.74600	33
0.74967	41
0.75333	43
0.75700	39
0.76067	28
0.76433	14
0.76800	1
0.77167	-9
0.77533	-15
0.77900	-18
0.78267	-20
0.78633	-23
0.79000	-25
0.79367	-27
0.79733	-30
0.80100	-32
0.80467	-30
0.80833	-23
0.81200	-20
0.81567	-22
0.81933	-25
0.82300	-24
0.82667	-18
0.83033	-9
0.83400	-3
0.83767	-3
0.84133	-5
0.84500	-8
0.84867	-7
0.85233	1
0.85600	11
0.85967	19
0.86333	21
0.86700	21
0.87067	17
0.87433	9
0.87800	-1
0.88167	-8
0.88533	-11
0.88900	-11
0.89267	-12
0.89633	-12
0.90000	-8
0.90367	-4
0.90733	-2
0.91100	-1
0.91467	-1
0.91833	-2
0.92200	-2
0.92567	-4
0.92933	-7
0.93300	-9
0.93667	-9
0.94033	-6
0.94400	-3
0.94767	1
0.95133	3
0.95500	3
0.95867	0
0.96233	-3
0.96600	-5
0.96967	-2
0.97333	6
0.97700	14
0.98067	16
0.98433	14
0.98800	11
0.99167	5
0.99533	-3
0.99900	-12
1.00267	-19
1.00633	-25
1.01000	-28
1.01367	-29
1.01733	-30
1.02100	-28
1.02467	-22
1.02833	-15
1.03200	-8
1.03567	-4
1.03933	-1
1.04300	3
1.04667	6
1.05033	7
1.05400	7
1.05767	6
1.06133	6
1.06500	6
1.06867	5
1.07233	4
1.07600	4
1.07967	3
1.08333	2
1.08700	0
1.09067	-2
1.09433	-6
1.09800	-8
1.10167	-7
1.10533	-4
1.10900	-2
1.11267	-3
1.11633	-5
1.12000	-3
1.12367	1
1.12733	3
1.13100	2
1.13467	-2
1.13833	-3
1.14200	-6
1.14567	-9
1.14933	-7
1.15300	-3
1.15667	-2
1.16033	-3
1.16400	-4
1.16767	-6
1.17133	-7
1.17500	-4
1.17867	5
1.18233	12
1.18600	13
1.18967	11
1.19333	10
1.19700	6
1.20067	-0
1.20433	-6
1.20800	-11
1.21167	-14
1.21533	-16
1.21900	-19
1.22267	-18
1.22633	-13
1.23000	-10
1.23367	-9
1.23733	-11
1.24100	-14
1.24467	-18
1.24833	-22
1.25200	-24
1.25567	-25
1.25933	-25
1.26300	-21
1.26667	-13
1.27033	-4
1.27400	0
1.27767	3
1.28133	4
1.28500	3
1.28867	-2
1.29233	-10
1.29600	-17
1.29967	-23
1.30333	-26
1.30700	-25
1.31067	-25
1.31433	-23
1.31800	-21
1.32167	-20
1.32533	-19
1.32900	-21
1.33267	-25
1.33633	-26
1.34000	-25
1.34367	-22
1.34733	-19
1.35100	-19
1.35467	-20
1.35833	-21
1.36200	-22
1.36567	-20
1.36933	-17
1.37300	-16
1.37667	-17
1.38033	-16
1.38400	-12
1.38767	-10
1.39133	-10
1.39500	-13
1.39867	-20
1.40233	-25
1.40600	-29
1.40967	-29
1.41333	-22
1.41700	-10
1.42067	6
1.42433	20
1.42800	29
1.43167	30
1.43533	31
1.43900	29
1.44267	-15
1.44633	-115
1.45000	-239
1.45367	-355
1.45733	-442
1.46100	-495
1.46467	-506
1.46833	-471
1.47200	-396
1.47567	-302
1.47933	-209
1.48300	-131
1.48667	-70
1.49033	-28
1.49400	-1
1.49767	18
1.50133	30
1.50500	37
1.50867	39
1.51233	37
1.51600	31
1.51967	23
1.52333	12
1.52700	1
1.53067	-1
1.53433	33
1.53800	157
1.54167	423
1.54533	816
1.54900	1254
1.55267	1654
1.55633	1962
1.56000	2155
1.56367	2198
1.56733	2070
1.57100	1791
1.57467	1432
1.57833	1071
1.58200	760
1.58567	521
1.58933	346
1.59300	219
1.59667	128
1.60033	68
1.60400	31
1.60767	12
1.61133	4
1.61500	0
1.61867	-4
1.62233	-11
1.62600	-14
1.62967	-14
1.63333	-14
1.63700	-13
1.64067	-17
1.64433	-21
1.64800	-18
1.65167	-11
1.65533	-8
1.65900	-9
1.66267	-13
1.66633	-20
1.67000	-30
1.67367	-37
1.67733	-43
1.68100	-47
1.68467	-48
1.68833	-48
1.69200	-45
1.69567	-39
1.69933	-32
1.70300	-26
1.70667	-20
1.71033	-16
1.71400	-15
1.71767	-17
1.72133	-18
1.72500	-19
1.72867	-22
1.73233	-25
1.73600	-23
1.73967	-20
1.74333	-18
1.74700	-17
1.75067	-19
1.75433	-20
1.75800	-20
1.76167	-20
1.76533	-22
1.76900	-26
1.77267	-29
1.77633	-31
1.78000	-28
1.78367	-22
1.78733	-22
1.79100	-28
1.79467	-34
1.79833	-38
1.80200	-38
1.80567	-38
1.80933	-40
1.81300	-43
1.81667	-42
1.82033	-39
1.82400	-35
1.82767	-31
1.83133	-28
1.83500	-28
1.83867	-26
1.84233	-27
1.84600	-30
1.84967	-36
1.85333	-39
1.85700	-41
1.86067	-39
1.86433	-34
1.86800	-30
1.87167	-27
1.87533	-22
1.87900	-18
1.88267	-17
1.88633	-18
1.89000	-19
1.89367	-17
1.89733	-14
1.90100	-15
1.90467	-22
1.90833	-29
1.91200	-35
1.91567	-38
1.91933	-38
1.92300	-36
1.92667	-33
1.93033	-31
1.93400	-30
1.93767	-34
1.94133	-36
1.94500	-28
1.94867	29
1.95233	333
1.95600	1761
1.95967	6925
1.96333	21056
1.96700	51038
1.97067	101392
1.97433	169447
1.97800	245211
1.98167	315723
1.98533	369130
1.98900	396985
1.99267	395428
1.99633	366157
2.00000	316477
2.00367	257033
2.00733	198053
2.01100	146465
2.01467	105212
2.01833	74271
2.02200	52081
2.02567	36634
2.02933	26077
2.03300	18927
2.03667	14091
2.04033	10800
2.04400	8537
2.04767	6957
2.05133	5832
2.05500	5011
2.05867	4388
2.06233	3903
2.06600	3516
2.06967	3199
2.07333	2938
2.07700	2721
2.08067	2533
2.08433	2369
2.08800	2224
2.09167	2096
2.09533	1981
2.09900	1881
2.10267	1791
2.10633	1709
2.11000	1637
2.11367	1572
2.11733	1514
2.12100	1457
2.12467	1398
2.12833	1340
2.13200	1291
2.13567	1246
2.13933	1203
2.14300	1160
2.14667	1118
2.15033	1075
2.15400	1029
2.15767	984
2.16133	942
2.16500	906
2.16867	878
2.17233	858
2.17600	839
2.17967	821
2.18333	804
2.18700	788
2.19067	772
2.19433	751
2.19800	728
2.20167	705
2.20533	683
2.20900	662
2.21267	643
2.21633	630
2.22000	619
2.22367	610
2.22733	600
2.23100	588
2.23467	578
2.23833	569
2.24200	560
2.24567	551
2.24933	540
2.25300	530
2.25667	519
2.26033	510
2.26400	505
2.26767	500
2.27133	495
2.27500	489
2.27867	478
2.28233	467
2.28600	456
2.28967	448
2.29333	440
2.29700	432
2.30067	425
2.30433	418
2.30800	409
2.31167	402
2.31533	396
2.31900	390
2.32267	384
2.32633	375
2.33000	366
2.33367	361
2.33733	357
2.34100	351
2.34467	347
2.34833	345
2.35200	344
2.35567	341
2.35933	334
2.36300	329
2.36667	321
2.37033	311
2.37400	302
2.37767	299
2.38133	300
2.38500	299
2.38867	299
2.39233	301
2.39600	301
2.39967	300
2.40333	296
2.40700	292
2.41067	289
2.41433	285
2.41800	278
2.42167	269
2.42533	262
2.42900	259
2.43267	260
2.43633	262
2.44000	264
2.44367	267
2.44733	269
2.45100	266
2.45467	258
2.45833	249
2.46200	242
2.46567	239
2.46933	238
2.47300	238
2.47667	237
2.48033	236
2.48400	234
2.48767	229
2.49133	220
2.49500	210
2.49867	202
2.50233	198
2.50600	193
2.50967	189
2.51333	186
2.51700	184
2.52067	186
2.52433	195
2.52800	205
2.53167	210
2.53533	211
2.53900	210
2.54267	208
2.54633	201
2.55000	193
2.55367	187
2.55733	181
2.56100	175
2.56467	171
2.56833	176
2.57200	188
2.57567	197
2.57933	198
2.58300	192
2.58667	181
2.59033	168
2.59400	155
2.59767	146
2.60133	141
2.60500	143
2.60867	148
2.61233	153
2.61600	157
2.61967	161
2.62333	166
2.62700	173
2.63067	178
2.63433	176
2.63800	172
2.64167	168
2.64533	166
2.64900	164
2.65267	161
2.65633	159
2.66000	157
2.66367	157
2.66733	156
2.67100	154
2.67467	151
2.67833	150
2.68200	152
2.68567	156
2.68933	163
2.69300	171
2.69667	176
2.70033	180
2.70400	186
2.70767	189
2.71133	188
2.71500	180
2.71867	170
2.72233	160
2.72600	154
2.72967	151
2.73333	148
2.73700	146
2.74067	145
2.74433	145
2.74800	142
2.75167	138
2.75533	138
2.75900	141
2.76267	146
2.76633	150
2.77000	154
2.77367	159
2.77733	164
2.78100	166
2.78467	166
2.78833	165
2.79200	163
2.79567	162
2.79933	158
2.80300	155
2.80667	156
2.81033	157
2.81400	158
2.81767	156
2.82133	155
2.82500	152
2.82867	148
2.83233	143
2.83600	139
2.83967	136
2.84333	137
2.84700	141
2.85067	143
2.85433	146
2.85800	152
2.86167	156
2.86533	156
2.86900	155
2.87267	155
2.87633	155
2.88000	153
2.88367	151
2.88733	151
2.89100	150
2.89467	150
2.89833	149
2.90200	149
2.90567	146
2.90933	143
2.91300	142
2.91667	146
2.92033	150
2.92400	152
2.92767	154
2.93133	158
2.93500	159
2.93867	159
2.94233	157
2.94600	154
2.94967	154
2.95333	153
2.95700	153
2.96067	153
2.96433	153
2.96800	154
2.97167	154
2.97533	157
2.97900	162
2.98267	163
2.98633	160
2.99000	158
2.99367	163
2.99733	172
3.00100	177
3.00467	176
3.00833	171
3.01200	166
3.01567	161
3.01933	155
3.02300	150
3.02667	148
3.03033	147
3.03400	148
3.03767	151
3.04133	158
3.04500	167
3.04867	178
3.05233	185
3.05600	185
3.05967	183
3.06333	179
3.06700	175
3.07067	172
3.07433	169
3.07800	167
3.08167	164
3.08533	162
3.08900	160
3.09267	157
3.09633	155
3.10000	154
3.10367	156
3.10733	157
3.11100	155
3.11467	150
3.11833	147
3.12200	147
3.12567	148
3.12933	149
3.13300	151
3.13667	157
3.14033	163
3.14400	165
3.14767	163
3.15133	157
3.15500	151
3.15867	146
3.16233	144
3.16600	145
3.16967	149
3.17333	157
3.17700	168
3.18067	175
3.18433	178
3.18800	176
3.19167	171
3.19533	164
3.19900	159
3.20267	158
3.20633	158
3.21000	153
3.21367	149
3.21733	152
3.22100	156
3.22467	156
3.22833	152
3.23200	151
3.23567	152
3.23933	154
3.24300	157
3.24667	158
3.25033	157
3.25400	160
3.25767	162
3.26133	164
3.26500	167
3.26867	171
3.27233	174
3.27600	172
3.27967	166
3.28333	160
3.28700	158
3.29067	160
3.29433	165
3.29800	168
3.30167	173
3.30533	176
3.30900	175
3.31267	171
3.31633	167
3.32000	164
3.32367	161
3.32733	157
3.33100	159
3.33467	164
3.33833	166
3.34200	164
3.34567	161
3.34933	158
3.35300	155
3.35667	155
3.36033	155
3.36400	157
3.36767	156
3.37133	151
3.37500	152
3.37867	158
3.38233	159
3.38600	152
3.38967	143
3.39333	136
3.39700	131
3.40067	130
3.40433	132
3.40800	135
3.41167	136
3.41533	137
3.41900	139
3.42267	141
3.42633	147
3.43000	156
3.43367	163
3.43733	169
3.44100	172
3.44467	171
3.44833	169
3.45200	168
3.45567	163
3.45933	162
3.46300	162
3.46667	161
3.47033	157
3.47400	154
3.47767	153
3.48133	155
3.48500	160
3.48867	165
3.49233	165
3.49600	161
3.49967	158
3.50333	157
3.50700	161
3.51067	163
3.51433	164
3.51800	161
3.52167	158
3.52533	157
3.52900	155
3.53267	156
3.53633	158
3.54000	159
3.54367	160
3.54733	162
3.55100	161
3.55467	160
3.55833	158
3.56200	160
3.56567	163
3.56933	163
3.57300	159
3.57667	151
3.58033	146
3.58400	146
3.58767	149
3.59133	150
3.59500	148
3.59867	147
3.60233	148
3.60600	147
3.60967	147
3.61333	148
3.61700	149
3.62067	152
3.62433	153
3.62800	152
3.63167	151
3.63533	151
3.63900	150
3.64267	148
3.64633	148
3.65000	146
3.65367	145
3.65733	144
3.66100	144
3.66467	147
3.66833	150
3.67200	152
3.67567	156
3.67933	159
3.68300	162
3.68667	163
3.69033	162
3.69400	160
3.69767	156
3.70133	147
3.70500	139
3.70867	135
3.71233	130
3.71600	125
3.71967	126
3.72333	132
3.72700	140
3.73067	147
3.73433	149
3.73800	150
3.74167	152
3.74533	157
3.74900	161
3.75267	158
3.75633	152
3.76000	145
3.76367	138
3.76733	134
3.77100	134
3.77467	137
3.77833	141
3.78200	144
3.78567	142
3.78933	136
3.79300	133
3.79667	134
3.80033	139
3.80400	145
3.80767	149
3.81133	151
3.81500	150
3.81867	145
3.82233	141
3.82600	139
3.82967	138
3.83333	137
3.83700	137
3.84067	134
3.84433	126
3.84800	118
3.85167	112
3.85533	110
3.85900	111
3.86267	114
3.86633	116
3.87000	117
3.87367	117
3.87733	119
3.88100	124
3.88467	131
3.88833	137
3.89200	136
3.89567	134
3.89933	131
3.90300	128
3.90667	127
3.91033	127
3.91400	128
3.91767	132
3.92133	134
3.92500	135
3.92867	136
3.93233	135
3.93600	136
3.93967	135
3.94333	132
3.94700	129
3.95067	127
3.95433	128
3.95800	129
3.96167	129
3.96533	129
3.96900	131
3.97267	135
3.97633	135
3.98000	131
3.98367	130
3.98733	128
3.99100	126
3.99467	124
3.99833	126

[Chromatogram (Ch2)]
Interval(msec)	220
# of Points	1091
Start Time(min)	0.002
End Time(min)	3.998
R.Time (min)	Intensity
0.00167	1
0.00533	1
0.00900	2
0.01267	2
0.01633	2
0.02000	2
0.02367	3
0.02733	3
0.03100	3
0.03467	3
0.03833	3
0.04200	3
0.04567	3
0.04933	3
0.05300	4
0.05667	4
0.06033	4
0.06400	4
0.06767	3
0.07133	3
0.07500	3
0.07867	3
0.08233	3
0.08600	4
0.08967	4
0.09333	4
0.09700	4
0.10067	5
0.10433	5
0.10800	5
0.11167	5
0.11533	5
0.11900	5
0.12267	4
0.12633	4
0.13000	4
0.13367	3
0.13733	3
0.14100	3
0.14467	3
0.14833	2
0.15200	2
0.15567	2
0.15933	2
0.16300	2
0.16667	2
0.17033	2
0.17400	2
0.17767	2
0.18133	2
0.18500	3
0.18867	3
0.19233	3
0.19600	3
0.19967	3
0.20333	3
0.20700	3
0.21067	3
0.21433	3
0.21800	3
0.22167	3
0.22533	3
0.22900	3
0.23267	3
0.23633	3
0.24000	3
0.24367	2
0.24733	2
0.25100	2
0.25467	2
0.25833	2
0.26200	1
0.26567	1
0.26933	1
0.27300	1
0.27667	1
0.28033	1
0.28400	1
0.28767	1
0.29133	1
0.29500	1
0.29867	1
0.30233	1
0.30600	1
0.30967	1
0.31333	1
0.31700	1
0.32067	1
0.32433	1
0.32800	1
0.33167	1
0.33533	1
0.33900	1
0.34267	1
0.34633	1
0.35000	1
0.35367	0
0.35733	0
0.36100	1
0.36467	1
0.36833	1
0.37200	1
0.37567	1
0.37933	2
0.38300	2
0.38667	2
0.39033	2
0.39400	2
0.39767	2
0.40133	2
0.40500	2
0.40867	2
0.41233	2
0.41600	2
0.41967	2
0.42333	2
0.42700	1
0.43067	1
0.43433	1
0.43800	1
0.44167	1
0.44533	1
0.44900	1
0.45267	1
0.45633	1
0.46000	1
0.46367	1
0.46733	1
0.47100	1
0.47467	1
0.47833	1
0.48200	1
0.48567	1
0.48933	1
0.49300	1
0.49667	1
0.50033	1
0.50400	1
0.50767	1
0.51133	1
0.51500	1
0.51867	1
0.52233	1
0.52600	1
0.52967	1
0.53333	1
0.53700	1
0.54067	1
0.54433	1
0.54800	1
0.55167	1
0.55533	1
0.55900	0
0.56267	0
0.56633	0
0.57000	-0
0.57367	-0
0.57733	-0
0.58100	-0
0.58467	-0
0.58833	-0
0.59200	0
0.59567	0
0.59933	0
0.60300	0
0.60667	-0
0.61033	-0
0.61400	-0
0.61767	-0
0.62133	-0
0.62500	-0
0.62867	-0
0.63233	-0
0.63600	0
0.63967	0
0.64333	0
0.64700	0
0.65067	0
0.65433	0
0.65800	0
0.66167	0
0.66533	0
0.66900	0
0.67267	0
0.67633	0
0.68000	-0
0.68367	-0
0.68733	-0
0.69100	-0
0.69467	-0
0.69833	-0
0.70200	-0
0.70567	-0
0.70933	-0
0.71300	-0
0.71667	-0
0.72033	-0
0.72400	-0
0.72767	-0
0.73133	-0
0.73500	-0
0.73867	-0
0.74233	-0
0.74600	-0
0.74967	-0
0.75333	-0
0.75700	-0
0.76067	-0
0.76433	-0
0.76800	-0
0.77167	-0
0.77533	-0
0.77900	-0
0.78267	-0
0.78633	-0
0.79000	0
0.79367	-0
0.79733	-0
0.80100	-0
0.80467	-0
0.80833	-0
0.81200	-0
0.81567	-0
0.81933	-0
0.82300	-0
0.82667	-0
0.83033	-0
0.83400	-0
0.83767	-0
0.84133	-0
0.84500	-0
0.84867	-1
0.85233	-1
0.85600	-1
0.85967	-1
0.86333	-1
0.86700	-1
0.87067	-0
0.87433	-0
0.87800	0
0.88167	0
0.88533	0
0.88900	-0
0.89267	-0
0.89633	-0
0.90000	-0
0.90367	-0
0.90733	-0
0.91100	0
0.91467	1
0.91833	1
0.92200	1
0.92567	1
0.92933	0
0.93300	0
0.93667	0
0.94033	-0
0.94400	-0
0.94767	-0
0.95133	-1
0.95500	-1
0.95867	-1
0.96233	-2
0.96600	-2
0.96967	-2
0.97333	-2
0.97700	-3
0.98067	-3
0.98433	-3
0.98800	-3
0.99167	-3
0.99533	-2
0.99900	-2
1.00267	-2
1.00633	-2
1.01000	-2
1.01367	-1
1.01733	-1
1.02100	-1
1.02467	-1
1.02833	-1
1.03200	-1
1.03567	-1
1.03933	-1
1.04300	-1
1.04667	-1
1.05033	-1
1.05400	-1
1.05767	-1
1.06133	-0
1.06500	-0
1.06867	-0
1.07233	0
1.07600	1
1.07967	1
1.08333	1
1.08700	1
1.09067	1
1.09433	1
1.09800	1
1.10167	1
1.10533	1
1.10900	1
1.11267	1
1.11633	0
1.12000	0
1.12367	0
1.12733	-0
1.13100	-0
1.13467	-1
1.13833	-1
1.14200	-1
1.14567	-1
1.14933	-1
1.15300	-1
1.15667	-1
1.16033	-0
1.16400	-0
1.16767	-1
1.17133	-1
1.17500	-1
1.17867	-0
1.18233	-0
1.18600	-0
1.18967	-0
1.19333	0
1.19700	0
1.20067	0
1.20433	1
1.20800	1
1.21167	0
1.21533	0
1.21900	-0
1.22267	-0
1.22633	-1
1.23000	-1
1.23367	-1
1.23733	-1
1.24100	-1
1.24467	-2
1.24833	-1
1.25200	-1
1.25567	-1
1.25933	-1
1.26300	-1
1.26667	-1
1.27033	-1
1.27400	-1
1.27767	-1
1.28133	-1
1.28500	-1
1.28867	-1
1.29233	-1
1.29600	-1
1.29967	-1
1.30333	-1
1.30700	-1
1.31067	-1
1.31433	-2
1.31800	-1
1.32167	-1
1.32533	-2
1.32900	-2
1.33267	-2
1.33633	-1
1.34000	-1
1.34367	-1
1.34733	-1
1.35100	-1
1.35467	-1
1.35833	-0
1.36200	-0
1.36567	-0
1.36933	-0
1.37300	-0
1.37667	-1
1.38033	-1
1.38400	-1
1.38767	-1
1.39133	-1
1.39500	-1
1.39867	-1
1.40233	-1
1.40600	-1
1.40967	-1
1.41333	-1
1.41700	-1
1.42067	-1
1.42433	-1
1.42800	-1
1.43167	-0
1.43533	-0
1.43900	-0
1.44267	-0
1.44633	-0
1.45000	-0
1.45367	-0
1.45733	-1
1.46100	-1
1.46467	-1
1.46833	-2
1.47200	-2
1.47567	-2
1.47933	-2
1.48300	-2
1.48667	-2
1.49033	-1
1.49400	-1
1.49767	-1
1.50133	-1
1.50500	-1
1.50867	-1
1.51233	-1
1.51600	-1
1.51967	-1
1.52333	-1
1.52700	-1
1.53067	-1
1.53433	-1
1.53800	-2
1.54167	-2
1.54533	-2
1.54900	-2
1.55267	-1
1.55633	-1
1.56000	-2
1.56367	-2
1.56733	-1
1.57100	-1
1.57467	-1
1.57833	-1
1.58200	-1
1.58567	-1
1.58933	-1
1.59300	-2
1.59667	-2
1.60033	-3
1.60400	-4
1.60767	-6
1.61133	-8
1.61500	-10
1.61867	-12
1.62233	-15
1.62600	-17
1.62967	-20
1.63333	-23
1.63700	-26
1.64067	-29
1.64433	-33
1.64800	-36
1.65167	-40
1.65533	-43
1.65900	-47
1.66267	-51
1.66633	-55
1.67000	-59
1.67367	-63
1.67733	-68
1.68100	-72
1.68467	-76
1.68833	-80
1.69200	-83
1.69567	-85
1.69933	-88
1.70300	-90
1.70667	-91
1.71033	-92
1.71400	-93
1.71767	-94
1.72133	-95
1.72500	-95
1.72867	-96
1.73233	-96
1.73600	-96
1.73967	-96
1.74333	-96
1.74700	-95
1.75067	-95
1.75433	-94
1.75800	-94
1.76167	-94
1.76533	-94
1.76900	-94
1.77267	-95
1.77633	-95
1.78000	-96
1.78367	-97
1.78733	-98
1.79100	-99
1.79467	-99
1.79833	-100
1.80200	-100
1.80567	-100
1.80933	-100
1.81300	-100
1.81667	-100
1.82033	-100
1.82400	-99
1.82767	-98
1.83133	-97
1.83500	-97
1.83867	-97
1.84233	-97
1.84600	-98
1.84967	-99
1.85333	-100
1.85700	-100
1.86067	-101
1.86433	-101
1.86800	-101
1.87167	-100
1.87533	-99
1.87900	-98
1.88267	-98
1.88633	-97
1.89000	-97
1.89367	-97
1.89733	-97
1.90100	-98
1.90467	-98
1.90833	-98
1.91200	-98
1.91567	-98
1.91933	-98
1.92300	-98
1.92667	-97
1.93033	-97
1.93400	-96
1.93767	-96
1.94133	-95
1.94500	-95
1.94867	-95
1.95233	-95
1.95600	-95
1.95967	-95
1.96333	-95
1.96700	-95
1.97067	-95
1.97433	-95
1.97800	-94
1.98167	-94
1.98533	-94
1.98900	-94
1.99267	-93
1.99633	-93
2.00000	-92
2.00367	-91
2.00733	-91
2.01100	-91
2.01467	-91
2.01833	-91
2.02200	-90
2.02567	-90
2.02933	-90
2.03300	-90
2.03667	-89
2.04033	-89
2.04400	-89
2.04767	-89
2.05133	-88
2.05500	-88
2.05867	-88
2.06233	-88
2.06600	-87
2.06967	-87
2.07333	-86
2.07700	-85
2.08067	-84
2.08433	-84
2.08800	-83
2.09167	-83
2.09533	-83
2.09900	-84
2.10267	-84
2.10633	-84
2.11000	-84
2.11367	-84
2.11733	-84
2.12100	-84
2.12467	-84
2.12833	-83
2.13200	-83
2.13567	-82
2.13933	-82
2.14300	-82
2.14667	-82
2.15033	-81
2.15400	-81
2.15767	-80
2.16133	-80
2.16500	-79
2.16867	-79
2.17233	-78
2.17600	-78
2.17967	-77
2.18333	-77
2.18700	-77
2.19067	-77
2.19433	-77
2.19800	-77
2.20167	-77
2.20533	-77
2.20900	-76
2.21267	-76
2.21633	-76
2.22000	-76
2.22367	-76
2.22733	-75
2.23100	-74
2.23467	-73
2.23833	-73
2.24200	-72
2.24567	-72
2.24933	-72
2.25300	-72
2.25667	-72
2.26033	-72
2.26400	-72
2.26767	-72
2.27133	-71
2.27500	-71
2.27867	-71
2.28233	-70
2.28600	-70
2.28967	-69
2.29333	-69
2.29700	-68
2.30067	-68
2.30433	-68
2.30800	-67
2.31167	-67
2.31533	-67
2.31900	-67
2.32267	-67
2.32633	-67
2.33000	-67
2.33367	-67
2.33733	-67
2.34100	-66
2.34467	-65
2.34833	-64
2.35200	-63
2.35567	-61
2.35933	-60
2.36300	-58
2.36667	-56
2.37033	-54
2.37400	-51
2.37767	-48
2.38133	-45
2.38500	-41
2.38867	-37
2.39233	-33
2.39600	-29
2.39967	-26
2.40333	-22
2.40700	-19
2.41067	-15
2.41433	-12
2.41800	-10
2.42167	-7
2.42533	-5
2.42900	-3
2.43267	-1
2.43633	1
2.44000	2
2.44367	4
2.44733	5
2.45100	7
2.45467	8
2.45833	9
2.46200	10
2.46567	11
2.46933	11
2.47300	12
2.47667	13
2.48033	14
2.48400	15
2.48767	16
2.49133	17
2.49500	17
2.49867	17
2.50233	17
2.50600	17
2.50967	17
2.51333	17
2.51700	17
2.52067	18
2.52433	18
2.52800	18
2.53167	18
2.53533	18
2.53900	18
2.54267	17
2.54633	17
2.55000	16
2.55367	16
2.55733	16
2.56100	15
2.56467	14
2.56833	14
2.57200	14
2.57567	13
2.57933	13
2.58300	14
2.58667	14
2.59033	15
2.59400	16
2.59767	16
2.60133	17
2.60500	17
2.60867	17
2.61233	17
2.61600	17
2.61967	17
2.62333	17
2.62700	17
2.63067	17
2.63433	18
2.63800	18
2.64167	19
2.64533	20
2.64900	20
2.65267	21
2.65633	21
2.66000	22
2.66367	23
2.66733	23
2.67100	24
2.67467	24
2.67833	24
2.68200	23
2.68567	23
2.68933	23
2.69300	23
2.69667	23
2.70033	23
2.70400	24
2.70767	24
2.71133	25
2.71500	26
2.71867	26
2.72233	27
2.72600	27
2.72967	28
2.73333	28
2.73700	29
2.74067	29
2.74433	29
2.74800	30
2.75167	30
2.75533	30
2.75900	30
2.76267	30
2.76633	30
2.77000	30
2.77367	31
2.77733	31
2.78100	31
2.78467	31
2.78833	31
2.79200	31
2.79567	30
2.79933	30
2.80300	29
2.80667	29
2.81033	29
2.81400	28
2.81767	28
2.82133	28
2.82500	27
2.82867	27
2.83233	27
2.83600	26
2.83967	26
2.84333	26
2.84700	26
2.85067	26
2.85433	26
2.85800	24
2.86167	21
2.86533	16
2.86900	7
2.87267	-5
2.87633	-22
2.88000	-44
2.88367	-71
2.88733	-104
2.89100	-142
2.89467	-186
2.89833	-234
2.90200	-287
2.90567	-344
2.90933	-403
2.91300	-466
2.91667	-530
2.92033	-595
2.92400	-659
2.92767	-724
2.93133	-785
2.93500	-844
2.93867	-900
2.94233	-954
2.94600	-1009
2.94967	-1062
2.95333	-1103
2.95700	-1125
2.96067	-1121
2.96433	-1093
2.96800	-1043
2.97167	-977
2.97533	-901
2.97900	-820
2.98267	-738
2.98633	-657
2.99000	-580
2.99367	-509
2.99733	-443
3.00100	-384
3.00467	-331
3.00833	-284
3.01200	-242
3.01567	-206
3.01933	-174
3.02300	-147
3.02667	-123
3.03033	-103
3.03400	-85
3.03767	-70
3.04133	-57
3.04500	-46
3.04867	-37
3.05233	-29
3.05600	-22
3.05967	-16
3.06333	-11
3.06700	-7
3.07067	-3
3.07433	-0
3.07800	2
3.08167	5
3.08533	7
3.08900	9
3.09267	10
3.09633	11
3.10000	12
3.10367	13
3.10733	14
3.11100	15
3.11467	16
3.11833	17
3.12200	17
3.12567	18
3.12933	19
3.13300	19
3.13667	19
3.14033	19
3.14400	20
3.14767	20
3.15133	21
3.15500	21
3.15867	21
3.16233	21
3.16600	22
3.16967	22
3.17333	22
3.17700	23
3.18067	23
3.18433	23
3.18800	23
3.19167	23
3.19533	23
3.19900	23
3.20267	23
3.20633	23
3.21000	24
3.21367	24
3.21733	24
3.22100	25
3.22467	25
3.22833	25
3.23200	26
3.23567	26
3.23933	26
3.24300	26
3.24667	26
3.25033	26
3.25400	26
3.25767	26
3.26133	26
3.26500	27
3.26867	27
3.27233	27
3.27600	27
3.27967	27
3.28333	27
3.28700	27
3.29067	27
3.29433	28
3.29800	28
3.30167	28
3.30533	28
3.30900	28
3.31267	28
3.31633	28
3.32000	28
3.32367	28
3.32733	28
3.33100	28
3.33467	28
3.33833	28
3.34200	28
3.34567	28
3.34933	28
3.35300	28
3.35667	28
3.36033	28
3.36400	29
3.36767	29
3.37133	29
3.37500	29
3.37867	29
3.38233	29
3.38600	30
3.38967	30
3.39333	30
3.39700	30
3.40067	30
3.40433	31
3.40800	31
3.41167	31
3.41533	31
3.41900	31
3.42267	31
3.42633	31
3.43000	31
3.43367	31
3.43733	31
3.44100	31
3.44467	31
3.44833	31
3.45200	31
3.45567	31
3.45933	31
3.46300	31
3.46667	31
3.47033	31
3.47400	31
3.47767	31
3.48133	31
3.48500	31
3.48867	31
3.49233	31
3.49600	31
3.49967	31
3.50333	31
3.50700	31
3.51067	31
3.51433	31
3.51800	31
3.52167	31
3.52533	30
3.52900	30
3.53267	30
3.53633	30
3.54000	30
3.54367	30
3.54733	29
3.55100	29
3.55467	29
3.55833	29
3.56200	30
3.56567	30
3.56933	30
3.57300	30
3.57667	30
3.58033	30
3.58400	30
3.58767	30
3.59133	30
3.59500	30
3.59867	30
3.60233	31
3.60600	31
3.60967	31
3.61333	31
3.61700	31
3.62067	30
3.62433	30
3.62800	30
3.63167	30
3.63533	30
3.63900	30
3.64267	30
3.64633	30
3.65000	30
3.65367	30
3.65733	30
3.66100	30
3.66467	30
3.66833	30
3.67200	30
3.67567	30
3.67933	30
3.68300	30
3.68667	30
3.69033	30
3.69400	30
3.69767	30
3.70133	30
3.70500	30
3.70867	30
3.71233	30
3.71600	30
3.71967	30
3.72333	30
3.72700	31
3.73067	31
3.73433	31
3.73800	31
3.74167	31
3.74533	31
3.74900	31
3.75267	31
3.75633	31
3.76000	31
3.76367	31
3.76733	31
3.77100	31
3.77467	31
3.77833	31
3.78200	30
3.78567	31
3.78933	31
3.79300	31
3.79667	31
3.80033	30
3.80400	30
3.80767	30
3.81133	30
3.81500	30
3.81867	30
3.82233	30
3.82600	31
3.82967	31
3.83333	31
3.83700	31
3.84067	31
3.84433	31
3.84800	30
3.85167	30
3.85533	30
3.85900	30
3.86267	30
3.86633	30
3.87000	30
3.87367	30
3.87733	30
3.88100	30
3.88467	30
3.88833	30
3.89200	30
3.89567	30
3.89933	30
3.90300	30
3.90667	30
3.91033	30
3.91400	30
3.91767	30
3.92133	30
3.92500	30
3.92867	31
3.93233	31
3.93600	31
3.93967	31
3.94333	31
3.94700	31
3.95067	31
3.95433	31
3.95800	32
3.96167	32
3.96533	32
3.96900	32
3.97267	32
3.97633	32
3.98000	32
3.98367	32
3.98733	31
3.99100	31
3.99467	31
3.99833	31

[Chromatogram (Ch3)]
Interval(msec)	220
# of Points	1091
Start Time(min)	0.002
End Time(min)	3.998
R.Time (min)	Intensity
0.00167	1
0.00533	4
0.00900	5
0.01267	3
0.01633	2
0.02000	2
0.02367	3
0.02733	5
0.03100	4
0.03467	-0
0.03833	-3
0.04200	-3
0.04567	-2
0.04933	-0
0.05300	-2
0.05667	-2
0.06033	-2
0.06400	-2
0.06767	-3
0.07133	-2
0.07500	-2
0.07867	1
0.08233	1
0.08600	-0
0.08967	-2
0.09333	-2
0.09700	-0
0.10067	2
0.10433	3
0.10800	3
0.11167	3
0.11533	3
0.11900	4
0.12267	2
0.12633	-2
0.13000	-6
0.13367	-6
0.13733	-5
0.14100	-6
0.14467	-6
0.14833	-5
0.15200	-0
0.15567	2
0.15933	3
0.16300	2
0.16667	1
0.17033	1
0.17400	2
0.17767	3
0.18133	2
0.18500	2
0.18867	4
0.19233	5
0.19600	5
0.19967	2
0.20333	-1
0.20700	-1
0.21067	1
0.21433	3
0.21800	4
0.22167	2
0.22533	1
0.22900	1
0.23267	2
0.23633	2
0.24000	2
0.24367	2
0.24733	2
0.25100	3
0.25467	2
0.25833	1
0.26200	-0
0.26567	-2
0.26933	-4
0.27300	-3
0.27667	-2
0.28033	-3
0.28400	-5
0.28767	-5
0.29133	-4
0.29500	-4
0.29867	-5
0.30233	-3
0.30600	-2
0.30967	-3
0.31333	-3
0.31700	-4
0.32067	-3
0.32433	-2
0.32800	-0
0.33167	-0
0.33533	-2
0.33900	-3
0.34267	-1
0.34633	-1
0.35000	-2
0.35367	-3
0.35733	-2
0.36100	-1
0.36467	2
0.36833	4
0.37200	3
0.37567	2
0.37933	3
0.38300	6
0.38667	8
0.39033	9
0.39400	6
0.39767	3
0.40133	2
0.40500	2
0.40867	1
0.41233	-0
0.41600	-0
0.41967	0
0.42333	0
0.42700	2
0.43067	4
0.43433	5
0.43800	3
0.44167	1
0.44533	0
0.44900	-1
0.45267	-3
0.45633	-4
0.46000	-1
0.46367	1
0.46733	3
0.47100	1
0.47467	-1
0.47833	-1
0.48200	-1
0.48567	0
0.48933	-1
0.49300	-4
0.49667	-3
0.50033	-1
0.50400	1
0.50767	1
0.51133	1
0.51500	1
0.51867	1
0.52233	2
0.52600	1
0.52967	-0
0.53333	-0
0.53700	-0
0.54067	-0
0.54433	2
0.54800	5
0.55167	7
0.55533	6
0.55900	6
0.56267	5
0.56633	5
0.57000	4
0.57367	2
0.57733	1
0.58100	1
0.58467	2
0.58833	0
0.59200	-0
0.59567	1
0.59933	1
0.60300	1
0.60667	3
0.61033	5
0.61400	5
0.61767	5
0.62133	4
0.62500	4
0.62867	5
0.63233	5
0.63600	4
0.63967	3
0.64333	4
0.64700	6
0.65067	6
0.65433	4
0.65800	2
0.66167	0
0.66533	-1
0.66900	1
0.67267	4
0.67633	6
0.68000	5
0.68367	3
0.68733	2
0.69100	3
0.69467	3
0.69833	5
0.70200	5
0.70567	3
0.70933	3
0.71300	4
0.71667	6
0.72033	7
0.72400	10
0.72767	11
0.73133	8
0.73500	5
0.73867	5
0.74233	7
0.74600	7
0.74967	5
0.75333	3
0.75700	2
0.76067	3
0.76433	4
0.76800	4
0.77167	3
0.77533	2
0.77900	3
0.78267	3
0.78633	3
0.79000	2
0.79367	1
0.79733	-1
0.80100	0
0.80467	0
0.80833	1
0.81200	1
0.81567	-1
0.81933	-1
0.82300	-1
0.82667	-0
0.83033	3
0.83400	5
0.83767	5
0.84133	5
0.84500	6
0.84867	9
0.85233	8
0.85600	8
0.85967	7
0.86333	7
0.86700	6
0.87067	7
0.87433	9
0.87800	11
0.88167	11
0.88533	9
0.88900	7
0.89267	7
0.89633	7
0.90000	8
0.90367	9
0.90733	10
0.91100	10
0.91467	10
0.91833	8
0.92200	8
0.92567	9
0.92933	6
0.93300	3
0.93667	0
0.94033	0
0.94400	2
0.94767	4
0.95133	4
0.95500	6
0.95867	7
0.96233	7
0.96600	7
0.96967	7
0.97333	7
0.97700	7
0.98067	8
0.98433	11
0.98800	11
0.99167	10
0.99533	10
0.99900	11
1.00267	11
1.00633	10
1.01000	7
1.01367	7
1.01733	7
1.02100	7
1.02467	5
1.02833	4
1.03200	5
1.03567	4
1.03933	4
1.04300	5
1.04667	6
1.05033	7
1.05400	10
1.05767	10
1.06133	11
1.06500	9
1.06867	7
1.07233	6
1.07600	5
1.07967	7
1.08333	12
1.08700	14
1.09067	12
1.09433	10
1.09800	7
1.10167	5
1.10533	3
1.10900	4
1.11267	8
1.11633	9
1.12000	10
1.12367	9
1.12733	8
1.13100	6
1.13467	7
1.13833	7
1.14200	6
1.14567	3
1.14933	3
1.15300	5
1.15667	8
1.16033	10
1.16400	9
1.16767	7
1.17133	4
1.17500	3
1.17867	4
1.18233	6
1.18600	7
1.18967	9
1.19333	10
1.19700	9
1.20067	7
1.20433	7
1.20800	10
1.21167	13
1.21533	14
1.21900	17
1.22267	19
1.22633	17
1.23000	15
1.23367	12
1.23733	9
1.24100	7
1.24467	9
1.24833	8
1.25200	7
1.25567	5
1.25933	5
1.26300	7
1.26667	8
1.27033	9
1.27400	10
1.27767	11
1.28133	10
1.28500	7
1.28867	5
1.29233	7
1.29600	9
1.29967	12
1.30333	15
1.30700	16
1.31067	16
1.31433	15
1.31800	11
1.32167	8
1.32533	8
1.32900	11
1.33267	12
1.33633	12
1.34000	11
1.34367	7
1.34733	3
1.35100	2
1.35467	3
1.35833	5
1.36200	5
1.36567	3
1.36933	4
1.37300	5
1.37667	5
1.38033	3
1.38400	2
1.38767	3
1.39133	2
1.39500	2
1.39867	3
1.40233	4
1.40600	4
1.40967	3
1.41333	5
1.41700	6
1.42067	8
1.42433	9
1.42800	9
1.43167	7
1.43533	5
1.43900	4
1.44267	3
1.44633	3
1.45000	2
1.45367	4
1.45733	5
1.46100	3
1.46467	2
1.46833	3
1.47200	3
1.47567	3
1.47933	5
1.48300	6
1.48667	8
1.49033	10
1.49400	10
1.49767	8
1.50133	5
1.50500	6
1.50867	8
1.51233	9
1.51600	11
1.51967	13
1.52333	11
1.52700	8
1.53067	7
1.53433	7
1.53800	9
1.54167	10
1.54533	11
1.54900	12
1.55267	13
1.55633	13
1.56000	11
1.56367	7
1.56733	6
1.57100	8
1.57467	10
1.57833	10
1.58200	9
1.58567	6
1.58933	4
1.59300	4
1.59667	7
1.60033	9
1.60400	6
1.60767	4
1.61133	4
1.61500	5
1.61867	5
1.62233	6
1.62600	7
1.62967	6
1.63333	5
1.63700	5
1.64067	7
1.64433	8
1.64800	7
1.65167	6
1.65533	7
1.65900	8
1.66267	8
1.66633	8
1.67000	10
1.67367	12
1.67733	12
1.68100	12
1.68467	9
1.68833	9
1.69200	10
1.69567	11
1.69933	10
1.70300	10
1.70667	11
1.71033	11
1.71400	10
1.71767	8
1.72133	8
1.72500	10
1.72867	11
1.73233	12
1.73600	13
1.73967	11
1.74333	9
1.74700	9
1.75067	10
1.75433	10
1.75800	11
1.76167	12
1.76533	14
1.76900	15
1.77267	17
1.77633	18
1.78000	17
1.78367	14
1.78733	13
1.79100	14
1.79467	15
1.79833	17
1.80200	18
1.80567	19
1.80933	19
1.81300	20
1.81667	19
1.82033	16
1.82400	13
1.82767	12
1.83133	12
1.83500	13
1.83867	16
1.84233	19
1.84600	22
1.84967	24
1.85333	26
1.85700	27
1.86067	29
1.86433	31
1.86800	33
1.87167	32
1.87533	33
1.87900	36
1.88267	36
1.88633	35
1.89000	31
1.89367	26
1.89733	24
1.90100	22
1.90467	23
1.90833	24
1.91200	26
1.91567	28
1.91933	29
1.92300	30
1.92667	30
1.93033	29
1.93400	27
1.93767	26
1.94133	25
1.94500	23
1.94867	22
1.95233	22
1.95600	21
1.95967	23
1.96333	24
1.96700	24
1.97067	27
1.97433	30
1.97800	33
1.98167	35
1.98533	32
1.98900	29
1.99267	27
1.99633	27
2.00000	28
2.00367	30
2.00733	30
2.01100	32
2.01467	33
2.01833	32
2.02200	34
2.02567	35
2.02933	37
2.03300	38
2.03667	41
2.04033	43
2.04400	42
2.04767	43
2.05133	42
2.05500	42
2.05867	42
2.06233	42
2.06600	42
2.06967	43
2.07333	45
2.07700	46
2.08067	46
2.08433	47
2.08800	49
2.09167	50
2.09533	52
2.09900	55
2.10267	55
2.10633	54
2.11000	52
2.11367	54
2.11733	56
2.12100	59
2.12467	60
2.12833	59
2.13200	58
2.13567	58
2.13933	60
2.14300	62
2.14667	62
2.15033	62
2.15400	61
2.15767	62
2.16133	62
2.16500	63
2.16867	65
2.17233	67
2.17600	70
2.17967	71
2.18333	71
2.18700	71
2.19067	71
2.19433	72
2.19800	72
2.20167	72
2.20533	69
2.20900	70
2.21267	73
2.21633	75
2.22000	74
2.22367	76
2.22733	77
2.23100	77
2.23467	77
2.23833	79
2.24200	80
2.24567	81
2.24933	80
2.25300	78
2.25667	79
2.26033	81
2.26400	83
2.26767	84
2.27133	85
2.27500	87
2.27867	91
2.28233	95
2.28600	96
2.28967	95
2.29333	96
2.29700	97
2.30067	98
2.30433	98
2.30800	98
2.31167	98
2.31533	100
2.31900	101
2.32267	102
2.32633	103
2.33000	103
2.33367	103
2.33733	104
2.34100	103
2.34467	102
2.34833	99
2.35200	97
2.35567	97
2.35933	99
2.36300	99
2.36667	99
2.37033	99
2.37400	101
2.37767	100
2.38133	97
2.38500	96
2.38867	94
2.39233	93
2.39600	98
2.39967	105
2.40333	112
2.40700	117
2.41067	120
2.41433	121
2.41800	122
2.42167	122
2.42533	121
2.42900	119
2.43267	116
2.43633	116
2.44000	122
2.44367	170
2.44733	258
2.45100	336
2.45467	390
2.45833	413
2.46200	406
2.46567	385
2.46933	363
2.47300	345
2.47667	331
2.48033	316
2.48400	296
2.48767	273
2.49133	250
2.49500	231
2.49867	215
2.50233	205
2.50600	200
2.50967	200
2.51333	204
2.51700	208
2.52067	212
2.52433	216
2.52800	214
2.53167	206
2.53533	194
2.53900	179
2.54267	165
2.54633	153
2.55000	143
2.55367	133
2.55733	125
2.56100	119
2.56467	115
2.56833	113
2.57200	112
2.57567	110
2.57933	112
2.58300	115
2.58667	119
2.59033	124
2.59400	128
2.59767	134
2.60133	141
2.60500	150
2.60867	160
2.61233	169
2.61600	175
2.61967	179
2.62333	181
2.62700	181
2.63067	179
2.63433	174
2.63800	166
2.64167	158
2.64533	151
2.64900	141
2.65267	132
2.65633	124
2.66000	114
2.66367	107
2.66733	98
2.67100	88
2.67467	81
2.67833	76
2.68200	73
2.68567	69
2.68933	64
2.69300	61
2.69667	60
2.70033	59
2.70400	57
2.70767	54
2.71133	51
2.71500	51
2.71867	53
2.72233	53
2.72600	51
2.72967	51
2.73333	51
2.73700	50
2.74067	49
2.74433	49
2.74800	50
2.75167	51
2.75533	51
2.75900	55
2.76267	59
2.76633	61
2.77000	60
2.77367	59
2.77733	59
2.78100	60
2.78467	63
2.78833	65
2.79200	68
2.79567	70
2.79933	73
2.80300	75
2.80667	79
2.81033	83
2.81400	86
2.81767	86
2.82133	88
2.82500	92
2.82867	97
2.83233	103
2.83600	113
2.83967	134
2.84333	176
2.84700	253
2.85067	388
2.85433	598
2.85800	896
2.86167	1282
2.86533	1739
2.86900	2238
2.87267	2736
2.87633	3198
2.88000	3583
2.88367	3858
2.88733	4012
2.89100	4047
2.89467	3972
2.89833	3810
2.90200	3585
2.90567	3317
2.90933	3025
2.91300	2728
2.91667	2438
2.92033	2163
2.92400	1910
2.92767	1678
2.93133	1467
2.93500	1280
2.93867	1117
2.94233	974
2.94600	849
2.94967	739
2.95333	643
2.95700	560
2.96067	488
2.96433	422
2.96800	370
2.97167	328
2.97533	291
2.97900	255
2.98267	224
2.98633	199
2.99000	180
2.99367	161
2.99733	143
3.00100	131
3.00467	119
3.00833	110
3.01200	105
3.01567	100
3.01933	92
3.02300	85
3.02667	81
3.03033	79
3.03400	79
3.03767	77
3.04133	76
3.04500	75
3.04867	70
3.05233	71
3.05600	72
3.05967	70
3.06333	68
3.06700	66
3.07067	67
3.07433	68
3.07800	67
3.08167	67
3.08533	68
3.08900	69
3.09267	70
3.09633	72
3.10000	74
3.10367	70
3.10733	68
3.11100	68
3.11467	67
3.11833	66
3.12200	65
3.12567	67
3.12933	68
3.13300	70
3.13667	71
3.14033	73
3.14400	76
3.14767	81
3.15133	84
3.15500	85
3.15867	87
3.16233	88
3.16600	89
3.16967	89
3.17333	91
3.17700	94
3.18067	99
3.18433	103
3.18800	104
3.19167	105
3.19533	105
3.19900	106
3.20267	108
3.20633	109
3.21000	111
3.21367	112
3.21733	116
3.22100	120
3.22467	121
3.22833	124
3.23200	127
3.23567	128
3.23933	129
3.24300	129
3.24667	122
3.25033	110
3.25400	102
3.25767	113
3.26133	152
3.26500	209
3.26867	277
3.27233	349
3.27600	424
3.27967	497
3.28333	567
3.28700	636
3.29067	701
3.29433	758
3.29800	807
3.30167	849
3.30533	882
3.30900	906
3.31267	924
3.31633	940
3.32000	953
3.32367	961
3.32733	968
3.33100	975
3.33467	980
3.33833	982
3.34200	980
3.34567	978
3.34933	975
3.35300	971
3.35667	967
3.36033	964
3.36400	962
3.36767	961
3.37133	959
3.37500	957
3.37867	953
3.38233	947
3.38600	941
3.38967	938
3.39333	937
3.39700	935
3.40067	931
3.40433	924
3.40800	919
3.41167	915
3.41533	908
3.41900	902
3.42267	898
3.42633	895
3.43000	890
3.43367	885
3.43733	880
3.44100	877
3.44467	874
3.44833	872
3.45200	868
3.45567	861
3.45933	855
3.46300	852
3.46667	851
3.47033	848
3.47400	845
3.47767	840
3.48133	835
3.48500	830
3.48867	827
3.49233	824
3.49600	820
3.49967	819
3.50333	817
3.50700	814
3.51067	813
3.51433	814
3.51800	811
3.52167	806
3.52533	804
3.52900	805
3.53267	803
3.53633	800
3.54000	797
3.54367	793
3.54733	791
3.55100	790
3.55467	790
3.55833	788
3.56200	784
3.56567	781
3.56933	779
3.57300	779
3.57667	775
3.58033	769
3.58400	765
3.58767	764
3.59133	765
3.59500	768
3.59867	768
3.60233	767
3.60600	763
3.60967	760
3.61333	760
3.61700	760
3.62067	758
3.62433	757
3.62800	755
3.63167	753
3.63533	752
3.63900	753
3.64267	752
3.64633	749
3.65000	747
3.65367	747
3.65733	748
3.66100	749
3.66467	748
3.66833	746
3.67200	744
3.67567	741
3.67933	738
3.68300	735
3.68667	732
3.69033	731
3.69400	732
3.69767	730
3.70133	728
3.70500	727
3.70867	727
3.71233	725
3.71600	722
3.71967	719
3.72333	715
3.72700	710
3.73067	706
3.73433	702
3.73800	699
3.74167	697
3.74533	696
3.74900	694
3.75267	692
3.75633	689
3.76000	688
3.76367	687
3.76733	685
3.77100	683
3.77467	680
3.77833	678
3.78200	677
3.78567	677
3.78933	676
3.79300	673
3.79667	672
3.80033	671
3.80400	668
3.80767	664
3.81133	663
3.81500	660
3.81867	654
3.82233	649
3.82600	649
3.82967	651
3.83333	650
3.83700	650
3.84067	649
3.84433	649
3.84800	648
3.85167	648
3.85533	648
3.85900	645
3.86267	643
3.86633	640
3.87000	635
3.87367	632
3.87733	631
3.88100	630
3.88467	630
3.88833	629
3.89200	626
3.89567	622
3.89933	623
3.90300	622
3.90667	620
3.91033	617
3.91400	612
3.91767	609
3.92133	609
3.92500	608
3.92867	605
3.93233	603
3.93600	600
3.93967	601
3.94333	602
3.94700	601
3.95067	599
3.95433	595
3.95800	592
3.96167	592
3.96533	593
3.96900	592
3.97267	590
3.97633	588
3.98000	587
3.98367	586
3.98733	586
3.99100	587
3.99467	587
3.99833	582

[Status Trace (Column Oven Temperature)]
Interval(msec)	1000
# of Points	240
Start Time(min)	0.003
End Time(min)	3.987
Intensity Units	
Intensity Multiplier	1
R.Time (min)	Intensity
0.00335	35.10
0.02002	35.09
0.03668	35.08
0.05335	35.06
0.07002	35.06
0.08668	35.05
0.10335	35.05
0.12002	35.04
0.13668	35.03
0.15335	35.03
0.17002	35.03
0.18668	35.02
0.20335	35.02
0.22002	35.01
0.23668	35.02
0.25335	35.02
0.27002	35.02
0.28668	35.01
0.30335	35.01
0.32002	35.01
0.33668	35.01
0.35335	35.01
0.37002	35.01
0.38668	35.01
0.40335	35.01
0.42002	34.99
0.43668	34.99
0.45335	34.99
0.47002	34.98
0.48668	34.98
0.50335	34.98
0.52002	34.98
0.53668	34.97
0.55335	34.97
0.57002	34.98
0.58668	34.98
0.60335	34.99
0.62002	34.98
0.63668	34.98
0.65335	34.98
0.67002	34.98
0.68668	34.99
0.70335	34.99
0.72002	34.99
0.73668	34.99
0.75335	35.00
0.77002	35.00
0.78668	35.00
0.80335	34.99
0.82002	34.99
0.83668	35.01
0.85335	35.01
0.87002	35.01
0.88668	35.01
0.90335	35.01
0.92002	35.00
0.93668	35.00
0.95335	35.00
0.97002	35.01
0.98668	35.01
1.00335	35.02
1.02002	35.02
1.03668	35.03
1.05335	35.02
1.07002	35.01
1.08668	35.00
1.10335	34.99
1.12002	34.98
1.13668	34.99
1.15335	34.98
1.17002	34.98
1.18668	34.97
1.20335	34.97
1.22002	34.98
1.23668	34.99
1.25335	34.99
1.27002	35.00
1.28668	35.00
1.30335	34.99
1.32002	34.99
1.33668	34.99
1.35335	35.00
1.37002	34.99
1.38668	34.99
1.40335	34.99
1.42002	35.00
1.43668	34.98
1.45335	34.98
1.47002	34.99
1.48668	34.98
1.50335	34.98
1.52002	34.98
1.53668	34.98
1.55335	34.98
1.57002	34.98
1.58668	34.98
1.60335	35.03
1.62002	35.14
1.63668	35.31
1.65335	35.54
1.67002	35.87
1.68668	36.23
1.70335	36.59
1.72002	36.93
1.73668	37.27
1.75335	37.57
1.77002	37.91
1.78668	38.25
1.80335	38.60
1.82002	38.92
1.83668	39.23
1.85335	39.59
1.87002	39.91
1.88668	40.23
1.90335	40.57
1.92002	40.89
1.93668	41.21
1.95335	41.57
1.97002	41.88
1.98668	42.21
2.00335	42.54
2.02002	42.88
2.03668	43.21
2.05335	43.53
2.07002	43.86
2.08668	44.17
2.10335	44.52
2.12002	44.84
2.13668	45.18
2.15335	45.51
2.17002	45.82
2.18668	46.16
2.20335	46.49
2.22002	46.82
2.23668	47.14
2.25335	47.47
2.27002	47.79
2.28668	48.12
2.30335	48.43
2.32002	48.76
2.33668	49.11
2.35335	49.36
2.37002	49.57
2.38668	49.64
2.40335	49.64
2.42002	49.64
2.43668	49.66
2.45335	49.66
2.47002	49.68
2.48668	49.69
2.50335	49.72
2.52002	49.74
2.53668	49.75
2.55335	49.76
2.57002	49.77
2.58668	49.78
2.60335	49.79
2.62002	49.82
2.63668	49.83
2.65335	49.85
2.67002	49.84
2.68668	49.87
2.70335	49.88
2.72002	49.89
2.73668	49.88
2.75335	49.87
2.77002	49.85
2.78668	49.86
2.80335	49.88
2.82002	49.90
2.83668	49.93
2.85335	49.94
2.87002	49.94
2.88668	49.95
2.90335	49.96
2.92002	49.97
2.93668	49.98
2.95335	49.98
2.97002	49.98
2.98668	49.98
3.00335	49.99
3.02002	50.00
3.03668	50.00
3.05335	50.00
3.07002	50.01
3.08668	50.02
3.10335	50.03
3.12002	50.04
3.13668	50.04
3.15335	50.05
3.17002	50.07
3.18668	50.07
3.20335	50.08
3.22002	50.08
3.23668	50.08
3.25335	50.09
3.27002	50.09
3.28668	50.09
3.30335	50.10
3.32002	50.10
3.33668	50.10
3.35335	50.11
3.37002	50.10
3.38668	50.10
3.40335	50.09
3.42002	50.08
3.43668	50.07
3.45335	50.07
3.47002	50.06
3.48668	50.05
3.50335	50.05
3.52002	50.05
3.53668	50.05
3.55335	50.05
3.57002	50.05
3.58668	50.05
3.60335	50.05
3.62002	50.05
3.63668	50.06
3.65335	50.07
3.67002	50.07
3.68668	50.06
3.70335	50.06
3.72002	50.06
3.73668	50.07
3.75335	50.06
3.77002	50.06
3.78668	50.05
3.80335	50.06
3.82002	50.05
3.83668	50.06
3.85335	50.07
3.87002	50.07
3.88668	50.07
3.90335	50.07
3.92002	50.07
3.93668	50.07
3.95335	50.06
3.97002	50.06
3.98668	50.05

[Status Trace (Injection Unit Temperature)]
Interval(msec)	1000
# of Points	240
Start Time(min)	0.003
End Time(min)	3.987
Intensity Units	
Intensity Multiplier	1
R.Time (min)	Intensity
0.00335	99.97
0.02002	99.97
0.03668	99.97
0.05335	99.97
0.07002	99.97
0.08668	99.97
0.10335	99.98
0.12002	99.97
0.13668	99.98
0.15335	99.97
0.17002	99.98
0.18668	99.98
0.20335	99.98
0.22002	99.98
0.23668	99.98
0.25335	99.98
0.27002	99.98
0.28668	99.98
0.30335	99.98
0.32002	99.98
0.33668	99.98
0.35335	99.98
0.37002	99.98
0.38668	99.98
0.40335	99.98
0.42002	99.98
0.43668	99.98
0.45335	99.98
0.47002	99.97
0.48668	99.98
0.50335	99.98
0.52002	99.98
0.53668	99.98
0.55335	99.98
0.57002	99.98
0.58668	99.98
0.60335	99.98
0.62002	99.98
0.63668	99.98
0.65335	99.98
0.67002	99.98
0.68668	99.98
0.70335	99.98
0.72002	99.98
0.73668	99.98
0.75335	99.99
0.77002	99.98
0.78668	99.98
0.80335	99.98
0.82002	99.98
0.83668	99.98
0.85335	99.99
0.87002	99.98
0.88668	99.98
0.90335	99.98
0.92002	99.98
0.93668	99.98
0.95335	99.98
0.97002	99.98
0.98668	99.98
1.00335	99.98
1.02002	99.98
1.03668	99.98
1.05335	99.98
1.07002	99.98
1.08668	99.98
1.10335	99.98
1.12002	99.98
1.13668	99.98
1.15335	99.98
1.17002	99.98
1.18668	99.98
1.20335	99.98
1.22002	99.98
1.23668	99.98
1.25335	99.98
1.27002	99.98
1.28668	99.98
1.30335	99.98
1.32002	99.98
1.33668	99.98
1.35335	99.98
1.37002	99.98
1.38668	99.98
1.40335	99.98
1.42002	99.98
1.43668	99.98
1.45335	99.98
1.47002	99.97
1.48668	99.97
1.50335	99.98
1.52002	99.98
1.53668	99.98
1.55335	99.98
1.57002	99.98
1.58668	99.98
1.60335	99.97
1.62002	99.98
1.63668	99.98
1.65335	99.98
1.67002	99.98
1.68668	99.98
1.70335	99.98
1.72002	99.98
1.73668	99.98
1.75335	99.98
1.77002	99.98
1.78668	99.98
1.80335	99.98
1.82002	99.98
1.83668	99.98
1.85335	99.98
1.87002	99.98
1.88668	99.98
1.90335	99.98
1.92002	99.98
1.93668	99.98
1.95335	99.97
1.97002	99.98
1.98668	99.98
2.00335	99.98
2.02002	99.97
2.03668	99.97
2.05335	99.98
2.07002	99.97
2.08668	99.97
2.10335	99.97
2.12002	99.97
2.13668	99.97
2.15335	99.97
2.17002	99.97
2.18668	99.97
2.20335	99.97
2.22002	99.97
2.23668	99.96
2.25335	99.97
2.27002	99.97
2.28668	99.96
2.30335	99.96
2.32002	99.96
2.33668	99.96
2.35335	99.96
2.37002	99.96
2.38668	99.96
2.40335	99.96
2.42002	99.96
2.43668	99.96
2.45335	99.96
2.47002	99.96
2.48668	99.96
2.50335	99.96
2.52002	99.96
2.53668	99.96
2.55335	99.96
2.57002	99.96
2.58668	99.96
2.60335	99.97
2.62002	99.96
2.63668	99.97
2.65335	99.97
2.67002	99.97
2.68668	99.97
2.70335	99.97
2.72002	99.97
2.73668	99.98
2.75335	99.98
2.77002	99.98
2.78668	99.98
2.80335	99.98
2.82002	99.98
2.83668	99.98
2.85335	99.99
2.87002	99.99
2.88668	99.99
2.90335	99.99
2.92002	99.99
2.93668	99.99
2.95335	99.99
2.97002	100.00
2.98668	100.00
3.00335	100.00
3.02002	100.00
3.03668	100.00
3.05335	100.00
3.07002	100.00
3.08668	100.00
3.10335	100.01
3.12002	100.01
3.13668	100.01
3.15335	100.01
3.17002	100.01
3.18668	100.01
3.20335	100.02
3.22002	100.01
3.23668	100.02
3.25335	100.02
3.27002	100.02
3.28668	100.02
3.30335	100.02
3.32002	100.02
3.33668	100.02
3.35335	100.02
3.37002	100.02
3.38668	100.02
3.40335	100.02
3.42002	100.02
3.43668	100.02
3.45335	100.02
3.47002	100.02
3.48668	100.02
3.50335	100.02
3.52002	100.02
3.53668	100.02
3.55335	100.03
3.57002	100.02
3.58668	100.03
3.60335	100.03
3.62002	100.03
3.63668	100.03
3.65335	100.03
3.67002	100.03
3.68668	100.03
3.70335	100.03
3.72002	100.03
3.73668	100.03
3.75335	100.03
3.77002	100.03
3.78668	100.04
3.80335	100.04
3.82002	100.03
3.83668	100.03
3.85335	100.04
3.87002	100.04
3.88668	100.04
3.90335	100.04
3.92002	100.04
3.93668	100.04
3.95335	100.04
3.97002	100.04
3.98668	100.04

[Status Trace (Carrier Gas Pressure)]
Interval(msec)	1000
# of Points	240
Start Time(min)	0.003
End Time(min)	3.987
Intensity Units	
Intensity Multiplier	1
R.Time (min)	Intensity
0.00335	58.00
0.02002	56.17
0.03668	56.41
0.05335	58.67
0.07002	59.88
0.08668	58.28
0.10335	57.97
0.12002	58.00
0.13668	58.01
0.15335	58.01
0.17002	58.00
0.18668	58.00
0.20335	58.00
0.22002	58.00
0.23668	58.00
0.25335	58.00
0.27002	58.00
0.28668	58.00
0.30335	58.00
0.32002	58.00
0.33668	58.00
0.35335	58.00
0.37002	58.00
0.38668	58.00
0.40335	58.00
0.42002	58.00
0.43668	58.00
0.45335	58.00
0.47002	58.00
0.48668	58.00
0.50335	58.00
0.52002	58.00
0.53668	58.00
0.55335	58.00
0.57002	58.00
0.58668	58.00
0.60335	58.00
0.62002	58.00
0.63668	58.00
0.65335	58.00
0.67002	58.00
0.68668	58.00
0.70335	58.00
0.72002	58.00
0.73668	58.00
0.75335	58.00
0.77002	58.00
0.78668	58.00
0.80335	58.00
0.82002	58.00
0.83668	58.00
0.85335	58.00
0.87002	58.00
0.88668	58.00
0.90335	58.00
0.92002	58.00
0.93668	58.00
0.95335	58.00
0.97002	58.00
0.98668	58.00
1.00335	58.00
1.02002	58.00
1.03668	58.00
1.05335	58.00
1.07002	58.00
1.08668	58.00
1.10335	58.00
1.12002	58.00
1.13668	58.00
1.15335	58.00
1.17002	58.00
1.18668	58.00
1.20335	58.00
1.22002	58.00
1.23668	58.00
1.25335	58.00
1.27002	58.00
1.28668	58.00
1.30335	58.00
1.32002	58.00
1.33668	58.00
1.35335	58.00
1.37002	58.00
1.38668	58.00
1.40335	58.00
1.42002	58.00
1.43668	58.00
1.45335	58.00
1.47002	58.00
1.48668	58.00
1.50335	58.00
1.52002	58.00
1.53668	58.00
1.55335	58.00
1.57002	58.00
1.58668	58.00
1.60335	58.00
1.62002	58.00
1.63668	58.00
1.65335	58.01
1.67002	58.01
1.68668	58.01
1.70335	58.00
1.72002	58.00
1.73668	58.00
1.75335	58.00
1.77002	58.00
1.78668	58.00
1.80335	58.00
1.82002	58.00
1.83668	58.00
1.85335	58.00
1.87002	58.00
1.88668	58.00
1.90335	58.00
1.92002	58.00
1.93668	58.00
1.95335	58.00
1.97002	58.00
1.98668	58.00
2.00335	58.00
2.02002	58.00
2.03668	58.00
2.05335	58.00
2.07002	58.00
2.08668	58.00
2.10335	58.00
2.12002	58.00
2.13668	58.00
2.15335	58.00
2.17002	58.00
2.18668	58.00
2.20335	58.00
2.22002	58.00
2.23668	58.00
2.25335	58.00
2.27002	58.00
2.28668	58.00
2.30335	58.00
2.32002	58.00
2.33668	58.00
2.35335	58.00
2.37002	58.00
2.38668	57.99
2.40335	57.99
2.42002	58.00
2.43668	58.00
2.45335	58.00
2.47002	58.00
2.48668	58.00
2.50335	57.97
2.52002	58.01
2.53668	57.99
2.55335	58.00
2.57002	58.00
2.58668	58.00
2.60335	58.00
2.62002	58.00
2.63668	58.00
2.65335	58.00
2.67002	58.00
2.68668	58.00
2.70335	58.00
2.72002	58.00
2.73668	58.00
2.75335	58.00
2.77002	58.00
2.78668	58.00
2.80335	58.00
2.82002	58.00
2.83668	58.00
2.85335	58.00
2.87002	58.00
2.88668	58.00
2.90335	58.00
2.92002	58.00
2.93668	58.00
2.95335	58.00
2.97002	58.00
2.98668	58.00
3.00335	58.00
3.02002	58.00
3.03668	58.00
3.05335	58.00
3.07002	58.00
3.08668	58.00
3.10335	58.00
3.12002	58.00
3.13668	58.00
3.15335	58.00
3.17002	58.00
3.18668	58.00
3.20335	58.00
3.22002	58.00
3.23668	58.00
3.25335	58.00
3.27002	58.00
3.28668	58.00
3.30335	58.00
3.32002	58.00
3.33668	58.00
3.35335	58.00
3.37002	58.00
3.38668	58.00
3.40335	58.00
3.42002	58.00
3.43668	58.00
3.45335	58.00
3.47002	58.00
3.48668	58.00
3.50335	58.00
3.52002	58.00
3.53668	58.00
3.55335	58.00
3.57002	58.00
3.58668	58.00
3.60335	58.00
3.62002	58.00
3.63668	58.00
3.65335	58.00
3.67002	58.00
3.68668	58.00
3.70335	58.00
3.72002	58.00
3.73668	58.00
3.75335	58.00
3.77002	58.00
3.78668	58.00
3.80335	58.00
3.82002	58.00
3.83668	58.00
3.85335	58.00
3.87002	58.00
3.88668	58.00
3.90335	58.00
3.92002	58.00
3.93668	58.00
3.95335	58.00
3.97002	58.00
3.98668	58.00

[Status Trace (Carrier Gas Flow)]
Interval(msec)	1000
# of Points	240
Start Time(min)	0.003
End Time(min)	3.987
Intensity Units	
Intensity Multiplier	1
R.Time (min)	Intensity
0.00335	34.52
0.02002	34.59
0.03668	34.54
0.05335	34.55
0.07002	34.50
0.08668	34.52
0.10335	34.52
0.12002	34.52
0.13668	34.51
0.15335	34.52
0.17002	34.52
0.18668	34.51
0.20335	34.51
0.22002	34.52
0.23668	34.52
0.25335	34.52
0.27002	34.52
0.28668	34.53
0.30335	34.52
0.32002	34.52
0.33668	34.52
0.35335	34.52
0.37002	34.52
0.38668	34.52
0.40335	34.52
0.42002	34.52
0.43668	34.52
0.45335	34.52
0.47002	34.52
0.48668	34.52
0.50335	34.52
0.52002	34.52
0.53668	34.52
0.55335	34.52
0.57002	34.52
0.58668	34.52
0.60335	34.52
0.62002	34.52
0.63668	34.52
0.65335	34.52
0.67002	34.52
0.68668	34.52
0.70335	34.52
0.72002	34.52
0.73668	34.52
0.75335	34.52
0.77002	34.52
0.78668	34.52
0.80335	34.52
0.82002	34.52
0.83668	34.52
0.85335	34.52
0.87002	34.52
0.88668	34.52
0.90335	34.52
0.92002	34.52
0.93668	34.52
0.95335	34.52
0.97002	34.52
0.98668	34.52
1.00335	34.51
1.02002	34.53
1.03668	34.52
1.05335	34.51
1.07002	34.52
1.08668	34.52
1.10335	34.52
1.12002	34.52
1.13668	34.51
1.15335	34.52
1.17002	34.52
1.18668	34.52
1.20335	34.52
1.22002	34.52
1.23668	34.52
1.25335	34.52
1.27002	34.52
1.28668	34.52
1.30335	34.52
1.32002	34.52
1.33668	34.52
1.35335	34.53
1.37002	34.52
1.38668	34.52
1.40335	34.52
1.42002	34.52
1.43668	34.52
1.45335	34.52
1.47002	34.52
1.48668	34.52
1.50335	34.52
1.52002	34.53
1.53668	34.52
1.55335	34.52
1.57002	34.52
1.58668	34.52
1.60335	34.52
1.62002	34.52
1.63668	34.52
1.65335	34.52
1.67002	34.52
1.68668	34.52
1.70335	34.52
1.72002	34.52
1.73668	34.52
1.75335	34.51
1.77002	34.52
1.78668	34.53
1.80335	34.52
1.82002	34.52
1.83668	34.52
1.85335	34.52
1.87002	34.52
1.88668	34.52
1.90335	34.52
1.92002	34.52
1.93668	34.52
1.95335	34.52
1.97002	34.52
1.98668	34.52
2.00335	34.52
2.02002	34.52
2.03668	34.52
2.05335	34.52
2.07002	34.52
2.08668	34.52
2.10335	34.52
2.12002	34.52
2.13668	34.52
2.15335	34.52
2.17002	34.52
2.18668	34.52
2.20335	34.52
2.22002	34.52
2.23668	34.52
2.25335	34.52
2.27002	34.51
2.28668	34.53
2.30335	34.52
2.32002	34.52
2.33668	34.52
2.35335	34.52
2.37002	34.52
2.38668	34.53
2.40335	34.52
2.42002	34.52
2.43668	34.52
2.45335	34.52
2.47002	34.53
2.48668	34.52
2.50335	34.68
2.52002	34.52
2.53668	34.52
2.55335	34.52
2.57002	34.53
2.58668	34.52
2.60335	34.52
2.62002	34.52
2.63668	34.52
2.65335	34.52
2.67002	34.51
2.68668	34.52
2.70335	34.52
2.72002	34.52
2.73668	34.52
2.75335	34.52
2.77002	34.52
2.78668	34.52
2.80335	34.51
2.82002	34.52
2.83668	34.52
2.85335	34.52
2.87002	34.52
2.88668	34.52
2.90335	34.52
2.92002	34.52
2.93668	34.52
2.95335	34.52
2.97002	34.51
2.98668	34.52
3.00335	34.52
3.02002	34.52
3.03668	34.52
3.05335	34.52
3.07002	34.52
3.08668	34.52
3.10335	34.52
3.12002	34.52
3.13668	34.51
3.15335	34.52
3.17002	34.52
3.18668	34.52
3.20335	34.51
3.22002	34.52
3.23668	34.52
3.25335	34.52
3.27002	34.52
3.28668	34.52
3.30335	34.52
3.32002	34.52
3.33668	34.52
3.35335	34.52
3.37002	34.52
3.38668	34.52
3.40335	34.52
3.42002	34.52
3.43668	34.52
3.45335	34.52
3.47002	34.52
3.48668	34.52
3.50335	34.52
3.52002	34.52
3.53668	34.52
3.55335	34.52
3.57002	34.52
3.58668	34.52
3.60335	34.52
3.62002	34.52
3.63668	34.52
3.65335	34.52
3.67002	34.52
3.68668	34.51
3.70335	34.52
3.72002	34.52
3.73668	34.52
3.75335	34.52
3.77002	34.52
3.78668	34.52
3.80335	34.52
3.82002	34.52
3.83668	34.52
3.85335	34.52
3.87002	34.52
3.88668	34.52
3.90335	34.52
3.92002	34.52
3.93668	34.52
3.95335	34.52
3.97002	34.52
3.98668	34.52

[Status Trace (Column Flow)]
Interval(msec)	1000
# of Points	240
Start Time(min)	0.003
End Time(min)	3.987
Intensity Units	
Intensity Multiplier	1
R.Time (min)	Intensity
0.00335	5.51
0.02002	5.30
0.03668	5.33
0.05335	5.59
0.07002	5.73
0.08668	5.54
0.10335	5.51
0.12002	5.51
0.13668	5.51
0.15335	5.51
0.17002	5.51
0.18668	5.51
0.20335	5.51
0.22002	5.51
0.23668	5.51
0.25335	5.51
0.27002	5.51
0.28668	5.51
0.30335	5.51
0.32002	5.51
0.33668	5.51
0.35335	5.51
0.37002	5.51
0.38668	5.51
0.40335	5.51
0.42002	5.51
0.43668	5.51
0.45335	5.51
0.47002	5.51
0.48668	5.51
0.50335	5.51
0.52002	5.51
0.53668	5.51
0.55335	5.51
0.57002	5.51
0.58668	5.51
0.60335	5.51
0.62002	5.51
0.63668	5.51
0.65335	5.51
0.67002	5.51
0.68668	5.51
0.70335	5.51
0.72002	5.51
0.73668	5.51
0.75335	5.51
0.77002	5.51
0.78668	5.51
0.80335	5.51
0.82002	5.51
0.83668	5.51
0.85335	5.51
0.87002	5.51
0.88668	5.51
0.90335	5.51
0.92002	5.51
0.93668	5.51
0.95335	5.51
0.97002	5.51
0.98668	5.51
1.00335	5.51
1.02002	5.51
1.03668	5.51
1.05335	5.51
1.07002	5.51
1.08668	5.51
1.10335	5.51
1.12002	5.51
1.13668	5.51
1.15335	5.51
1.17002	5.51
1.18668	5.51
1.20335	5.51
1.22002	5.51
1.23668	5.51
1.25335	5.51
1.27002	5.51
1.28668	5.51
1.30335	5.51
1.32002	5.51
1.33668	5.51
1.35335	5.51
1.37002	5.51
1.38668	5.51
1.40335	5.51
1.42002	5.51
1.43668	5.51
1.45335	5.51
1.47002	5.51
1.48668	5.51
1.50335	5.51
1.52002	5.51
1.53668	5.51
1.55335	5.51
1.57002	5.51
1.58668	5.51
1.60335	5.51
1.62002	5.51
1.63668	5.50
1.65335	5.50
1.67002	5.49
1.68668	5.48
1.70335	5.46
1.72002	5.45
1.73668	5.44
1.75335	5.43
1.77002	5.42
1.78668	5.41
1.80335	5.40
1.82002	5.39
1.83668	5.38
1.85335	5.37
1.87002	5.36
1.88668	5.35
1.90335	5.34
1.92002	5.33
1.93668	5.32
1.95335	5.31
1.97002	5.30
1.98668	5.29
2.00335	5.28
2.02002	5.28
2.03668	5.26
2.05335	5.25
2.07002	5.25
2.08668	5.24
2.10335	5.23
2.12002	5.22
2.13668	5.21
2.15335	5.20
2.17002	5.19
2.18668	5.18
2.20335	5.17
2.22002	5.16
2.23668	5.15
2.25335	5.14
2.27002	5.13
2.28668	5.12
2.30335	5.11
2.32002	5.11
2.33668	5.10
2.35335	5.09
2.37002	5.08
2.38668	5.08
2.40335	5.08
2.42002	5.08
2.43668	5.08
2.45335	5.08
2.47002	5.08
2.48668	5.08
2.50335	5.08
2.52002	5.08
2.53668	5.08
2.55335	5.08
2.57002	5.08
2.58668	5.08
2.60335	5.08
2.62002	5.08
2.63668	5.08
2.65335	5.08
2.67002	5.08
2.68668	5.07
2.70335	5.07
2.72002	5.07
2.73668	5.07
2.75335	5.07
2.77002	5.08
2.78668	5.08
2.80335	5.07
2.82002	5.07
2.83668	5.07
2.85335	5.07
2.87002	5.07
2.88668	5.07
2.90335	5.07
2.92002	5.07
2.93668	5.07
2.95335	5.07
2.97002	5.07
2.98668	5.07
3.00335	5.07
3.02002	5.07
3.03668	5.07
3.05335	5.07
3.07002	5.07
3.08668	5.07
3.10335	5.07
3.12002	5.07
3.13668	5.07
3.15335	5.07
3.17002	5.07
3.18668	5.07
3.20335	5.07
3.22002	5.07
3.23668	5.07
3.25335	5.07
3.27002	5.07
3.28668	5.07
3.30335	5.07
3.32002	5.07
3.33668	5.07
3.35335	5.07
3.37002	5.07
3.38668	5.07
3.40335	5.07
3.42002	5.07
3.43668	5.07
3.45335	5.07
3.47002	5.07
3.48668	5.07
3.50335	5.07
3.52002	5.07
3.53668	5.07
3.55335	5.07
3.57002	5.07
3.58668	5.07
3.60335	5.07
3.62002	5.07
3.63668	5.07
3.65335	5.07
3.67002	5.07
3.68668	5.07
3.70335	5.07
3.72002	5.07
3.73668	5.07
3.75335	5.07
3.77002	5.07
3.78668	5.07
3.80335	5.07
3.82002	5.07
3.83668	5.07
3.85335	5.07
3.87002	5.07
3.88668	5.07
3.90335	5.07
3.92002	5.07
3.93668	5.07
3.95335	5.07
3.97002	5.07
3.98668	5.07

[Status Trace (Linear Velocity)]
Interval(msec)	1000
# of Points	240
Start Time(min)	0.003
End Time(min)	3.987
Intensity Units	
Intensity Multiplier	1
R.Time (min)	Intensity
0.00335	39.00
0.02002	37.80
0.03668	37.96
0.05335	39.45
0.07002	40.24
0.08668	39.19
0.10335	38.99
0.12002	39.01
0.13668	39.02
0.15335	39.02
0.17002	39.01
0.18668	39.01
0.20335	39.01
0.22002	39.01
0.23668	39.01
0.25335	39.01
0.27002	39.01
0.28668	39.01
0.30335	39.01
0.32002	39.01
0.33668	39.01
0.35335	39.01
0.37002	39.01
0.38668	39.01
0.40335	39.01
0.42002	39.02
0.43668	39.02
0.45335	39.02
0.47002	39.02
0.48668	39.02
0.50335	39.02
0.52002	39.02
0.53668	39.02
0.55335	39.02
0.57002	39.02
0.58668	39.02
0.60335	39.02
0.62002	39.02
0.63668	39.02
0.65335	39.02
0.67002	39.02
0.68668	39.02
0.70335	39.02
0.72002	39.02
0.73668	39.02
0.75335	39.02
0.77002	39.01
0.78668	39.02
0.80335	39.02
0.82002	39.02
0.83668	39.01
0.85335	39.01
0.87002	39.01
0.88668	39.01
0.90335	39.01
0.92002	39.01
0.93668	39.02
0.95335	39.02
0.97002	39.01
0.98668	39.01
1.00335	39.01
1.02002	39.01
1.03668	39.01
1.05335	39.01
1.07002	39.01
1.08668	39.01
1.10335	39.02
1.12002	39.02
1.13668	39.02
1.15335	39.02
1.17002	39.02
1.18668	39.02
1.20335	39.02
1.22002	39.02
1.23668	39.02
1.25335	39.02
1.27002	39.02
1.28668	39.01
1.30335	39.02
1.32002	39.02
1.33668	39.02
1.35335	39.01
1.37002	39.02
1.38668	39.02
1.40335	39.02
1.42002	39.02
1.43668	39.02
1.45335	39.02
1.47002	39.02
1.48668	39.02
1.50335	39.02
1.52002	39.02
1.53668	39.02
1.55335	39.02
1.57002	39.02
1.58668	39.02
1.60335	39.01
1.62002	39.01
1.63668	38.99
1.65335	38.97
1.67002	38.94
1.68668	38.90
1.70335	38.86
1.72002	38.83
1.73668	38.80
1.75335	38.77
1.77002	38.74
1.78668	38.71
1.80335	38.67
1.82002	38.64
1.83668	38.61
1.85335	38.58
1.87002	38.55
1.88668	38.52
1.90335	38.49
1.92002	38.46
1.93668	38.43
1.95335	38.39
1.97002	38.37
1.98668	38.33
2.00335	38.30
2.02002	38.28
2.03668	38.24
2.05335	38.21
2.07002	38.19
2.08668	38.15
2.10335	38.12
2.12002	38.10
2.13668	38.06
2.15335	38.03
2.17002	38.01
2.18668	37.97
2.20335	37.94
2.22002	37.92
2.23668	37.89
2.25335	37.86
2.27002	37.83
2.28668	37.80
2.30335	37.77
2.32002	37.74
2.33668	37.71
2.35335	37.69
2.37002	37.67
2.38668	37.66
2.40335	37.66
2.42002	37.66
2.43668	37.66
2.45335	37.66
2.47002	37.66
2.48668	37.66
2.50335	37.64
2.52002	37.66
2.53668	37.65
2.55335	37.65
2.57002	37.65
2.58668	37.65
2.60335	37.65
2.62002	37.65
2.63668	37.65
2.65335	37.64
2.67002	37.65
2.68668	37.64
2.70335	37.64
2.72002	37.64
2.73668	37.64
2.75335	37.64
2.77002	37.64
2.78668	37.64
2.80335	37.64
2.82002	37.64
2.83668	37.64
2.85335	37.64
2.87002	37.64
2.88668	37.63
2.90335	37.63
2.92002	37.63
2.93668	37.63
2.95335	37.63
2.97002	37.63
2.98668	37.63
3.00335	37.63
3.02002	37.63
3.03668	37.63
3.05335	37.63
3.07002	37.63
3.08668	37.63
3.10335	37.63
3.12002	37.63
3.13668	37.63
3.15335	37.63
3.17002	37.63
3.18668	37.62
3.20335	37.62
3.22002	37.62
3.23668	37.62
3.25335	37.62
3.27002	37.62
3.28668	37.62
3.30335	37.62
3.32002	37.62
3.33668	37.62
3.35335	37.62
3.37002	37.62
3.38668	37.62
3.40335	37.62
3.42002	37.62
3.43668	37.63
3.45335	37.63
3.47002	37.63
3.48668	37.63
3.50335	37.63
3.52002	37.63
3.53668	37.63
3.55335	37.63
3.57002	37.63
3.58668	37.63
3.60335	37.63
3.62002	37.63
3.63668	37.63
3.65335	37.63
3.67002	37.62
3.68668	37.63
3.70335	37.63
3.72002	37.63
3.73668	37.62
3.75335	37.63
3.77002	37.63
3.78668	37.63
3.80335	37.63
3.82002	37.63
3.83668	37.63
3.85335	37.63
3.87002	37.62
3.88668	37.63
3.90335	37.62
3.92002	37.62
3.93668	37.62
3.95335	37.63
3.97002	37.63
3.98668	37.63

