[Header]
Application Name	LabSolutions
Version	5.110
Data File Name	C:\Users\User\Desktop\Junior\UIC Prairie Sampling\2023\8.18.23\081823_082.gcd
Output Date	8/31/2023
Output Time	12:48:12 PM

[File Information]
Type	Data File
Generated	8/31/2023 12:54:32 AM
Generated by	System Administrator
Modified	8/31/2023 1:00:50 AM
Modified by	System Administrator

[Sample Information]
Operator Name	System Administrator
Acquired	8/31/2023 12:56:49 AM
Sample Type	0:Unknown
Level	0
Sample Name	082
Sample ID	082
ISTD Amount1	1
ISTD Amount2	1
ISTD Amount3	1
ISTD Amount4	1
ISTD Amount5	1
ISTD Amount6	1
ISTD Amount7	1
ISTD Amount8	1
ISTD Amount9	1
ISTD Amount10	1
ISTD Amount11	1
ISTD Amount12	1
ISTD Amount13	1
ISTD Amount14	1
ISTD Amount15	1
ISTD Amount16	1
ISTD Amount17	1
ISTD Amount18	1
ISTD Amount19	1
ISTD Amount20	1
ISTD Amount21	1
ISTD Amount22	1
ISTD Amount23	1
ISTD Amount24	1
ISTD Amount25	1
ISTD Amount26	1
ISTD Amount27	1
ISTD Amount28	1
ISTD Amount29	1
ISTD Amount30	1
ISTD Amount31	1
ISTD Amount32	1
Sample Amount	1
Dilution Factor	1
Vial#	81
Injection Volume	1
Injection Count	1
Bar Code	

[Original Files]
Data File	C:\Users\User\Desktop\Junior\UIC Prairie Sampling\8.18.23\081823_082.gcd
Method File	C:\LabSolutions\Data\GHG_4min_2022\ghg3_togas_w_acet_4 min_new_int.gcm
Batch File	C:\LabSolutions\Data\BATCH FILES\081823.gcb
Report Format File	c:\LabSolutions\System\DEFAULT.lsr

[File Description]


[Configuration]
Instrument Name	C0B7VH3-Instrument1
Instrument #	1
Line #	1
# of Detectors	3
Detector ID	DET#1	DET#2	DET#3
Detector Name	FID	PTCD	ECD
# of Channels	1	1	1

[Peak Table(Ch1)]
# of Peaks	3
Peak#	R.Time	I.Time	F.Time	Area	Height	A/H	Conc.	Mark	ID#	Name	k'	Plate #	Plate Ht.	Tailing	Resolution	Sep.Factor	Area Ratio	Height Ratio	Conc. %	Norm Conc.
1	1.472	1.435	1.531	6138	3060	2.006	0.000	   	1	CO	0.000	9619	15.593	1.359	0.000	0.000	0	0	0.000	0.000
2	1.564	1.531	1.637	4738	2376	1.994	23.098	 V 	2	CH4	0.062	11431	13.122	1.164	1.547	0.000	0	0	6.317	6.317
3	1.989	1.945	2.634	1777460	848418	2.095	342.549	   	3	CO2	0.351	17524	8.560	1.315	7.173	5.640	0	0	93.683	93.683

[Peak Table(Ch2)]
# of Peaks	0

[Peak Table(Ch3)]
# of Peaks	5
Peak#	R.Time	I.Time	F.Time	Area	Height	A/H	Conc.	Mark	ID#	Name	k'	Plate #	Plate Ht.	Tailing	Resolution	Sep.Factor	Area Ratio	Height Ratio	Conc. %	Norm Conc.
1	2.458	2.341	2.510	1053	347	3.037	0.000	   			0.000	10245	14.641	0.000	0.000	0.000	0	0	0.000	0.000
2	2.528	2.510	2.579	491	165	2.972	0.000	 V 			0.028	2673	56.115	0.000	0.476	0.000	0	0	0.000	0.000
3	2.623	2.579	2.719	561	127	4.411	0.000	 V 			0.067	5519	27.179	0.000	0.566	2.368	0	0	0.000	0.000
4	2.891	2.777	3.038	14463	3979	3.635	0.214	   	1	N2O	0.176	13986	10.725	1.478	2.240	2.622	0	0	100.000	100.000
5	3.302	3.225	3.932	19155	907	21.125	0.000	   			0.343	454	330.038	4.717	1.145	1.949	0	0	0.000	0.000

[Compound Results(Ch1)]
# of IDs	6
ID#	Name	R.Time	Area	Height	Conc.	Curve	3rd	2nd	1st	Constant	Area Ratio	Height Ratio	Conc. %	Norm Conc.
1	CO	1.472	6138	3060	0.000	Linear	0.000000e+00	0.000000e+00	0.000000e+00	0.000000e+00	0	0	0.000	0.000
2	CH4	1.564	4738	2376	23.098	Linear	0.000000e+00	0.000000e+00	2.051179e+002	0.000000e+00	0	0	6.317	6.317
3	CO2	1.989	1777460	848418	342.549	Linear	0.000000e+00	0.000000e+00	5.188919e+003	0.000000e+00	0	0	93.683	93.683
4	Ethylene	0.000	0	0	0.000	Linear	0.000000e+00	0.000000e+00	0.000000e+00	0.000000e+00	0	0	0.000	0.000
5	Acetylene	0.000	0	0	0.000	Linear	0.000000e+00	0.000000e+00	0.000000e+00	0.000000e+00	0	0	0.000	0.000
6	Ethane	0.000	0	0	0.000	Linear	0.000000e+00	0.000000e+00	0.000000e+00	0.000000e+00	0	0	0.000	0.000

[Compound Results(Ch2)]
# of IDs	5
ID#	Name	R.Time	Area	Height	Conc.	Curve	3rd	2nd	1st	Constant	Area Ratio	Height Ratio	Conc. %	Norm Conc.
1	Hydrogen	0.000	0	0	0.000	Linear	0.000000e+00	0.000000e+00	0.000000e+00	0.000000e+00	0	0	0.000	0.000
2	Oxygen	0.000	0	0	0.000	Linear	0.000000e+00	0.000000e+00	0.000000e+00	0.000000e+00	0	0	0.000	0.000
3	Nitrogen	0.000	0	0	0.000	Linear	0.000000e+00	0.000000e+00	0.000000e+00	0.000000e+00	0	0	0.000	0.000
4	Methane	0.000	0	0	0.000	Linear	0.000000e+00	0.000000e+00	0.000000e+00	0.000000e+00	0	0	0.000	0.000
5	Carbon Monoxide	0.000	0	0	0.000	Linear	0.000000e+00	0.000000e+00	0.000000e+00	0.000000e+00	0	0	0.000	0.000

[Compound Results(Ch3)]
# of IDs	2
ID#	Name	R.Time	Area	Height	Conc.	Curve	3rd	2nd	1st	Constant	Area Ratio	Height Ratio	Conc. %	Norm Conc.
1	N2O	2.891	14463	3979	0.214	Linear	0.000000e+00	0.000000e+00	6.759880e+004	0.000000e+00	0	0	100.000	100.000
2	SF6	0.000	0	0	0.000	Linear	0.000000e+00	0.000000e+00	0.000000e+00	0.000000e+00	0	0	0.000	0.000

[Group Results(Ch1)]
# of Groups	0

[Group Results(Ch2)]
# of Groups	0

[Group Results(Ch3)]
# of Groups	0

[Chromatogram (Ch1)]
Interval(msec)	220
# of Points	1091
Start Time(min)	0.002
End Time(min)	3.998
R.Time (min)	Intensity
0.00167	-14
0.00533	-18
0.00900	-19
0.01267	-16
0.01633	-12
0.02000	-5
0.02367	2
0.02733	13
0.03100	24
0.03467	27
0.03833	22
0.04200	12
0.04567	4
0.04933	-1
0.05300	-4
0.05667	-9
0.06033	-12
0.06400	-13
0.06767	-15
0.07133	-19
0.07500	-21
0.07867	-20
0.08233	-17
0.08600	-12
0.08967	-7
0.09333	-4
0.09700	-1
0.10067	-3
0.10433	-9
0.10800	-13
0.11167	-14
0.11533	-12
0.11900	-9
0.12267	-8
0.12633	-7
0.13000	-7
0.13367	-6
0.13733	-3
0.14100	1
0.14467	9
0.14833	15
0.15200	17
0.15567	16
0.15933	13
0.16300	7
0.16667	2
0.17033	-3
0.17400	-10
0.17767	-15
0.18133	-16
0.18500	-17
0.18867	-16
0.19233	-15
0.19600	-15
0.19967	-12
0.20333	-8
0.20700	-3
0.21067	0
0.21433	-0
0.21800	-2
0.22167	-1
0.22533	0
0.22900	0
0.23267	-1
0.23633	-4
0.24000	-9
0.24367	-13
0.24733	-16
0.25100	-18
0.25467	-17
0.25833	-11
0.26200	-5
0.26567	-3
0.26933	-3
0.27300	-2
0.27667	-2
0.28033	-3
0.28400	-4
0.28767	-5
0.29133	-6
0.29500	-10
0.29867	-14
0.30233	-15
0.30600	-15
0.30967	-13
0.31333	-11
0.31700	-8
0.32067	-4
0.32433	1
0.32800	0
0.33167	-1
0.33533	-5
0.33900	-11
0.34267	-15
0.34633	-18
0.35000	-21
0.35367	-25
0.35733	-25
0.36100	-20
0.36467	-9
0.36833	1
0.37200	6
0.37567	8
0.37933	6
0.38300	2
0.38667	-3
0.39033	-9
0.39400	-12
0.39767	-14
0.40133	-14
0.40500	-15
0.40867	-16
0.41233	-20
0.41600	-23
0.41967	-25
0.42333	-24
0.42700	-20
0.43067	-16
0.43433	-14
0.43800	-15
0.44167	-15
0.44533	-14
0.44900	-14
0.45267	-13
0.45633	-11
0.46000	-9
0.46367	-5
0.46733	-3
0.47100	-3
0.47467	-4
0.47833	-6
0.48200	-7
0.48567	-6
0.48933	-4
0.49300	-0
0.49667	2
0.50033	3
0.50400	1
0.50767	-2
0.51133	-3
0.51500	-2
0.51867	-1
0.52233	-1
0.52600	1
0.52967	1
0.53333	-1
0.53700	-4
0.54067	-1
0.54433	5
0.54800	6
0.55167	-0
0.55533	-10
0.55900	-16
0.56267	-20
0.56633	-23
0.57000	-25
0.57367	-26
0.57733	-25
0.58100	-23
0.58467	-23
0.58833	-23
0.59200	-23
0.59567	-21
0.59933	-19
0.60300	-19
0.60667	-18
0.61033	-15
0.61400	-15
0.61767	-16
0.62133	-16
0.62500	-16
0.62867	-13
0.63233	-9
0.63600	-6
0.63967	-6
0.64333	-7
0.64700	-5
0.65067	-3
0.65433	-4
0.65800	-7
0.66167	-12
0.66533	-14
0.66900	-16
0.67267	-18
0.67633	-22
0.68000	-23
0.68367	-24
0.68733	-22
0.69100	-19
0.69467	-19
0.69833	-19
0.70200	-17
0.70567	-13
0.70933	-8
0.71300	-5
0.71667	-9
0.72033	-20
0.72400	-31
0.72767	-37
0.73133	-38
0.73500	-33
0.73867	-22
0.74233	-12
0.74600	-6
0.74967	-4
0.75333	-6
0.75700	-7
0.76067	-3
0.76433	2
0.76800	7
0.77167	10
0.77533	11
0.77900	9
0.78267	1
0.78633	-9
0.79000	-18
0.79367	-23
0.79733	-25
0.80100	-24
0.80467	-22
0.80833	-20
0.81200	-20
0.81567	-21
0.81933	-20
0.82300	-18
0.82667	-14
0.83033	-10
0.83400	-8
0.83767	-9
0.84133	-10
0.84500	-8
0.84867	-5
0.85233	-1
0.85600	-0
0.85967	-3
0.86333	-8
0.86700	-17
0.87067	-27
0.87433	-34
0.87800	-36
0.88167	-39
0.88533	-41
0.88900	-38
0.89267	-32
0.89633	-29
0.90000	-29
0.90367	-32
0.90733	-36
0.91100	-40
0.91467	-41
0.91833	-38
0.92200	-33
0.92567	-31
0.92933	-30
0.93300	-27
0.93667	-23
0.94033	-20
0.94400	-19
0.94767	-22
0.95133	-27
0.95500	-30
0.95867	-33
0.96233	-34
0.96600	-35
0.96967	-36
0.97333	-35
0.97700	-34
0.98067	-35
0.98433	-38
0.98800	-39
0.99167	-35
0.99533	-30
0.99900	-27
1.00267	-25
1.00633	-22
1.01000	-18
1.01367	-13
1.01733	-7
1.02100	-1
1.02467	6
1.02833	9
1.03200	7
1.03567	7
1.03933	4
1.04300	-3
1.04667	-8
1.05033	-10
1.05400	-6
1.05767	2
1.06133	8
1.06500	9
1.06867	5
1.07233	-0
1.07600	-4
1.07967	-6
1.08333	-9
1.08700	-12
1.09067	-17
1.09433	-20
1.09800	-22
1.10167	-23
1.10533	-24
1.10900	-26
1.11267	-28
1.11633	-32
1.12000	-37
1.12367	-38
1.12733	-37
1.13100	-37
1.13467	-37
1.13833	-36
1.14200	-33
1.14567	-25
1.14933	-17
1.15300	-10
1.15667	-8
1.16033	-7
1.16400	-8
1.16767	-8
1.17133	-9
1.17500	-11
1.17867	-11
1.18233	-11
1.18600	-12
1.18967	-15
1.19333	-18
1.19700	-22
1.20067	-27
1.20433	-33
1.20800	-35
1.21167	-35
1.21533	-34
1.21900	-30
1.22267	-23
1.22633	-20
1.23000	-21
1.23367	-24
1.23733	-28
1.24100	-29
1.24467	-29
1.24833	-26
1.25200	-25
1.25567	-25
1.25933	-28
1.26300	-25
1.26667	-21
1.27033	-21
1.27400	-23
1.27767	-24
1.28133	-20
1.28500	-17
1.28867	-15
1.29233	-12
1.29600	-12
1.29967	-14
1.30333	-18
1.30700	-23
1.31067	-29
1.31433	-33
1.31800	-38
1.32167	-41
1.32533	-38
1.32900	-32
1.33267	-26
1.33633	-21
1.34000	-20
1.34367	-25
1.34733	-29
1.35100	-31
1.35467	-33
1.35833	-33
1.36200	-31
1.36567	-31
1.36933	-32
1.37300	-32
1.37667	-31
1.38033	-31
1.38400	-31
1.38767	-28
1.39133	-26
1.39500	-23
1.39867	-21
1.40233	-18
1.40600	-14
1.40967	-14
1.41333	-17
1.41700	-22
1.42067	-25
1.42433	-26
1.42800	-26
1.43167	-24
1.43533	-19
1.43900	-12
1.44267	-8
1.44633	74
1.45000	376
1.45367	901
1.45733	1519
1.46100	2099
1.46467	2573
1.46833	2902
1.47200	3035
1.47567	2938
1.47933	2625
1.48300	2178
1.48667	1703
1.49033	1275
1.49400	927
1.49767	661
1.50133	466
1.50500	326
1.50867	225
1.51233	155
1.51600	107
1.51967	75
1.52333	53
1.52700	38
1.53067	32
1.53433	57
1.53800	180
1.54167	460
1.54533	880
1.54900	1348
1.55267	1769
1.55633	2096
1.56000	2297
1.56367	2337
1.56733	2195
1.57100	1896
1.57467	1514
1.57833	1133
1.58200	808
1.58567	558
1.58933	375
1.59300	244
1.59667	152
1.60033	87
1.60400	45
1.60767	20
1.61133	5
1.61500	-3
1.61867	-12
1.62233	-22
1.62600	-28
1.62967	-35
1.63333	-42
1.63700	-51
1.64067	-59
1.64433	-62
1.64800	-64
1.65167	-65
1.65533	-67
1.65900	-66
1.66267	-63
1.66633	-57
1.67000	-52
1.67367	-47
1.67733	-44
1.68100	-42
1.68467	-39
1.68833	-35
1.69200	-35
1.69567	-40
1.69933	-47
1.70300	-51
1.70667	-53
1.71033	-55
1.71400	-55
1.71767	-53
1.72133	-53
1.72500	-58
1.72867	-62
1.73233	-59
1.73600	-54
1.73967	-50
1.74333	-48
1.74700	-48
1.75067	-51
1.75433	-52
1.75800	-54
1.76167	-56
1.76533	-57
1.76900	-61
1.77267	-63
1.77633	-64
1.78000	-67
1.78367	-70
1.78733	-72
1.79100	-73
1.79467	-72
1.79833	-66
1.80200	-56
1.80567	-49
1.80933	-47
1.81300	-50
1.81667	-55
1.82033	-57
1.82400	-56
1.82767	-58
1.83133	-63
1.83500	-67
1.83867	-66
1.84233	-61
1.84600	-56
1.84967	-55
1.85333	-57
1.85700	-62
1.86067	-64
1.86433	-65
1.86800	-66
1.87167	-65
1.87533	-60
1.87900	-50
1.88267	-40
1.88633	-33
1.89000	-29
1.89367	-28
1.89733	-31
1.90100	-36
1.90467	-40
1.90833	-44
1.91200	-50
1.91567	-55
1.91933	-59
1.92300	-62
1.92667	-63
1.93033	-62
1.93400	-57
1.93767	-55
1.94133	-55
1.94500	-43
1.94867	64
1.95233	720
1.95600	3909
1.95967	15542
1.96333	47739
1.96700	116486
1.97067	230999
1.97433	382706
1.97800	546710
1.98167	693823
1.98533	799759
1.98900	848397
1.99267	834402
1.99633	764131
2.00000	654575
2.00367	527954
2.00733	404658
2.01100	298028
2.01467	213388
2.01833	150222
2.02200	105071
2.02567	73725
2.02933	52350
2.03300	37903
2.03667	28151
2.04033	21527
2.04400	16975
2.04767	13793
2.05133	11520
2.05500	9855
2.05867	8603
2.06233	7641
2.06600	6880
2.06967	6263
2.07333	5754
2.07700	5324
2.08067	4959
2.08433	4642
2.08800	4366
2.09167	4127
2.09533	3909
2.09900	3704
2.10267	3515
2.10633	3341
2.11000	3183
2.11367	3039
2.11733	2906
2.12100	2784
2.12467	2673
2.12833	2569
2.13200	2473
2.13567	2384
2.13933	2304
2.14300	2233
2.14667	2162
2.15033	2091
2.15400	2021
2.15767	1956
2.16133	1896
2.16500	1838
2.16867	1780
2.17233	1723
2.17600	1670
2.17967	1625
2.18333	1582
2.18700	1544
2.19067	1509
2.19433	1473
2.19800	1433
2.20167	1392
2.20533	1351
2.20900	1312
2.21267	1276
2.21633	1245
2.22000	1217
2.22367	1189
2.22733	1164
2.23100	1144
2.23467	1127
2.23833	1109
2.24200	1088
2.24567	1068
2.24933	1049
2.25300	1030
2.25667	1007
2.26033	984
2.26400	963
2.26767	945
2.27133	932
2.27500	920
2.27867	908
2.28233	893
2.28600	872
2.28967	851
2.29333	832
2.29700	813
2.30067	797
2.30433	784
2.30800	772
2.31167	761
2.31533	750
2.31900	739
2.32267	729
2.32633	720
2.33000	710
2.33367	699
2.33733	690
2.34100	680
2.34467	670
2.34833	659
2.35200	648
2.35567	638
2.35933	629
2.36300	621
2.36667	616
2.37033	611
2.37400	606
2.37767	599
2.38133	595
2.38500	592
2.38867	589
2.39233	581
2.39600	571
2.39967	561
2.40333	553
2.40700	546
2.41067	536
2.41433	525
2.41800	513
2.42167	503
2.42533	499
2.42900	501
2.43267	505
2.43633	507
2.44000	505
2.44367	498
2.44733	488
2.45100	478
2.45467	468
2.45833	461
2.46200	456
2.46567	452
2.46933	447
2.47300	442
2.47667	439
2.48033	434
2.48400	428
2.48767	425
2.49133	421
2.49500	414
2.49867	409
2.50233	403
2.50600	397
2.50967	395
2.51333	396
2.51700	401
2.52067	405
2.52433	405
2.52800	402
2.53167	398
2.53533	392
2.53900	384
2.54267	375
2.54633	371
2.55000	367
2.55367	364
2.55733	362
2.56100	363
2.56467	363
2.56833	366
2.57200	369
2.57567	373
2.57933	372
2.58300	366
2.58667	358
2.59033	350
2.59400	345
2.59767	342
2.60133	340
2.60500	334
2.60867	328
2.61233	324
2.61600	323
2.61967	323
2.62333	321
2.62700	317
2.63067	313
2.63433	309
2.63800	305
2.64167	303
2.64533	303
2.64900	305
2.65267	307
2.65633	312
2.66000	315
2.66367	316
2.66733	316
2.67100	312
2.67467	304
2.67833	295
2.68200	291
2.68567	291
2.68933	292
2.69300	296
2.69667	298
2.70033	296
2.70400	291
2.70767	289
2.71133	287
2.71500	283
2.71867	278
2.72233	276
2.72600	278
2.72967	284
2.73333	286
2.73700	289
2.74067	295
2.74433	298
2.74800	298
2.75167	295
2.75533	292
2.75900	292
2.76267	291
2.76633	287
2.77000	282
2.77367	277
2.77733	274
2.78100	273
2.78467	275
2.78833	278
2.79200	282
2.79567	283
2.79933	284
2.80300	287
2.80667	292
2.81033	296
2.81400	293
2.81767	285
2.82133	275
2.82500	267
2.82867	259
2.83233	252
2.83600	251
2.83967	253
2.84333	255
2.84700	256
2.85067	259
2.85433	263
2.85800	269
2.86167	274
2.86533	278
2.86900	277
2.87267	275
2.87633	273
2.88000	272
2.88367	269
2.88733	267
2.89100	266
2.89467	265
2.89833	266
2.90200	267
2.90567	266
2.90933	266
2.91300	265
2.91667	264
2.92033	266
2.92400	271
2.92767	276
2.93133	276
2.93500	274
2.93867	273
2.94233	270
2.94600	264
2.94967	259
2.95333	257
2.95700	255
2.96067	253
2.96433	252
2.96800	252
2.97167	253
2.97533	256
2.97900	262
2.98267	270
2.98633	277
2.99000	282
2.99367	285
2.99733	287
3.00100	290
3.00467	292
3.00833	289
3.01200	282
3.01567	274
3.01933	268
3.02300	263
3.02667	262
3.03033	261
3.03400	263
3.03767	268
3.04133	272
3.04500	271
3.04867	268
3.05233	262
3.05600	256
3.05967	253
3.06333	251
3.06700	252
3.07067	256
3.07433	260
3.07800	265
3.08167	268
3.08533	270
3.08900	272
3.09267	274
3.09633	274
3.10000	274
3.10367	271
3.10733	267
3.11100	263
3.11467	257
3.11833	251
3.12200	245
3.12567	241
3.12933	239
3.13300	239
3.13667	243
3.14033	247
3.14400	249
3.14767	254
3.15133	260
3.15500	263
3.15867	257
3.16233	248
3.16600	242
3.16967	239
3.17333	241
3.17700	246
3.18067	252
3.18433	255
3.18800	257
3.19167	258
3.19533	260
3.19900	261
3.20267	260
3.20633	257
3.21000	253
3.21367	251
3.21733	249
3.22100	250
3.22467	249
3.22833	249
3.23200	256
3.23567	263
3.23933	265
3.24300	265
3.24667	262
3.25033	263
3.25400	264
3.25767	264
3.26133	264
3.26500	262
3.26867	259
3.27233	254
3.27600	249
3.27967	248
3.28333	250
3.28700	252
3.29067	254
3.29433	257
3.29800	261
3.30167	264
3.30533	267
3.30900	270
3.31267	270
3.31633	266
3.32000	261
3.32367	256
3.32733	253
3.33100	252
3.33467	251
3.33833	248
3.34200	247
3.34567	248
3.34933	249
3.35300	247
3.35667	242
3.36033	236
3.36400	231
3.36767	229
3.37133	229
3.37500	231
3.37867	237
3.38233	244
3.38600	247
3.38967	250
3.39333	252
3.39700	253
3.40067	255
3.40433	255
3.40800	252
3.41167	249
3.41533	248
3.41900	250
3.42267	252
3.42633	251
3.43000	249
3.43367	247
3.43733	243
3.44100	237
3.44467	234
3.44833	228
3.45200	224
3.45567	222
3.45933	223
3.46300	224
3.46667	225
3.47033	226
3.47400	225
3.47767	223
3.48133	225
3.48500	230
3.48867	238
3.49233	245
3.49600	248
3.49967	248
3.50333	246
3.50700	243
3.51067	238
3.51433	230
3.51800	221
3.52167	218
3.52533	221
3.52900	226
3.53267	228
3.53633	226
3.54000	225
3.54367	226
3.54733	226
3.55100	225
3.55467	223
3.55833	222
3.56200	222
3.56567	224
3.56933	228
3.57300	231
3.57667	236
3.58033	240
3.58400	241
3.58767	238
3.59133	233
3.59500	229
3.59867	229
3.60233	234
3.60600	240
3.60967	242
3.61333	240
3.61700	233
3.62067	228
3.62433	223
3.62800	219
3.63167	217
3.63533	216
3.63900	213
3.64267	211
3.64633	211
3.65000	210
3.65367	211
3.65733	214
3.66100	219
3.66467	222
3.66833	224
3.67200	227
3.67567	229
3.67933	231
3.68300	229
3.68667	226
3.69033	221
3.69400	216
3.69767	212
3.70133	212
3.70500	214
3.70867	219
3.71233	225
3.71600	229
3.71967	233
3.72333	232
3.72700	228
3.73067	223
3.73433	221
3.73800	221
3.74167	224
3.74533	224
3.74900	224
3.75267	224
3.75633	221
3.76000	215
3.76367	207
3.76733	199
3.77100	196
3.77467	196
3.77833	198
3.78200	199
3.78567	200
3.78933	198
3.79300	194
3.79667	192
3.80033	190
3.80400	186
3.80767	184
3.81133	183
3.81500	185
3.81867	190
3.82233	193
3.82600	196
3.82967	197
3.83333	197
3.83700	196
3.84067	194
3.84433	197
3.84800	202
3.85167	207
3.85533	207
3.85900	201
3.86267	193
3.86633	184
3.87000	179
3.87367	181
3.87733	186
3.88100	190
3.88467	192
3.88833	195
3.89200	198
3.89567	199
3.89933	199
3.90300	199
3.90667	195
3.91033	190
3.91400	188
3.91767	189
3.92133	189
3.92500	188
3.92867	184
3.93233	179
3.93600	177
3.93967	177
3.94333	181
3.94700	186
3.95067	190
3.95433	192
3.95800	192
3.96167	191
3.96533	190
3.96900	190
3.97267	189
3.97633	188
3.98000	187
3.98367	185
3.98733	180
3.99100	173
3.99467	169
3.99833	168

[Chromatogram (Ch2)]
Interval(msec)	220
# of Points	1091
Start Time(min)	0.002
End Time(min)	3.998
R.Time (min)	Intensity
0.00167	0
0.00533	0
0.00900	0
0.01267	1
0.01633	1
0.02000	1
0.02367	1
0.02733	2
0.03100	2
0.03467	2
0.03833	2
0.04200	3
0.04567	3
0.04933	3
0.05300	3
0.05667	3
0.06033	3
0.06400	3
0.06767	3
0.07133	3
0.07500	3
0.07867	3
0.08233	2
0.08600	2
0.08967	2
0.09333	2
0.09700	2
0.10067	2
0.10433	2
0.10800	2
0.11167	2
0.11533	2
0.11900	2
0.12267	2
0.12633	3
0.13000	3
0.13367	3
0.13733	2
0.14100	3
0.14467	3
0.14833	3
0.15200	3
0.15567	3
0.15933	3
0.16300	3
0.16667	3
0.17033	2
0.17400	2
0.17767	2
0.18133	2
0.18500	2
0.18867	2
0.19233	2
0.19600	2
0.19967	2
0.20333	2
0.20700	2
0.21067	3
0.21433	3
0.21800	3
0.22167	3
0.22533	3
0.22900	3
0.23267	2
0.23633	2
0.24000	1
0.24367	1
0.24733	1
0.25100	1
0.25467	1
0.25833	1
0.26200	1
0.26567	1
0.26933	1
0.27300	1
0.27667	1
0.28033	2
0.28400	2
0.28767	2
0.29133	2
0.29500	2
0.29867	2
0.30233	1
0.30600	1
0.30967	1
0.31333	1
0.31700	1
0.32067	1
0.32433	0
0.32800	0
0.33167	-0
0.33533	-0
0.33900	-0
0.34267	0
0.34633	0
0.35000	0
0.35367	0
0.35733	0
0.36100	0
0.36467	0
0.36833	1
0.37200	1
0.37567	1
0.37933	0
0.38300	0
0.38667	0
0.39033	0
0.39400	-0
0.39767	0
0.40133	0
0.40500	0
0.40867	0
0.41233	1
0.41600	1
0.41967	1
0.42333	1
0.42700	1
0.43067	1
0.43433	1
0.43800	1
0.44167	1
0.44533	1
0.44900	1
0.45267	0
0.45633	0
0.46000	0
0.46367	0
0.46733	0
0.47100	0
0.47467	0
0.47833	0
0.48200	1
0.48567	1
0.48933	1
0.49300	1
0.49667	0
0.50033	0
0.50400	0
0.50767	-0
0.51133	-0
0.51500	-0
0.51867	-0
0.52233	-0
0.52600	-1
0.52967	-1
0.53333	-0
0.53700	-0
0.54067	-0
0.54433	0
0.54800	0
0.55167	1
0.55533	1
0.55900	1
0.56267	1
0.56633	1
0.57000	1
0.57367	1
0.57733	1
0.58100	1
0.58467	0
0.58833	0
0.59200	-0
0.59567	-0
0.59933	-1
0.60300	-1
0.60667	-1
0.61033	-1
0.61400	-1
0.61767	-1
0.62133	-1
0.62500	-1
0.62867	-1
0.63233	-1
0.63600	-1
0.63967	-1
0.64333	-1
0.64700	-1
0.65067	-1
0.65433	-1
0.65800	-1
0.66167	-1
0.66533	-0
0.66900	-0
0.67267	0
0.67633	0
0.68000	-0
0.68367	-0
0.68733	-0
0.69100	-0
0.69467	-0
0.69833	-0
0.70200	-0
0.70567	-0
0.70933	-0
0.71300	-0
0.71667	-0
0.72033	-0
0.72400	-0
0.72767	-0
0.73133	-0
0.73500	-0
0.73867	0
0.74233	0
0.74600	0
0.74967	0
0.75333	0
0.75700	-0
0.76067	-0
0.76433	-0
0.76800	-1
0.77167	-1
0.77533	-1
0.77900	-1
0.78267	-1
0.78633	-1
0.79000	-1
0.79367	-1
0.79733	-1
0.80100	-1
0.80467	-1
0.80833	-1
0.81200	-1
0.81567	-1
0.81933	-1
0.82300	-1
0.82667	-1
0.83033	-1
0.83400	-1
0.83767	-1
0.84133	-0
0.84500	-0
0.84867	-0
0.85233	0
0.85600	0
0.85967	1
0.86333	1
0.86700	1
0.87067	1
0.87433	1
0.87800	1
0.88167	0
0.88533	0
0.88900	0
0.89267	-0
0.89633	-0
0.90000	-0
0.90367	-0
0.90733	-0
0.91100	-0
0.91467	-0
0.91833	-0
0.92200	-0
0.92567	-1
0.92933	-1
0.93300	-1
0.93667	-1
0.94033	-1
0.94400	-1
0.94767	-2
0.95133	-1
0.95500	-1
0.95867	-1
0.96233	-1
0.96600	-1
0.96967	-1
0.97333	-0
0.97700	0
0.98067	0
0.98433	0
0.98800	-0
0.99167	-0
0.99533	-1
0.99900	-1
1.00267	-1
1.00633	-1
1.01000	-1
1.01367	-1
1.01733	-1
1.02100	-1
1.02467	-1
1.02833	-1
1.03200	-1
1.03567	-0
1.03933	-0
1.04300	-0
1.04667	0
1.05033	0
1.05400	0
1.05767	0
1.06133	0
1.06500	-0
1.06867	-0
1.07233	-0
1.07600	-0
1.07967	-0
1.08333	-0
1.08700	-0
1.09067	-1
1.09433	-1
1.09800	-1
1.10167	-1
1.10533	-1
1.10900	-1
1.11267	-1
1.11633	-1
1.12000	-1
1.12367	-2
1.12733	-2
1.13100	-2
1.13467	-2
1.13833	-2
1.14200	-2
1.14567	-2
1.14933	-2
1.15300	-3
1.15667	-3
1.16033	-2
1.16400	-2
1.16767	-2
1.17133	-2
1.17500	-2
1.17867	-2
1.18233	-2
1.18600	-2
1.18967	-2
1.19333	-2
1.19700	-1
1.20067	-1
1.20433	-1
1.20800	-1
1.21167	-1
1.21533	-1
1.21900	-1
1.22267	-1
1.22633	-1
1.23000	-1
1.23367	-1
1.23733	-1
1.24100	-1
1.24467	-1
1.24833	-1
1.25200	-1
1.25567	-1
1.25933	-1
1.26300	-1
1.26667	-1
1.27033	-1
1.27400	-1
1.27767	-1
1.28133	-1
1.28500	-1
1.28867	-1
1.29233	-1
1.29600	-1
1.29967	-1
1.30333	-1
1.30700	-1
1.31067	-0
1.31433	-0
1.31800	-0
1.32167	0
1.32533	0
1.32900	0
1.33267	-0
1.33633	-0
1.34000	-1
1.34367	-1
1.34733	-2
1.35100	-2
1.35467	-2
1.35833	-2
1.36200	-2
1.36567	-2
1.36933	-2
1.37300	-2
1.37667	-2
1.38033	-2
1.38400	-2
1.38767	-2
1.39133	-2
1.39500	-2
1.39867	-2
1.40233	-1
1.40600	-1
1.40967	-1
1.41333	-1
1.41700	-1
1.42067	-2
1.42433	-2
1.42800	-2
1.43167	-2
1.43533	-2
1.43900	-2
1.44267	-3
1.44633	-3
1.45000	-3
1.45367	-2
1.45733	-2
1.46100	-2
1.46467	-2
1.46833	-2
1.47200	-1
1.47567	-2
1.47933	-2
1.48300	-2
1.48667	-3
1.49033	-3
1.49400	-3
1.49767	-3
1.50133	-3
1.50500	-4
1.50867	-4
1.51233	-4
1.51600	-4
1.51967	-4
1.52333	-4
1.52700	-4
1.53067	-3
1.53433	-3
1.53800	-3
1.54167	-3
1.54533	-2
1.54900	-2
1.55267	-1
1.55633	-1
1.56000	-1
1.56367	-1
1.56733	-1
1.57100	-1
1.57467	-1
1.57833	-0
1.58200	-1
1.58567	-1
1.58933	-1
1.59300	-2
1.59667	-2
1.60033	-3
1.60400	-5
1.60767	-6
1.61133	-8
1.61500	-10
1.61867	-12
1.62233	-15
1.62600	-18
1.62967	-21
1.63333	-24
1.63700	-27
1.64067	-30
1.64433	-34
1.64800	-37
1.65167	-40
1.65533	-43
1.65900	-46
1.66267	-50
1.66633	-54
1.67000	-58
1.67367	-62
1.67733	-67
1.68100	-71
1.68467	-76
1.68833	-80
1.69200	-83
1.69567	-86
1.69933	-89
1.70300	-91
1.70667	-93
1.71033	-94
1.71400	-95
1.71767	-95
1.72133	-96
1.72500	-96
1.72867	-95
1.73233	-95
1.73600	-95
1.73967	-94
1.74333	-94
1.74700	-93
1.75067	-93
1.75433	-93
1.75800	-93
1.76167	-94
1.76533	-96
1.76900	-97
1.77267	-98
1.77633	-99
1.78000	-100
1.78367	-100
1.78733	-101
1.79100	-100
1.79467	-100
1.79833	-99
1.80200	-98
1.80567	-97
1.80933	-96
1.81300	-95
1.81667	-95
1.82033	-95
1.82400	-96
1.82767	-97
1.83133	-97
1.83500	-98
1.83867	-99
1.84233	-99
1.84600	-99
1.84967	-99
1.85333	-98
1.85700	-98
1.86067	-97
1.86433	-97
1.86800	-97
1.87167	-98
1.87533	-98
1.87900	-98
1.88267	-99
1.88633	-99
1.89000	-99
1.89367	-99
1.89733	-99
1.90100	-99
1.90467	-99
1.90833	-99
1.91200	-99
1.91567	-98
1.91933	-98
1.92300	-97
1.92667	-96
1.93033	-95
1.93400	-95
1.93767	-94
1.94133	-93
1.94500	-93
1.94867	-93
1.95233	-94
1.95600	-94
1.95967	-94
1.96333	-94
1.96700	-94
1.97067	-93
1.97433	-93
1.97800	-92
1.98167	-92
1.98533	-92
1.98900	-91
1.99267	-91
1.99633	-91
2.00000	-91
2.00367	-91
2.00733	-91
2.01100	-91
2.01467	-91
2.01833	-91
2.02200	-90
2.02567	-90
2.02933	-90
2.03300	-90
2.03667	-91
2.04033	-91
2.04400	-92
2.04767	-92
2.05133	-92
2.05500	-92
2.05867	-91
2.06233	-89
2.06600	-89
2.06967	-88
2.07333	-88
2.07700	-88
2.08067	-88
2.08433	-88
2.08800	-88
2.09167	-88
2.09533	-88
2.09900	-88
2.10267	-88
2.10633	-87
2.11000	-87
2.11367	-86
2.11733	-86
2.12100	-85
2.12467	-85
2.12833	-84
2.13200	-84
2.13567	-83
2.13933	-83
2.14300	-82
2.14667	-82
2.15033	-81
2.15400	-81
2.15767	-80
2.16133	-80
2.16500	-80
2.16867	-80
2.17233	-80
2.17600	-80
2.17967	-80
2.18333	-80
2.18700	-80
2.19067	-80
2.19433	-80
2.19800	-80
2.20167	-79
2.20533	-79
2.20900	-79
2.21267	-78
2.21633	-78
2.22000	-77
2.22367	-77
2.22733	-76
2.23100	-76
2.23467	-76
2.23833	-75
2.24200	-75
2.24567	-74
2.24933	-74
2.25300	-74
2.25667	-73
2.26033	-73
2.26400	-73
2.26767	-73
2.27133	-73
2.27500	-74
2.27867	-74
2.28233	-73
2.28600	-73
2.28967	-72
2.29333	-72
2.29700	-72
2.30067	-72
2.30433	-72
2.30800	-71
2.31167	-71
2.31533	-70
2.31900	-70
2.32267	-69
2.32633	-68
2.33000	-67
2.33367	-67
2.33733	-67
2.34100	-67
2.34467	-66
2.34833	-66
2.35200	-65
2.35567	-63
2.35933	-62
2.36300	-60
2.36667	-58
2.37033	-56
2.37400	-54
2.37767	-51
2.38133	-47
2.38500	-44
2.38867	-40
2.39233	-35
2.39600	-31
2.39967	-27
2.40333	-22
2.40700	-18
2.41067	-15
2.41433	-11
2.41800	-8
2.42167	-6
2.42533	-4
2.42900	-2
2.43267	-1
2.43633	0
2.44000	2
2.44367	3
2.44733	4
2.45100	6
2.45467	7
2.45833	9
2.46200	10
2.46567	11
2.46933	11
2.47300	12
2.47667	12
2.48033	13
2.48400	13
2.48767	14
2.49133	14
2.49500	14
2.49867	14
2.50233	15
2.50600	16
2.50967	16
2.51333	17
2.51700	18
2.52067	18
2.52433	18
2.52800	18
2.53167	18
2.53533	17
2.53900	17
2.54267	16
2.54633	16
2.55000	15
2.55367	15
2.55733	14
2.56100	13
2.56467	13
2.56833	13
2.57200	13
2.57567	13
2.57933	13
2.58300	13
2.58667	14
2.59033	14
2.59400	13
2.59767	13
2.60133	14
2.60500	14
2.60867	15
2.61233	15
2.61600	16
2.61967	17
2.62333	17
2.62700	18
2.63067	18
2.63433	18
2.63800	19
2.64167	19
2.64533	19
2.64900	20
2.65267	20
2.65633	20
2.66000	21
2.66367	21
2.66733	21
2.67100	21
2.67467	21
2.67833	21
2.68200	21
2.68567	22
2.68933	22
2.69300	23
2.69667	23
2.70033	24
2.70400	25
2.70767	25
2.71133	26
2.71500	26
2.71867	26
2.72233	27
2.72600	27
2.72967	28
2.73333	28
2.73700	28
2.74067	28
2.74433	28
2.74800	28
2.75167	27
2.75533	27
2.75900	26
2.76267	26
2.76633	26
2.77000	26
2.77367	26
2.77733	26
2.78100	26
2.78467	26
2.78833	27
2.79200	27
2.79567	27
2.79933	27
2.80300	27
2.80667	27
2.81033	27
2.81400	27
2.81767	27
2.82133	27
2.82500	27
2.82867	27
2.83233	27
2.83600	27
2.83967	27
2.84333	27
2.84700	27
2.85067	27
2.85433	27
2.85800	25
2.86167	22
2.86533	16
2.86900	7
2.87267	-5
2.87633	-22
2.88000	-44
2.88367	-71
2.88733	-103
2.89100	-141
2.89467	-185
2.89833	-233
2.90200	-285
2.90567	-342
2.90933	-401
2.91300	-463
2.91667	-527
2.92033	-592
2.92400	-657
2.92767	-721
2.93133	-783
2.93500	-841
2.93867	-896
2.94233	-950
2.94600	-1006
2.94967	-1058
2.95333	-1098
2.95700	-1118
2.96067	-1113
2.96433	-1083
2.96800	-1033
2.97167	-967
2.97533	-891
2.97900	-810
2.98267	-728
2.98633	-648
2.99000	-572
2.99367	-501
2.99733	-437
3.00100	-378
3.00467	-326
3.00833	-280
3.01200	-239
3.01567	-204
3.01933	-173
3.02300	-146
3.02667	-123
3.03033	-103
3.03400	-86
3.03767	-72
3.04133	-59
3.04500	-48
3.04867	-39
3.05233	-31
3.05600	-24
3.05967	-18
3.06333	-13
3.06700	-9
3.07067	-5
3.07433	-2
3.07800	1
3.08167	4
3.08533	6
3.08900	7
3.09267	9
3.09633	10
3.10000	11
3.10367	11
3.10733	12
3.11100	13
3.11467	14
3.11833	14
3.12200	15
3.12567	16
3.12933	16
3.13300	17
3.13667	17
3.14033	17
3.14400	18
3.14767	18
3.15133	19
3.15500	19
3.15867	19
3.16233	20
3.16600	20
3.16967	20
3.17333	20
3.17700	21
3.18067	21
3.18433	21
3.18800	22
3.19167	22
3.19533	22
3.19900	23
3.20267	23
3.20633	23
3.21000	23
3.21367	24
3.21733	24
3.22100	24
3.22467	24
3.22833	25
3.23200	25
3.23567	25
3.23933	25
3.24300	26
3.24667	26
3.25033	26
3.25400	26
3.25767	26
3.26133	26
3.26500	26
3.26867	27
3.27233	27
3.27600	27
3.27967	28
3.28333	28
3.28700	28
3.29067	28
3.29433	28
3.29800	28
3.30167	28
3.30533	29
3.30900	28
3.31267	28
3.31633	28
3.32000	28
3.32367	28
3.32733	28
3.33100	28
3.33467	28
3.33833	28
3.34200	28
3.34567	28
3.34933	28
3.35300	28
3.35667	28
3.36033	29
3.36400	29
3.36767	28
3.37133	28
3.37500	28
3.37867	28
3.38233	28
3.38600	28
3.38967	29
3.39333	29
3.39700	29
3.40067	29
3.40433	29
3.40800	29
3.41167	29
3.41533	29
3.41900	29
3.42267	29
3.42633	28
3.43000	28
3.43367	28
3.43733	28
3.44100	27
3.44467	27
3.44833	27
3.45200	27
3.45567	27
3.45933	27
3.46300	27
3.46667	27
3.47033	27
3.47400	27
3.47767	28
3.48133	28
3.48500	28
3.48867	28
3.49233	28
3.49600	28
3.49967	28
3.50333	28
3.50700	28
3.51067	28
3.51433	28
3.51800	28
3.52167	28
3.52533	28
3.52900	29
3.53267	29
3.53633	29
3.54000	29
3.54367	30
3.54733	30
3.55100	30
3.55467	30
3.55833	30
3.56200	30
3.56567	30
3.56933	30
3.57300	30
3.57667	30
3.58033	30
3.58400	30
3.58767	30
3.59133	30
3.59500	30
3.59867	30
3.60233	30
3.60600	30
3.60967	30
3.61333	30
3.61700	29
3.62067	29
3.62433	29
3.62800	29
3.63167	29
3.63533	29
3.63900	30
3.64267	29
3.64633	29
3.65000	29
3.65367	29
3.65733	29
3.66100	30
3.66467	30
3.66833	30
3.67200	30
3.67567	30
3.67933	30
3.68300	30
3.68667	30
3.69033	30
3.69400	30
3.69767	30
3.70133	29
3.70500	29
3.70867	29
3.71233	29
3.71600	29
3.71967	29
3.72333	29
3.72700	29
3.73067	29
3.73433	29
3.73800	29
3.74167	29
3.74533	29
3.74900	29
3.75267	29
3.75633	30
3.76000	30
3.76367	30
3.76733	30
3.77100	30
3.77467	30
3.77833	30
3.78200	30
3.78567	30
3.78933	30
3.79300	30
3.79667	30
3.80033	30
3.80400	29
3.80767	29
3.81133	29
3.81500	29
3.81867	29
3.82233	29
3.82600	29
3.82967	29
3.83333	29
3.83700	29
3.84067	28
3.84433	28
3.84800	28
3.85167	29
3.85533	29
3.85900	29
3.86267	29
3.86633	29
3.87000	29
3.87367	29
3.87733	30
3.88100	30
3.88467	29
3.88833	29
3.89200	29
3.89567	29
3.89933	29
3.90300	29
3.90667	29
3.91033	29
3.91400	29
3.91767	29
3.92133	29
3.92500	29
3.92867	29
3.93233	29
3.93600	29
3.93967	29
3.94333	29
3.94700	29
3.95067	29
3.95433	29
3.95800	29
3.96167	29
3.96533	29
3.96900	29
3.97267	29
3.97633	29
3.98000	29
3.98367	29
3.98733	29
3.99100	29
3.99467	29
3.99833	29

[Chromatogram (Ch3)]
Interval(msec)	220
# of Points	1091
Start Time(min)	0.002
End Time(min)	3.998
R.Time (min)	Intensity
0.00167	-0
0.00533	-2
0.00900	-2
0.01267	-2
0.01633	-3
0.02000	-3
0.02367	-2
0.02733	-2
0.03100	-3
0.03467	-3
0.03833	-3
0.04200	-2
0.04567	-3
0.04933	-3
0.05300	1
0.05667	3
0.06033	3
0.06400	3
0.06767	2
0.07133	3
0.07500	3
0.07867	6
0.08233	11
0.08600	11
0.08967	11
0.09333	8
0.09700	6
0.10067	4
0.10433	3
0.10800	2
0.11167	2
0.11533	2
0.11900	2
0.12267	0
0.12633	-2
0.13000	-0
0.13367	3
0.13733	7
0.14100	10
0.14467	10
0.14833	11
0.15200	13
0.15567	14
0.15933	15
0.16300	12
0.16667	10
0.17033	7
0.17400	7
0.17767	9
0.18133	10
0.18500	9
0.18867	9
0.19233	9
0.19600	10
0.19967	10
0.20333	10
0.20700	10
0.21067	9
0.21433	6
0.21800	3
0.22167	1
0.22533	-1
0.22900	-4
0.23267	-4
0.23633	-4
0.24000	-2
0.24367	0
0.24733	3
0.25100	6
0.25467	9
0.25833	11
0.26200	10
0.26567	9
0.26933	7
0.27300	6
0.27667	5
0.28033	6
0.28400	10
0.28767	12
0.29133	10
0.29500	7
0.29867	3
0.30233	0
0.30600	1
0.30967	3
0.31333	2
0.31700	1
0.32067	-2
0.32433	-1
0.32800	0
0.33167	4
0.33533	7
0.33900	10
0.34267	10
0.34633	10
0.35000	8
0.35367	5
0.35733	4
0.36100	4
0.36467	4
0.36833	4
0.37200	4
0.37567	3
0.37933	3
0.38300	3
0.38667	1
0.39033	-1
0.39400	-3
0.39767	-2
0.40133	0
0.40500	2
0.40867	4
0.41233	6
0.41600	5
0.41967	3
0.42333	1
0.42700	1
0.43067	2
0.43433	2
0.43800	3
0.44167	3
0.44533	1
0.44900	1
0.45267	3
0.45633	5
0.46000	7
0.46367	7
0.46733	5
0.47100	5
0.47467	5
0.47833	5
0.48200	4
0.48567	4
0.48933	3
0.49300	2
0.49667	0
0.50033	0
0.50400	1
0.50767	3
0.51133	6
0.51500	8
0.51867	10
0.52233	9
0.52600	9
0.52967	8
0.53333	8
0.53700	8
0.54067	9
0.54433	9
0.54800	4
0.55167	0
0.55533	-3
0.55900	-4
0.56267	-2
0.56633	-1
0.57000	-2
0.57367	-3
0.57733	-4
0.58100	-6
0.58467	-4
0.58833	-2
0.59200	-3
0.59567	-4
0.59933	-4
0.60300	-2
0.60667	-0
0.61033	2
0.61400	2
0.61767	1
0.62133	0
0.62500	2
0.62867	5
0.63233	6
0.63600	5
0.63967	5
0.64333	6
0.64700	4
0.65067	0
0.65433	-3
0.65800	-4
0.66167	-1
0.66533	-1
0.66900	-2
0.67267	1
0.67633	4
0.68000	7
0.68367	8
0.68733	8
0.69100	7
0.69467	3
0.69833	2
0.70200	2
0.70567	2
0.70933	5
0.71300	3
0.71667	0
0.72033	-1
0.72400	-2
0.72767	-2
0.73133	-1
0.73500	0
0.73867	1
0.74233	1
0.74600	2
0.74967	5
0.75333	7
0.75700	9
0.76067	10
0.76433	9
0.76800	12
0.77167	13
0.77533	12
0.77900	13
0.78267	14
0.78633	14
0.79000	12
0.79367	10
0.79733	9
0.80100	5
0.80467	1
0.80833	-3
0.81200	-4
0.81567	-3
0.81933	-1
0.82300	2
0.82667	3
0.83033	3
0.83400	4
0.83767	4
0.84133	5
0.84500	9
0.84867	8
0.85233	5
0.85600	6
0.85967	7
0.86333	7
0.86700	7
0.87067	6
0.87433	3
0.87800	1
0.88167	-0
0.88533	-0
0.88900	-1
0.89267	-1
0.89633	-0
0.90000	1
0.90367	1
0.90733	2
0.91100	4
0.91467	5
0.91833	6
0.92200	6
0.92567	6
0.92933	7
0.93300	8
0.93667	8
0.94033	8
0.94400	8
0.94767	8
0.95133	8
0.95500	7
0.95867	4
0.96233	2
0.96600	1
0.96967	1
0.97333	1
0.97700	0
0.98067	-1
0.98433	-1
0.98800	1
0.99167	3
0.99533	4
0.99900	5
1.00267	5
1.00633	4
1.01000	5
1.01367	7
1.01733	8
1.02100	10
1.02467	9
1.02833	8
1.03200	4
1.03567	3
1.03933	2
1.04300	1
1.04667	1
1.05033	2
1.05400	3
1.05767	5
1.06133	4
1.06500	5
1.06867	5
1.07233	5
1.07600	4
1.07967	4
1.08333	7
1.08700	8
1.09067	6
1.09433	5
1.09800	6
1.10167	9
1.10533	9
1.10900	6
1.11267	4
1.11633	-1
1.12000	-4
1.12367	-5
1.12733	-5
1.13100	-2
1.13467	2
1.13833	5
1.14200	7
1.14567	9
1.14933	9
1.15300	6
1.15667	3
1.16033	2
1.16400	2
1.16767	1
1.17133	1
1.17500	1
1.17867	2
1.18233	3
1.18600	4
1.18967	5
1.19333	3
1.19700	2
1.20067	2
1.20433	1
1.20800	2
1.21167	4
1.21533	6
1.21900	8
1.22267	8
1.22633	8
1.23000	8
1.23367	8
1.23733	8
1.24100	7
1.24467	8
1.24833	9
1.25200	11
1.25567	11
1.25933	11
1.26300	12
1.26667	10
1.27033	7
1.27400	4
1.27767	5
1.28133	5
1.28500	5
1.28867	4
1.29233	1
1.29600	-1
1.29967	-2
1.30333	-1
1.30700	1
1.31067	3
1.31433	4
1.31800	6
1.32167	10
1.32533	13
1.32900	15
1.33267	15
1.33633	15
1.34000	14
1.34367	12
1.34733	10
1.35100	10
1.35467	11
1.35833	11
1.36200	9
1.36567	8
1.36933	9
1.37300	8
1.37667	8
1.38033	7
1.38400	5
1.38767	4
1.39133	6
1.39500	8
1.39867	11
1.40233	13
1.40600	12
1.40967	10
1.41333	8
1.41700	7
1.42067	7
1.42433	5
1.42800	2
1.43167	2
1.43533	1
1.43900	1
1.44267	-0
1.44633	1
1.45000	2
1.45367	5
1.45733	7
1.46100	8
1.46467	9
1.46833	11
1.47200	10
1.47567	11
1.47933	11
1.48300	9
1.48667	8
1.49033	5
1.49400	3
1.49767	2
1.50133	1
1.50500	1
1.50867	1
1.51233	1
1.51600	4
1.51967	4
1.52333	3
1.52700	4
1.53067	6
1.53433	7
1.53800	6
1.54167	6
1.54533	7
1.54900	9
1.55267	10
1.55633	11
1.56000	10
1.56367	9
1.56733	8
1.57100	8
1.57467	12
1.57833	16
1.58200	18
1.58567	21
1.58933	20
1.59300	17
1.59667	16
1.60033	16
1.60400	17
1.60767	18
1.61133	17
1.61500	14
1.61867	13
1.62233	12
1.62600	11
1.62967	13
1.63333	16
1.63700	18
1.64067	17
1.64433	15
1.64800	12
1.65167	11
1.65533	12
1.65900	14
1.66267	15
1.66633	14
1.67000	13
1.67367	14
1.67733	16
1.68100	18
1.68467	21
1.68833	21
1.69200	18
1.69567	16
1.69933	17
1.70300	18
1.70667	15
1.71033	15
1.71400	15
1.71767	15
1.72133	15
1.72500	16
1.72867	15
1.73233	13
1.73600	15
1.73967	19
1.74333	20
1.74700	20
1.75067	22
1.75433	23
1.75800	21
1.76167	20
1.76533	20
1.76900	20
1.77267	19
1.77633	19
1.78000	17
1.78367	14
1.78733	10
1.79100	9
1.79467	9
1.79833	11
1.80200	14
1.80567	16
1.80933	16
1.81300	17
1.81667	21
1.82033	23
1.82400	23
1.82767	22
1.83133	23
1.83500	24
1.83867	24
1.84233	24
1.84600	23
1.84967	23
1.85333	23
1.85700	24
1.86067	26
1.86433	25
1.86800	26
1.87167	27
1.87533	28
1.87900	28
1.88267	28
1.88633	28
1.89000	25
1.89367	22
1.89733	25
1.90100	28
1.90467	28
1.90833	29
1.91200	32
1.91567	34
1.91933	34
1.92300	31
1.92667	28
1.93033	29
1.93400	31
1.93767	34
1.94133	37
1.94500	38
1.94867	39
1.95233	40
1.95600	40
1.95967	42
1.96333	41
1.96700	40
1.97067	40
1.97433	41
1.97800	42
1.98167	44
1.98533	44
1.98900	43
1.99267	43
1.99633	44
2.00000	43
2.00367	45
2.00733	46
2.01100	46
2.01467	45
2.01833	42
2.02200	42
2.02567	44
2.02933	45
2.03300	43
2.03667	43
2.04033	43
2.04400	44
2.04767	45
2.05133	47
2.05500	49
2.05867	49
2.06233	50
2.06600	51
2.06967	50
2.07333	51
2.07700	53
2.08067	54
2.08433	59
2.08800	60
2.09167	61
2.09533	61
2.09900	61
2.10267	60
2.10633	61
2.11000	60
2.11367	59
2.11733	59
2.12100	60
2.12467	61
2.12833	65
2.13200	68
2.13567	69
2.13933	71
2.14300	71
2.14667	72
2.15033	72
2.15400	74
2.15767	73
2.16133	73
2.16500	75
2.16867	75
2.17233	75
2.17600	76
2.17967	77
2.18333	78
2.18700	81
2.19067	82
2.19433	81
2.19800	82
2.20167	81
2.20533	79
2.20900	79
2.21267	80
2.21633	83
2.22000	84
2.22367	85
2.22733	84
2.23100	83
2.23467	83
2.23833	83
2.24200	86
2.24567	89
2.24933	91
2.25300	91
2.25667	92
2.26033	94
2.26400	97
2.26767	99
2.27133	99
2.27500	99
2.27867	100
2.28233	103
2.28600	105
2.28967	107
2.29333	109
2.29700	111
2.30067	112
2.30433	112
2.30800	109
2.31167	108
2.31533	112
2.31900	116
2.32267	117
2.32633	119
2.33000	123
2.33367	122
2.33733	123
2.34100	123
2.34467	123
2.34833	126
2.35200	125
2.35567	123
2.35933	123
2.36300	124
2.36667	123
2.37033	122
2.37400	120
2.37767	118
2.38133	118
2.38500	117
2.38867	115
2.39233	114
2.39600	117
2.39967	124
2.40333	132
2.40700	138
2.41067	140
2.41433	142
2.41800	141
2.42167	141
2.42533	145
2.42900	147
2.43267	146
2.43633	145
2.44000	151
2.44367	199
2.44733	284
2.45100	363
2.45467	420
2.45833	446
2.46200	440
2.46567	418
2.46933	396
2.47300	377
2.47667	363
2.48033	350
2.48400	333
2.48767	311
2.49133	286
2.49500	263
2.49867	247
2.50233	238
2.50600	234
2.50967	234
2.51333	237
2.51700	241
2.52067	245
2.52433	248
2.52800	250
2.53167	245
2.53533	237
2.53900	225
2.54267	210
2.54633	197
2.55000	184
2.55367	172
2.55733	162
2.56100	155
2.56467	149
2.56833	145
2.57200	142
2.57567	141
2.57933	140
2.58300	140
2.58667	142
2.59033	147
2.59400	153
2.59767	156
2.60133	160
2.60500	168
2.60867	174
2.61233	181
2.61600	186
2.61967	190
2.62333	192
2.62700	191
2.63067	188
2.63433	184
2.63800	177
2.64167	169
2.64533	162
2.64900	155
2.65267	146
2.65633	138
2.66000	127
2.66367	116
2.66733	105
2.67100	97
2.67467	90
2.67833	82
2.68200	77
2.68567	72
2.68933	68
2.69300	64
2.69667	59
2.70033	56
2.70400	51
2.70767	50
2.71133	51
2.71500	49
2.71867	45
2.72233	44
2.72600	42
2.72967	41
2.73333	42
2.73700	42
2.74067	42
2.74433	43
2.74800	45
2.75167	43
2.75533	42
2.75900	41
2.76267	42
2.76633	45
2.77000	46
2.77367	44
2.77733	43
2.78100	46
2.78467	47
2.78833	47
2.79200	47
2.79567	50
2.79933	53
2.80300	54
2.80667	55
2.81033	57
2.81400	61
2.81767	65
2.82133	68
2.82500	68
2.82867	70
2.83233	72
2.83600	80
2.83967	99
2.84333	141
2.84700	220
2.85067	355
2.85433	566
2.85800	860
2.86167	1240
2.86533	1694
2.86900	2192
2.87267	2694
2.87633	3156
2.88000	3540
2.88367	3819
2.88733	3975
2.89100	4006
2.89467	3928
2.89833	3762
2.90200	3532
2.90567	3262
2.90933	2972
2.91300	2676
2.91667	2387
2.92033	2113
2.92400	1859
2.92767	1629
2.93133	1418
2.93500	1230
2.93867	1063
2.94233	916
2.94600	788
2.94967	678
2.95333	582
2.95700	500
2.96067	429
2.96433	368
2.96800	313
2.97167	265
2.97533	225
2.97900	190
2.98267	162
2.98633	134
2.99000	114
2.99367	94
2.99733	78
3.00100	65
3.00467	55
3.00833	48
3.01200	42
3.01567	35
3.01933	29
3.02300	21
3.02667	14
3.03033	10
3.03400	8
3.03767	7
3.04133	6
3.04500	7
3.04867	5
3.05233	2
3.05600	0
3.05967	1
3.06333	-0
3.06700	-2
3.07067	-1
3.07433	-1
3.07800	-3
3.08167	-3
3.08533	-4
3.08900	-4
3.09267	-2
3.09633	-2
3.10000	-3
3.10367	-3
3.10733	-3
3.11100	-1
3.11467	2
3.11833	3
3.12200	3
3.12567	0
3.12933	1
3.13300	3
3.13667	5
3.14033	8
3.14400	11
3.14767	13
3.15133	17
3.15500	20
3.15867	26
3.16233	29
3.16600	29
3.16967	29
3.17333	30
3.17700	30
3.18067	30
3.18433	32
3.18800	36
3.19167	40
3.19533	45
3.19900	49
3.20267	51
3.20633	53
3.21000	54
3.21367	58
3.21733	53
3.22100	35
3.22467	30
3.22833	51
3.23200	101
3.23567	172
3.23933	254
3.24300	342
3.24667	429
3.25033	510
3.25400	587
3.25767	661
3.26133	727
3.26500	783
3.26867	832
3.27233	874
3.27600	910
3.27967	938
3.28333	959
3.28700	974
3.29067	985
3.29433	993
3.29800	1000
3.30167	1003
3.30533	1006
3.30900	1008
3.31267	1010
3.31633	1011
3.32000	1007
3.32367	1003
3.32733	999
3.33100	995
3.33467	991
3.33833	990
3.34200	991
3.34567	990
3.34933	986
3.35300	982
3.35667	978
3.36033	973
3.36400	967
3.36767	963
3.37133	961
3.37500	959
3.37867	956
3.38233	953
3.38600	949
3.38967	945
3.39333	939
3.39700	933
3.40067	929
3.40433	927
3.40800	923
3.41167	918
3.41533	916
3.41900	912
3.42267	907
3.42633	903
3.43000	898
3.43367	894
3.43733	890
3.44100	887
3.44467	882
3.44833	878
3.45200	875
3.45567	871
3.45933	868
3.46300	865
3.46667	862
3.47033	859
3.47400	857
3.47767	854
3.48133	852
3.48500	852
3.48867	849
3.49233	846
3.49600	842
3.49967	839
3.50333	837
3.50700	835
3.51067	832
3.51433	830
3.51800	827
3.52167	825
3.52533	824
3.52900	822
3.53267	820
3.53633	816
3.54000	814
3.54367	813
3.54733	812
3.55100	811
3.55467	810
3.55833	808
3.56200	805
3.56567	804
3.56933	805
3.57300	805
3.57667	804
3.58033	806
3.58400	805
3.58767	801
3.59133	797
3.59500	796
3.59867	793
3.60233	792
3.60600	792
3.60967	792
3.61333	792
3.61700	790
3.62067	788
3.62433	788
3.62800	787
3.63167	787
3.63533	789
3.63900	790
3.64267	790
3.64633	787
3.65000	786
3.65367	786
3.65733	785
3.66100	783
3.66467	782
3.66833	781
3.67200	779
3.67567	778
3.67933	778
3.68300	779
3.68667	778
3.69033	775
3.69400	772
3.69767	770
3.70133	767
3.70500	764
3.70867	762
3.71233	761
3.71600	759
3.71967	755
3.72333	752
3.72700	749
3.73067	745
3.73433	743
3.73800	743
3.74167	742
3.74533	742
3.74900	741
3.75267	739
3.75633	735
3.76000	730
3.76367	728
3.76733	727
3.77100	726
3.77467	725
3.77833	723
3.78200	722
3.78567	723
3.78933	722
3.79300	718
3.79667	714
3.80033	711
3.80400	707
3.80767	705
3.81133	705
3.81500	707
3.81867	707
3.82233	704
3.82600	703
3.82967	702
3.83333	703
3.83700	701
3.84067	694
3.84433	690
3.84800	687
3.85167	684
3.85533	682
3.85900	682
3.86267	683
3.86633	682
3.87000	680
3.87367	678
3.87733	675
3.88100	673
3.88467	670
3.88833	668
3.89200	668
3.89567	666
3.89933	664
3.90300	664
3.90667	663
3.91033	662
3.91400	659
3.91767	657
3.92133	654
3.92500	651
3.92867	647
3.93233	645
3.93600	646
3.93967	648
3.94333	648
3.94700	646
3.95067	643
3.95433	641
3.95800	638
3.96167	635
3.96533	632
3.96900	631
3.97267	635
3.97633	636
3.98000	635
3.98367	633
3.98733	632
3.99100	632
3.99467	631
3.99833	624

[Status Trace (Column Oven Temperature)]
Interval(msec)	1000
# of Points	240
Start Time(min)	0.010
End Time(min)	3.993
Intensity Units	
Intensity Multiplier	1
R.Time (min)	Intensity
0.00983	35.08
0.02650	35.06
0.04317	35.06
0.05983	35.06
0.07650	35.06
0.09317	35.06
0.10983	35.05
0.12650	35.05
0.14317	35.04
0.15983	35.03
0.17650	35.04
0.19317	35.02
0.20983	35.02
0.22650	35.03
0.24317	35.02
0.25983	35.02
0.27650	35.01
0.29317	35.01
0.30983	35.02
0.32650	35.01
0.34317	35.02
0.35983	35.01
0.37650	35.01
0.39317	35.00
0.40983	35.00
0.42650	35.00
0.44317	35.00
0.45983	35.00
0.47650	34.99
0.49317	34.99
0.50983	34.99
0.52650	34.98
0.54317	34.98
0.55983	34.98
0.57650	34.98
0.59317	34.98
0.60983	34.99
0.62650	34.99
0.64317	35.00
0.65983	35.00
0.67650	35.00
0.69317	35.00
0.70983	35.00
0.72650	35.00
0.74317	35.00
0.75983	35.00
0.77650	35.00
0.79317	35.00
0.80983	35.00
0.82650	35.00
0.84317	34.99
0.85983	34.98
0.87650	34.99
0.89317	34.98
0.90983	34.98
0.92650	34.99
0.94317	34.99
0.95983	34.99
0.97650	34.99
0.99317	35.00
1.00983	35.00
1.02650	34.99
1.04317	34.99
1.05983	34.99
1.07650	34.99
1.09317	34.99
1.10983	34.99
1.12650	34.99
1.14317	35.00
1.15983	35.00
1.17650	35.00
1.19317	34.99
1.20983	34.99
1.22650	35.00
1.24317	35.00
1.25983	35.00
1.27650	34.99
1.29317	34.99
1.30983	34.98
1.32650	34.99
1.34317	34.99
1.35983	34.98
1.37650	34.98
1.39317	34.98
1.40983	34.98
1.42650	34.98
1.44317	34.99
1.45983	35.00
1.47650	35.00
1.49317	35.01
1.50983	35.02
1.52650	35.01
1.54317	35.01
1.55983	35.00
1.57650	35.00
1.59317	35.01
1.60983	35.08
1.62650	35.21
1.64317	35.40
1.65983	35.66
1.67650	36.01
1.69317	36.39
1.70983	36.74
1.72650	37.06
1.74317	37.38
1.75983	37.74
1.77650	38.09
1.79317	38.40
1.80983	38.70
1.82650	39.05
1.84317	39.39
1.85983	39.71
1.87650	40.06
1.89317	40.39
1.90983	40.73
1.92650	41.03
1.94317	41.35
1.95983	41.68
1.97650	41.99
1.99317	42.32
2.00983	42.64
2.02650	42.96
2.04317	43.31
2.05983	43.64
2.07650	43.97
2.09317	44.31
2.10983	44.63
2.12650	44.96
2.14317	45.30
2.15983	45.62
2.17650	45.96
2.19317	46.29
2.20983	46.61
2.22650	46.93
2.24317	47.27
2.25983	47.60
2.27650	47.94
2.29317	48.28
2.30983	48.62
2.32650	48.93
2.34317	49.27
2.35983	49.52
2.37650	49.67
2.39317	49.69
2.40983	49.67
2.42650	49.69
2.44317	49.70
2.45983	49.71
2.47650	49.72
2.49317	49.73
2.50983	49.74
2.52650	49.76
2.54317	49.77
2.55983	49.77
2.57650	49.79
2.59317	49.82
2.60983	49.83
2.62650	49.84
2.64317	49.84
2.65983	49.85
2.67650	49.87
2.69317	49.86
2.70983	49.86
2.72650	49.85
2.74317	49.86
2.75983	49.88
2.77650	49.89
2.79317	49.88
2.80983	49.89
2.82650	49.90
2.84317	49.91
2.85983	49.93
2.87650	49.94
2.89317	49.95
2.90983	49.96
2.92650	49.97
2.94317	49.97
2.95983	49.98
2.97650	49.98
2.99317	49.99
3.00983	50.00
3.02650	50.02
3.04317	50.03
3.05983	50.04
3.07650	50.05
3.09317	50.06
3.10983	50.07
3.12650	50.08
3.14317	50.08
3.15983	50.09
3.17650	50.10
3.19317	50.11
3.20983	50.10
3.22650	50.09
3.24317	50.08
3.25983	50.07
3.27650	50.06
3.29317	50.06
3.30983	50.05
3.32650	50.06
3.34317	50.05
3.35983	50.05
3.37650	50.05
3.39317	50.05
3.40983	50.06
3.42650	50.05
3.44317	50.07
3.45983	50.07
3.47650	50.07
3.49317	50.08
3.50983	50.09
3.52650	50.08
3.54317	50.08
3.55983	50.07
3.57650	50.06
3.59317	50.07
3.60983	50.07
3.62650	50.07
3.64317	50.07
3.65983	50.07
3.67650	50.07
3.69317	50.07
3.70983	50.08
3.72650	50.08
3.74317	50.08
3.75983	50.07
3.77650	50.06
3.79317	50.07
3.80983	50.06
3.82650	50.06
3.84317	50.07
3.85983	50.07
3.87650	50.07
3.89317	50.07
3.90983	50.07
3.92650	50.08
3.94317	50.08
3.95983	50.08
3.97650	50.09
3.99317	50.09

[Status Trace (Injection Unit Temperature)]
Interval(msec)	1000
# of Points	240
Start Time(min)	0.010
End Time(min)	3.993
Intensity Units	
Intensity Multiplier	1
R.Time (min)	Intensity
0.00983	99.98
0.02650	99.98
0.04317	99.98
0.05983	99.98
0.07650	99.98
0.09317	99.98
0.10983	99.98
0.12650	99.98
0.14317	99.98
0.15983	99.98
0.17650	99.98
0.19317	99.98
0.20983	99.98
0.22650	99.98
0.24317	99.99
0.25983	99.98
0.27650	99.98
0.29317	99.98
0.30983	99.98
0.32650	99.99
0.34317	99.99
0.35983	99.99
0.37650	99.99
0.39317	99.99
0.40983	99.99
0.42650	99.99
0.44317	99.98
0.45983	99.99
0.47650	99.99
0.49317	99.99
0.50983	99.99
0.52650	99.98
0.54317	99.99
0.55983	99.99
0.57650	99.99
0.59317	99.99
0.60983	99.99
0.62650	99.99
0.64317	99.99
0.65983	99.98
0.67650	99.99
0.69317	99.99
0.70983	99.98
0.72650	99.98
0.74317	99.99
0.75983	99.98
0.77650	99.98
0.79317	99.98
0.80983	99.98
0.82650	99.98
0.84317	99.98
0.85983	99.99
0.87650	99.99
0.89317	99.98
0.90983	99.98
0.92650	99.98
0.94317	99.99
0.95983	99.98
0.97650	99.98
0.99317	99.98
1.00983	99.98
1.02650	99.98
1.04317	99.98
1.05983	99.98
1.07650	99.98
1.09317	99.98
1.10983	99.98
1.12650	99.98
1.14317	99.98
1.15983	99.98
1.17650	99.98
1.19317	99.98
1.20983	99.98
1.22650	99.98
1.24317	99.98
1.25983	99.98
1.27650	99.98
1.29317	99.98
1.30983	99.98
1.32650	99.98
1.34317	99.98
1.35983	99.98
1.37650	99.98
1.39317	99.98
1.40983	99.98
1.42650	99.98
1.44317	99.98
1.45983	99.98
1.47650	99.98
1.49317	99.98
1.50983	99.98
1.52650	99.98
1.54317	99.98
1.55983	99.98
1.57650	99.98
1.59317	99.99
1.60983	99.99
1.62650	99.98
1.64317	99.99
1.65983	99.98
1.67650	99.99
1.69317	99.99
1.70983	99.99
1.72650	99.98
1.74317	99.98
1.75983	99.99
1.77650	99.98
1.79317	99.99
1.80983	99.99
1.82650	99.99
1.84317	99.99
1.85983	99.99
1.87650	99.98
1.89317	99.98
1.90983	99.98
1.92650	99.99
1.94317	99.98
1.95983	99.98
1.97650	99.98
1.99317	99.98
2.00983	99.98
2.02650	99.98
2.04317	99.98
2.05983	99.98
2.07650	99.97
2.09317	99.97
2.10983	99.98
2.12650	99.97
2.14317	99.97
2.15983	99.97
2.17650	99.97
2.19317	99.97
2.20983	99.97
2.22650	99.96
2.24317	99.96
2.25983	99.96
2.27650	99.96
2.29317	99.96
2.30983	99.96
2.32650	99.96
2.34317	99.96
2.35983	99.95
2.37650	99.96
2.39317	99.96
2.40983	99.96
2.42650	99.96
2.44317	99.96
2.45983	99.96
2.47650	99.96
2.49317	99.96
2.50983	99.96
2.52650	99.95
2.54317	99.96
2.55983	99.96
2.57650	99.96
2.59317	99.96
2.60983	99.96
2.62650	99.97
2.64317	99.96
2.65983	99.96
2.67650	99.97
2.69317	99.97
2.70983	99.97
2.72650	99.97
2.74317	99.97
2.75983	99.97
2.77650	99.98
2.79317	99.98
2.80983	99.98
2.82650	99.98
2.84317	99.99
2.85983	99.99
2.87650	99.99
2.89317	99.99
2.90983	99.99
2.92650	99.99
2.94317	99.99
2.95983	100.00
2.97650	100.00
2.99317	100.00
3.00983	100.00
3.02650	100.01
3.04317	100.00
3.05983	100.01
3.07650	100.01
3.09317	100.01
3.10983	100.01
3.12650	100.01
3.14317	100.01
3.15983	100.01
3.17650	100.02
3.19317	100.02
3.20983	100.02
3.22650	100.02
3.24317	100.02
3.25983	100.02
3.27650	100.02
3.29317	100.02
3.30983	100.03
3.32650	100.02
3.34317	100.02
3.35983	100.03
3.37650	100.03
3.39317	100.03
3.40983	100.03
3.42650	100.03
3.44317	100.03
3.45983	100.03
3.47650	100.03
3.49317	100.03
3.50983	100.03
3.52650	100.04
3.54317	100.04
3.55983	100.03
3.57650	100.04
3.59317	100.03
3.60983	100.04
3.62650	100.04
3.64317	100.04
3.65983	100.04
3.67650	100.04
3.69317	100.04
3.70983	100.04
3.72650	100.04
3.74317	100.04
3.75983	100.04
3.77650	100.05
3.79317	100.04
3.80983	100.04
3.82650	100.04
3.84317	100.04
3.85983	100.05
3.87650	100.05
3.89317	100.04
3.90983	100.04
3.92650	100.04
3.94317	100.05
3.95983	100.05
3.97650	100.05
3.99317	100.05

[Status Trace (Carrier Gas Pressure)]
Interval(msec)	1000
# of Points	240
Start Time(min)	0.010
End Time(min)	3.993
Intensity Units	
Intensity Multiplier	1
R.Time (min)	Intensity
0.00983	58.00
0.02650	55.17
0.04317	57.31
0.05983	59.46
0.07650	59.32
0.09317	58.04
0.10983	57.98
0.12650	58.01
0.14317	58.01
0.15983	58.01
0.17650	58.00
0.19317	58.00
0.20983	58.00
0.22650	58.00
0.24317	58.00
0.25983	58.00
0.27650	58.00
0.29317	58.00
0.30983	58.00
0.32650	58.00
0.34317	58.00
0.35983	58.00
0.37650	58.00
0.39317	58.00
0.40983	58.00
0.42650	58.00
0.44317	58.00
0.45983	58.00
0.47650	58.00
0.49317	58.00
0.50983	58.00
0.52650	58.00
0.54317	58.00
0.55983	58.00
0.57650	58.00
0.59317	58.00
0.60983	58.00
0.62650	58.00
0.64317	58.00
0.65983	58.00
0.67650	58.00
0.69317	58.00
0.70983	58.00
0.72650	58.00
0.74317	58.00
0.75983	58.00
0.77650	58.00
0.79317	58.00
0.80983	58.00
0.82650	58.00
0.84317	58.00
0.85983	58.00
0.87650	58.00
0.89317	58.00
0.90983	58.00
0.92650	58.00
0.94317	58.00
0.95983	58.00
0.97650	58.00
0.99317	58.00
1.00983	58.00
1.02650	58.00
1.04317	58.00
1.05983	58.00
1.07650	58.00
1.09317	58.00
1.10983	58.00
1.12650	58.00
1.14317	58.00
1.15983	58.00
1.17650	58.00
1.19317	58.00
1.20983	58.00
1.22650	58.00
1.24317	58.00
1.25983	58.00
1.27650	58.00
1.29317	58.00
1.30983	58.00
1.32650	58.00
1.34317	58.00
1.35983	58.00
1.37650	58.00
1.39317	58.00
1.40983	58.00
1.42650	58.00
1.44317	58.00
1.45983	58.00
1.47650	58.00
1.49317	58.00
1.50983	58.00
1.52650	58.00
1.54317	58.00
1.55983	58.00
1.57650	58.00
1.59317	58.00
1.60983	58.00
1.62650	58.00
1.64317	58.00
1.65983	58.00
1.67650	58.01
1.69317	58.00
1.70983	58.00
1.72650	58.00
1.74317	58.00
1.75983	58.00
1.77650	58.00
1.79317	58.00
1.80983	58.00
1.82650	58.00
1.84317	58.00
1.85983	58.00
1.87650	58.00
1.89317	58.00
1.90983	58.00
1.92650	58.00
1.94317	58.00
1.95983	58.00
1.97650	58.00
1.99317	58.00
2.00983	58.00
2.02650	58.00
2.04317	58.00
2.05983	58.00
2.07650	58.00
2.09317	58.00
2.10983	58.00
2.12650	58.00
2.14317	58.00
2.15983	58.00
2.17650	58.00
2.19317	58.00
2.20983	58.00
2.22650	58.00
2.24317	58.00
2.25983	58.00
2.27650	58.00
2.29317	58.00
2.30983	58.00
2.32650	58.00
2.34317	58.00
2.35983	58.00
2.37650	58.00
2.39317	57.99
2.40983	58.00
2.42650	58.00
2.44317	58.00
2.45983	58.00
2.47650	58.00
2.49317	58.00
2.50983	57.99
2.52650	57.98
2.54317	58.00
2.55983	58.00
2.57650	58.00
2.59317	58.00
2.60983	58.00
2.62650	58.00
2.64317	58.00
2.65983	58.00
2.67650	58.00
2.69317	58.00
2.70983	58.00
2.72650	58.00
2.74317	58.00
2.75983	58.00
2.77650	58.00
2.79317	58.00
2.80983	58.00
2.82650	58.00
2.84317	58.00
2.85983	58.00
2.87650	58.00
2.89317	58.00
2.90983	58.00
2.92650	58.00
2.94317	58.00
2.95983	58.00
2.97650	58.00
2.99317	58.00
3.00983	58.00
3.02650	58.00
3.04317	58.00
3.05983	58.00
3.07650	58.00
3.09317	58.00
3.10983	58.00
3.12650	58.00
3.14317	58.00
3.15983	58.00
3.17650	58.00
3.19317	58.00
3.20983	58.00
3.22650	58.00
3.24317	58.00
3.25983	58.00
3.27650	58.00
3.29317	58.00
3.30983	58.00
3.32650	58.00
3.34317	58.00
3.35983	58.00
3.37650	58.00
3.39317	58.00
3.40983	58.00
3.42650	58.00
3.44317	58.00
3.45983	58.00
3.47650	58.00
3.49317	58.00
3.50983	58.00
3.52650	58.00
3.54317	58.00
3.55983	58.00
3.57650	58.00
3.59317	58.00
3.60983	58.00
3.62650	58.00
3.64317	58.00
3.65983	58.00
3.67650	58.00
3.69317	58.00
3.70983	58.00
3.72650	58.00
3.74317	58.00
3.75983	58.00
3.77650	58.00
3.79317	58.00
3.80983	58.00
3.82650	58.00
3.84317	58.00
3.85983	58.00
3.87650	58.00
3.89317	58.00
3.90983	58.00
3.92650	58.00
3.94317	58.00
3.95983	58.00
3.97650	58.00
3.99317	58.00

[Status Trace (Carrier Gas Flow)]
Interval(msec)	1000
# of Points	240
Start Time(min)	0.010
End Time(min)	3.993
Intensity Units	
Intensity Multiplier	1
R.Time (min)	Intensity
0.00983	34.52
0.02650	34.54
0.04317	34.54
0.05983	34.55
0.07650	34.50
0.09317	34.52
0.10983	34.52
0.12650	34.52
0.14317	34.52
0.15983	34.52
0.17650	34.52
0.19317	34.52
0.20983	34.52
0.22650	34.52
0.24317	34.52
0.25983	34.52
0.27650	34.52
0.29317	34.52
0.30983	34.52
0.32650	34.52
0.34317	34.52
0.35983	34.52
0.37650	34.52
0.39317	34.52
0.40983	34.51
0.42650	34.51
0.44317	34.51
0.45983	34.52
0.47650	34.52
0.49317	34.52
0.50983	34.52
0.52650	34.52
0.54317	34.52
0.55983	34.52
0.57650	34.52
0.59317	34.51
0.60983	34.51
0.62650	34.52
0.64317	34.52
0.65983	34.52
0.67650	34.52
0.69317	34.51
0.70983	34.52
0.72650	34.51
0.74317	34.52
0.75983	34.52
0.77650	34.52
0.79317	34.52
0.80983	34.52
0.82650	34.52
0.84317	34.52
0.85983	34.52
0.87650	34.52
0.89317	34.52
0.90983	34.52
0.92650	34.52
0.94317	34.52
0.95983	34.52
0.97650	34.52
0.99317	34.52
1.00983	34.53
1.02650	34.52
1.04317	34.52
1.05983	34.52
1.07650	34.51
1.09317	34.52
1.10983	34.52
1.12650	34.52
1.14317	34.52
1.15983	34.52
1.17650	34.52
1.19317	34.52
1.20983	34.52
1.22650	34.52
1.24317	34.52
1.25983	34.51
1.27650	34.52
1.29317	34.52
1.30983	34.51
1.32650	34.52
1.34317	34.52
1.35983	34.52
1.37650	34.52
1.39317	34.52
1.40983	34.52
1.42650	34.51
1.44317	34.52
1.45983	34.52
1.47650	34.52
1.49317	34.52
1.50983	34.52
1.52650	34.52
1.54317	34.52
1.55983	34.52
1.57650	34.51
1.59317	34.52
1.60983	34.51
1.62650	34.52
1.64317	34.52
1.65983	34.52
1.67650	34.52
1.69317	34.52
1.70983	34.52
1.72650	34.52
1.74317	34.52
1.75983	34.52
1.77650	34.52
1.79317	34.52
1.80983	34.52
1.82650	34.52
1.84317	34.52
1.85983	34.52
1.87650	34.52
1.89317	34.51
1.90983	34.52
1.92650	34.52
1.94317	34.52
1.95983	34.51
1.97650	34.52
1.99317	34.52
2.00983	34.52
2.02650	34.52
2.04317	34.52
2.05983	34.52
2.07650	34.52
2.09317	34.52
2.10983	34.52
2.12650	34.52
2.14317	34.52
2.15983	34.52
2.17650	34.52
2.19317	34.51
2.20983	34.53
2.22650	34.52
2.24317	34.52
2.25983	34.51
2.27650	34.52
2.29317	34.52
2.30983	34.52
2.32650	34.52
2.34317	34.52
2.35983	34.52
2.37650	34.52
2.39317	34.52
2.40983	34.52
2.42650	34.51
2.44317	34.52
2.45983	34.52
2.47650	34.52
2.49317	34.52
2.50983	34.51
2.52650	34.52
2.54317	34.52
2.55983	34.52
2.57650	34.52
2.59317	34.51
2.60983	34.52
2.62650	34.52
2.64317	34.52
2.65983	34.52
2.67650	34.51
2.69317	34.52
2.70983	34.51
2.72650	34.52
2.74317	34.52
2.75983	34.52
2.77650	34.52
2.79317	34.52
2.80983	34.52
2.82650	34.52
2.84317	34.52
2.85983	34.52
2.87650	34.52
2.89317	34.52
2.90983	34.53
2.92650	34.52
2.94317	34.52
2.95983	34.51
2.97650	34.52
2.99317	34.51
3.00983	34.51
3.02650	34.51
3.04317	34.52
3.05983	34.52
3.07650	34.52
3.09317	34.52
3.10983	34.52
3.12650	34.52
3.14317	34.52
3.15983	34.52
3.17650	34.52
3.19317	34.52
3.20983	34.52
3.22650	34.52
3.24317	34.52
3.25983	34.52
3.27650	34.52
3.29317	34.51
3.30983	34.52
3.32650	34.52
3.34317	34.52
3.35983	34.52
3.37650	34.52
3.39317	34.51
3.40983	34.52
3.42650	34.52
3.44317	34.52
3.45983	34.52
3.47650	34.52
3.49317	34.52
3.50983	34.52
3.52650	34.52
3.54317	34.52
3.55983	34.52
3.57650	34.52
3.59317	34.52
3.60983	34.52
3.62650	34.52
3.64317	34.52
3.65983	34.52
3.67650	34.52
3.69317	34.52
3.70983	34.52
3.72650	34.52
3.74317	34.51
3.75983	34.52
3.77650	34.52
3.79317	34.52
3.80983	34.52
3.82650	34.52
3.84317	34.52
3.85983	34.52
3.87650	34.52
3.89317	34.52
3.90983	34.52
3.92650	34.52
3.94317	34.52
3.95983	34.52
3.97650	34.51
3.99317	34.51

[Status Trace (Column Flow)]
Interval(msec)	1000
# of Points	240
Start Time(min)	0.010
End Time(min)	3.993
Intensity Units	
Intensity Multiplier	1
R.Time (min)	Intensity
0.00983	5.51
0.02650	5.19
0.04317	5.43
0.05983	5.68
0.07650	5.67
0.09317	5.52
0.10983	5.51
0.12650	5.51
0.14317	5.51
0.15983	5.51
0.17650	5.51
0.19317	5.51
0.20983	5.51
0.22650	5.51
0.24317	5.51
0.25983	5.51
0.27650	5.51
0.29317	5.51
0.30983	5.51
0.32650	5.51
0.34317	5.51
0.35983	5.51
0.37650	5.51
0.39317	5.51
0.40983	5.51
0.42650	5.51
0.44317	5.51
0.45983	5.51
0.47650	5.51
0.49317	5.52
0.50983	5.52
0.52650	5.52
0.54317	5.52
0.55983	5.52
0.57650	5.52
0.59317	5.52
0.60983	5.52
0.62650	5.51
0.64317	5.51
0.65983	5.51
0.67650	5.51
0.69317	5.51
0.70983	5.51
0.72650	5.51
0.74317	5.51
0.75983	5.51
0.77650	5.51
0.79317	5.51
0.80983	5.51
0.82650	5.51
0.84317	5.51
0.85983	5.52
0.87650	5.52
0.89317	5.52
0.90983	5.52
0.92650	5.51
0.94317	5.51
0.95983	5.51
0.97650	5.51
0.99317	5.51
1.00983	5.51
1.02650	5.51
1.04317	5.51
1.05983	5.51
1.07650	5.51
1.09317	5.51
1.10983	5.51
1.12650	5.52
1.14317	5.51
1.15983	5.51
1.17650	5.51
1.19317	5.51
1.20983	5.51
1.22650	5.51
1.24317	5.51
1.25983	5.51
1.27650	5.52
1.29317	5.52
1.30983	5.52
1.32650	5.52
1.34317	5.52
1.35983	5.52
1.37650	5.52
1.39317	5.52
1.40983	5.52
1.42650	5.52
1.44317	5.51
1.45983	5.51
1.47650	5.51
1.49317	5.51
1.50983	5.51
1.52650	5.51
1.54317	5.51
1.55983	5.51
1.57650	5.51
1.59317	5.51
1.60983	5.51
1.62650	5.51
1.64317	5.50
1.65983	5.49
1.67650	5.48
1.69317	5.47
1.70983	5.46
1.72650	5.45
1.74317	5.44
1.75983	5.43
1.77650	5.42
1.79317	5.41
1.80983	5.40
1.82650	5.39
1.84317	5.38
1.85983	5.37
1.87650	5.36
1.89317	5.35
1.90983	5.34
1.92650	5.33
1.94317	5.32
1.95983	5.31
1.97650	5.30
1.99317	5.29
2.00983	5.28
2.02650	5.27
2.04317	5.26
2.05983	5.25
2.07650	5.24
2.09317	5.23
2.10983	5.22
2.12650	5.22
2.14317	5.20
2.15983	5.20
2.17650	5.19
2.19317	5.18
2.20983	5.17
2.22650	5.16
2.24317	5.15
2.25983	5.14
2.27650	5.13
2.29317	5.12
2.30983	5.11
2.32650	5.10
2.34317	5.09
2.35983	5.08
2.37650	5.08
2.39317	5.08
2.40983	5.08
2.42650	5.08
2.44317	5.08
2.45983	5.08
2.47650	5.08
2.49317	5.08
2.50983	5.08
2.52650	5.08
2.54317	5.08
2.55983	5.08
2.57650	5.08
2.59317	5.08
2.60983	5.08
2.62650	5.08
2.64317	5.08
2.65983	5.08
2.67650	5.08
2.69317	5.08
2.70983	5.08
2.72650	5.08
2.74317	5.08
2.75983	5.08
2.77650	5.08
2.79317	5.08
2.80983	5.08
2.82650	5.07
2.84317	5.07
2.85983	5.07
2.87650	5.07
2.89317	5.07
2.90983	5.07
2.92650	5.07
2.94317	5.07
2.95983	5.07
2.97650	5.07
2.99317	5.07
3.00983	5.07
3.02650	5.07
3.04317	5.07
3.05983	5.07
3.07650	5.07
3.09317	5.07
3.10983	5.07
3.12650	5.07
3.14317	5.07
3.15983	5.07
3.17650	5.07
3.19317	5.07
3.20983	5.07
3.22650	5.07
3.24317	5.07
3.25983	5.07
3.27650	5.07
3.29317	5.07
3.30983	5.07
3.32650	5.07
3.34317	5.07
3.35983	5.07
3.37650	5.07
3.39317	5.07
3.40983	5.07
3.42650	5.07
3.44317	5.07
3.45983	5.07
3.47650	5.07
3.49317	5.07
3.50983	5.07
3.52650	5.07
3.54317	5.07
3.55983	5.07
3.57650	5.07
3.59317	5.07
3.60983	5.07
3.62650	5.07
3.64317	5.07
3.65983	5.07
3.67650	5.07
3.69317	5.07
3.70983	5.07
3.72650	5.07
3.74317	5.07
3.75983	5.07
3.77650	5.07
3.79317	5.07
3.80983	5.07
3.82650	5.07
3.84317	5.07
3.85983	5.07
3.87650	5.07
3.89317	5.07
3.90983	5.07
3.92650	5.07
3.94317	5.07
3.95983	5.07
3.97650	5.07
3.99317	5.07

[Status Trace (Linear Velocity)]
Interval(msec)	1000
# of Points	240
Start Time(min)	0.010
End Time(min)	3.993
Intensity Units	
Intensity Multiplier	1
R.Time (min)	Intensity
0.00983	39.01
0.02650	37.15
0.04317	38.56
0.05983	39.96
0.07650	39.88
0.09317	39.04
0.10983	39.00
0.12650	39.01
0.14317	39.02
0.15983	39.02
0.17650	39.01
0.19317	39.01
0.20983	39.01
0.22650	39.01
0.24317	39.01
0.25983	39.01
0.27650	39.01
0.29317	39.01
0.30983	39.01
0.32650	39.02
0.34317	39.01
0.35983	39.01
0.37650	39.01
0.39317	39.02
0.40983	39.02
0.42650	39.02
0.44317	39.02
0.45983	39.02
0.47650	39.02
0.49317	39.02
0.50983	39.02
0.52650	39.02
0.54317	39.02
0.55983	39.02
0.57650	39.02
0.59317	39.02
0.60983	39.02
0.62650	39.02
0.64317	39.02
0.65983	39.02
0.67650	39.02
0.69317	39.01
0.70983	39.02
0.72650	39.02
0.74317	39.01
0.75983	39.02
0.77650	39.02
0.79317	39.01
0.80983	39.01
0.82650	39.02
0.84317	39.02
0.85983	39.02
0.87650	39.02
0.89317	39.02
0.90983	39.02
0.92650	39.02
0.94317	39.02
0.95983	39.02
0.97650	39.02
0.99317	39.02
1.00983	39.01
1.02650	39.02
1.04317	39.02
1.05983	39.02
1.07650	39.02
1.09317	39.02
1.10983	39.02
1.12650	39.02
1.14317	39.02
1.15983	39.02
1.17650	39.02
1.19317	39.02
1.20983	39.02
1.22650	39.02
1.24317	39.02
1.25983	39.02
1.27650	39.02
1.29317	39.02
1.30983	39.02
1.32650	39.02
1.34317	39.02
1.35983	39.02
1.37650	39.02
1.39317	39.02
1.40983	39.02
1.42650	39.02
1.44317	39.02
1.45983	39.02
1.47650	39.02
1.49317	39.01
1.50983	39.01
1.52650	39.01
1.54317	39.01
1.55983	39.01
1.57650	39.01
1.59317	39.01
1.60983	39.01
1.62650	39.00
1.64317	38.98
1.65983	38.95
1.67650	38.93
1.69317	38.88
1.70983	38.85
1.72650	38.82
1.74317	38.79
1.75983	38.75
1.77650	38.72
1.79317	38.69
1.80983	38.66
1.82650	38.63
1.84317	38.60
1.85983	38.57
1.87650	38.54
1.89317	38.50
1.90983	38.47
1.92650	38.45
1.94317	38.41
1.95983	38.38
1.97650	38.36
1.99317	38.33
2.00983	38.30
2.02650	38.27
2.04317	38.23
2.05983	38.20
2.07650	38.18
2.09317	38.14
2.10983	38.11
2.12650	38.09
2.14317	38.05
2.15983	38.02
2.17650	38.00
2.19317	37.96
2.20983	37.93
2.22650	37.91
2.24317	37.87
2.25983	37.84
2.27650	37.82
2.29317	37.78
2.30983	37.75
2.32650	37.73
2.34317	37.70
2.35983	37.67
2.37650	37.66
2.39317	37.65
2.40983	37.66
2.42650	37.66
2.44317	37.66
2.45983	37.65
2.47650	37.66
2.49317	37.65
2.50983	37.65
2.52650	37.64
2.54317	37.65
2.55983	37.65
2.57650	37.65
2.59317	37.65
2.60983	37.65
2.62650	37.65
2.64317	37.65
2.65983	37.64
2.67650	37.64
2.69317	37.64
2.70983	37.64
2.72650	37.64
2.74317	37.64
2.75983	37.64
2.77650	37.64
2.79317	37.64
2.80983	37.64
2.82650	37.64
2.84317	37.64
2.85983	37.64
2.87650	37.64
2.89317	37.64
2.90983	37.63
2.92650	37.63
2.94317	37.63
2.95983	37.63
2.97650	37.63
2.99317	37.63
3.00983	37.63
3.02650	37.63
3.04317	37.63
3.05983	37.63
3.07650	37.63
3.09317	37.63
3.10983	37.62
3.12650	37.62
3.14317	37.62
3.15983	37.62
3.17650	37.62
3.19317	37.62
3.20983	37.62
3.22650	37.62
3.24317	37.62
3.25983	37.62
3.27650	37.63
3.29317	37.63
3.30983	37.63
3.32650	37.63
3.34317	37.63
3.35983	37.63
3.37650	37.63
3.39317	37.63
3.40983	37.63
3.42650	37.63
3.44317	37.63
3.45983	37.62
3.47650	37.62
3.49317	37.62
3.50983	37.62
3.52650	37.62
3.54317	37.62
3.55983	37.62
3.57650	37.63
3.59317	37.63
3.60983	37.63
3.62650	37.62
3.64317	37.62
3.65983	37.62
3.67650	37.62
3.69317	37.62
3.70983	37.62
3.72650	37.62
3.74317	37.62
3.75983	37.62
3.77650	37.63
3.79317	37.63
3.80983	37.63
3.82650	37.63
3.84317	37.62
3.85983	37.62
3.87650	37.62
3.89317	37.63
3.90983	37.62
3.92650	37.62
3.94317	37.62
3.95983	37.62
3.97650	37.62
3.99317	37.62

