[Header]
Application Name	LabSolutions
Version	5.110
Data File Name	C:\Users\User\Desktop\Junior\UIC Prairie Sampling\2023\8.18.23\081823_021.gcd
Output Date	8/31/2023
Output Time	12:48:07 PM

[File Information]
Type	Data File
Generated	8/30/2023 6:21:36 PM
Generated by	System Administrator
Modified	8/30/2023 6:27:53 PM
Modified by	System Administrator

[Sample Information]
Operator Name	System Administrator
Acquired	8/30/2023 6:23:52 PM
Sample Type	0:Unknown
Level	0
Sample Name	021
Sample ID	021
ISTD Amount1	1
ISTD Amount2	1
ISTD Amount3	1
ISTD Amount4	1
ISTD Amount5	1
ISTD Amount6	1
ISTD Amount7	1
ISTD Amount8	1
ISTD Amount9	1
ISTD Amount10	1
ISTD Amount11	1
ISTD Amount12	1
ISTD Amount13	1
ISTD Amount14	1
ISTD Amount15	1
ISTD Amount16	1
ISTD Amount17	1
ISTD Amount18	1
ISTD Amount19	1
ISTD Amount20	1
ISTD Amount21	1
ISTD Amount22	1
ISTD Amount23	1
ISTD Amount24	1
ISTD Amount25	1
ISTD Amount26	1
ISTD Amount27	1
ISTD Amount28	1
ISTD Amount29	1
ISTD Amount30	1
ISTD Amount31	1
ISTD Amount32	1
Sample Amount	1
Dilution Factor	1
Vial#	20
Injection Volume	1
Injection Count	1
Bar Code	

[Original Files]
Data File	C:\Users\User\Desktop\Junior\UIC Prairie Sampling\8.18.23\081823_021.gcd
Method File	C:\LabSolutions\Data\GHG_4min_2022\ghg3_togas_w_acet_4 min_new_int.gcm
Batch File	C:\LabSolutions\Data\BATCH FILES\081823.gcb
Report Format File	c:\LabSolutions\System\DEFAULT.lsr

[File Description]


[Configuration]
Instrument Name	C0B7VH3-Instrument1
Instrument #	1
Line #	1
# of Detectors	3
Detector ID	DET#1	DET#2	DET#3
Detector Name	FID	PTCD	ECD
# of Channels	1	1	1

[Peak Table(Ch1)]
# of Peaks	4
Peak#	R.Time	I.Time	F.Time	Area	Height	A/H	Conc.	Mark	ID#	Name	k'	Plate #	Plate Ht.	Tailing	Resolution	Sep.Factor	Area Ratio	Height Ratio	Conc. %	Norm Conc.
1	0.614	0.515	0.775	1602	197	8.136	0.000	   			0.000	145	1037.599	1.457	0.000	0.000	0	0	0.000	0.000
2	1.472	1.428	1.531	6955	3409	2.040	0.000	   	1	CO	1.397	9700	15.464	1.315	6.499	0.000	0	0	0.000	0.000
3	1.564	1.531	1.619	4573	2297	1.990	22.292	 V 	2	CH4	1.547	11270	13.309	1.117	1.545	1.107	0	0	11.488	11.488
4	1.989	1.934	2.422	891261	424992	2.097	171.762	   	3	CO2	2.239	17553	8.545	1.322	7.150	1.448	0	0	88.512	88.512

[Peak Table(Ch2)]
# of Peaks	0

[Peak Table(Ch3)]
# of Peaks	6
Peak#	R.Time	I.Time	F.Time	Area	Height	A/H	Conc.	Mark	ID#	Name	k'	Plate #	Plate Ht.	Tailing	Resolution	Sep.Factor	Area Ratio	Height Ratio	Conc. %	Norm Conc.
1	2.458	2.440	2.510	723	278	2.601	0.000	   			0.000	15428	9.722	0.000	0.000	0.000	0	0	0.000	0.000
2	2.524	2.510	2.572	280	121	2.311	0.000	 V 			0.027	9046	16.583	0.000	0.712	0.000	0	0	0.000	0.000
3	2.623	2.572	2.689	360	98	3.688	0.000	 V 			0.067	10656	14.076	0.000	0.953	2.500	0	0	0.000	0.000
4	2.891	2.770	3.023	14444	3989	3.621	0.214	   	1	N2O	0.176	14106	10.634	1.476	2.690	2.622	0	0	100.000	100.000
5	3.232	3.155	3.514	15121	940	16.091	0.000	   	2	SF6	0.315	325	461.088	0.000	0.838	1.788	0	0	0.000	0.000
6	3.613	3.514	3.995	9051	604	14.974	0.000	 V 			0.470	79	1890.506	0.000	0.326	1.493	0	0	0.000	0.000

[Compound Results(Ch1)]
# of IDs	6
ID#	Name	R.Time	Area	Height	Conc.	Curve	3rd	2nd	1st	Constant	Area Ratio	Height Ratio	Conc. %	Norm Conc.
1	CO	1.472	6955	3409	0.000	Linear	0.000000e+00	0.000000e+00	0.000000e+00	0.000000e+00	0	0	0.000	0.000
2	CH4	1.564	4573	2297	22.292	Linear	0.000000e+00	0.000000e+00	2.051179e+002	0.000000e+00	0	0	11.488	11.488
3	CO2	1.989	891261	424992	171.762	Linear	0.000000e+00	0.000000e+00	5.188919e+003	0.000000e+00	0	0	88.512	88.512
4	Ethylene	0.000	0	0	0.000	Linear	0.000000e+00	0.000000e+00	0.000000e+00	0.000000e+00	0	0	0.000	0.000
5	Acetylene	0.000	0	0	0.000	Linear	0.000000e+00	0.000000e+00	0.000000e+00	0.000000e+00	0	0	0.000	0.000
6	Ethane	0.000	0	0	0.000	Linear	0.000000e+00	0.000000e+00	0.000000e+00	0.000000e+00	0	0	0.000	0.000

[Compound Results(Ch2)]
# of IDs	5
ID#	Name	R.Time	Area	Height	Conc.	Curve	3rd	2nd	1st	Constant	Area Ratio	Height Ratio	Conc. %	Norm Conc.
1	Hydrogen	0.000	0	0	0.000	Linear	0.000000e+00	0.000000e+00	0.000000e+00	0.000000e+00	0	0	0.000	0.000
2	Oxygen	0.000	0	0	0.000	Linear	0.000000e+00	0.000000e+00	0.000000e+00	0.000000e+00	0	0	0.000	0.000
3	Nitrogen	0.000	0	0	0.000	Linear	0.000000e+00	0.000000e+00	0.000000e+00	0.000000e+00	0	0	0.000	0.000
4	Methane	0.000	0	0	0.000	Linear	0.000000e+00	0.000000e+00	0.000000e+00	0.000000e+00	0	0	0.000	0.000
5	Carbon Monoxide	0.000	0	0	0.000	Linear	0.000000e+00	0.000000e+00	0.000000e+00	0.000000e+00	0	0	0.000	0.000

[Compound Results(Ch3)]
# of IDs	2
ID#	Name	R.Time	Area	Height	Conc.	Curve	3rd	2nd	1st	Constant	Area Ratio	Height Ratio	Conc. %	Norm Conc.
1	N2O	2.891	14444	3989	0.214	Linear	0.000000e+00	0.000000e+00	6.759880e+004	0.000000e+00	0	0	100.000	100.000
2	SF6	3.232	15121	940	0.000	Linear	0.000000e+00	0.000000e+00	0.000000e+00	0.000000e+00	0	0	0.000	0.000

[Group Results(Ch1)]
# of Groups	0

[Group Results(Ch2)]
# of Groups	0

[Group Results(Ch3)]
# of Groups	0

[Chromatogram (Ch1)]
Interval(msec)	220
# of Points	1091
Start Time(min)	0.002
End Time(min)	3.998
R.Time (min)	Intensity
0.00167	21
0.00533	13
0.00900	0
0.01267	-12
0.01633	-18
0.02000	-17
0.02367	-13
0.02733	-8
0.03100	-4
0.03467	-4
0.03833	-6
0.04200	-10
0.04567	-12
0.04933	-13
0.05300	-14
0.05667	-14
0.06033	-16
0.06400	-16
0.06767	-15
0.07133	-12
0.07500	-5
0.07867	4
0.08233	13
0.08600	18
0.08967	16
0.09333	13
0.09700	8
0.10067	4
0.10433	6
0.10800	12
0.11167	20
0.11533	25
0.11900	26
0.12267	26
0.12633	23
0.13000	16
0.13367	6
0.13733	-5
0.14100	-13
0.14467	-16
0.14833	-17
0.15200	-17
0.15567	-14
0.15933	-10
0.16300	-9
0.16667	-12
0.17033	-17
0.17400	-21
0.17767	-20
0.18133	-16
0.18500	-11
0.18867	-8
0.19233	-5
0.19600	-5
0.19967	-4
0.20333	-1
0.20700	2
0.21067	2
0.21433	-1
0.21800	-3
0.22167	-1
0.22533	4
0.22900	5
0.23267	4
0.23633	4
0.24000	6
0.24367	6
0.24733	4
0.25100	2
0.25467	-3
0.25833	-7
0.26200	-6
0.26567	-2
0.26933	2
0.27300	3
0.27667	2
0.28033	2
0.28400	5
0.28767	9
0.29133	9
0.29500	4
0.29867	-1
0.30233	-2
0.30600	-2
0.30967	-0
0.31333	4
0.31700	8
0.32067	13
0.32433	18
0.32800	20
0.33167	16
0.33533	12
0.33900	9
0.34267	8
0.34633	12
0.35000	20
0.35367	23
0.35733	18
0.36100	13
0.36467	9
0.36833	6
0.37200	9
0.37567	13
0.37933	15
0.38300	12
0.38667	5
0.39033	-3
0.39400	-10
0.39767	-16
0.40133	-19
0.40500	-17
0.40867	-13
0.41233	-11
0.41600	-11
0.41967	-10
0.42333	-7
0.42700	-4
0.43067	-3
0.43433	-3
0.43800	-1
0.44167	3
0.44533	7
0.44900	12
0.45267	13
0.45633	12
0.46000	9
0.46367	6
0.46733	5
0.47100	3
0.47467	0
0.47833	-1
0.48200	1
0.48567	1
0.48933	-1
0.49300	-3
0.49667	-5
0.50033	-4
0.50400	-2
0.50767	-1
0.51133	2
0.51500	8
0.51867	13
0.52233	17
0.52600	18
0.52967	17
0.53333	18
0.53700	24
0.54067	31
0.54433	38
0.54800	43
0.55167	47
0.55533	54
0.55900	70
0.56267	90
0.56633	108
0.57000	123
0.57367	136
0.57733	146
0.58100	155
0.58467	163
0.58833	170
0.59200	180
0.59567	187
0.59933	190
0.60300	192
0.60667	197
0.61033	204
0.61400	209
0.61767	209
0.62133	204
0.62500	196
0.62867	190
0.63233	187
0.63600	185
0.63967	182
0.64333	181
0.64700	184
0.65067	187
0.65433	188
0.65800	186
0.66167	180
0.66533	176
0.66900	177
0.67267	176
0.67633	169
0.68000	162
0.68367	155
0.68733	150
0.69100	145
0.69467	135
0.69833	122
0.70200	111
0.70567	106
0.70933	102
0.71300	96
0.71667	87
0.72033	80
0.72400	77
0.72767	76
0.73133	77
0.73500	77
0.73867	74
0.74233	66
0.74600	52
0.74967	41
0.75333	39
0.75700	39
0.76067	39
0.76433	34
0.76800	28
0.77167	22
0.77533	18
0.77900	15
0.78267	15
0.78633	14
0.79000	9
0.79367	5
0.79733	2
0.80100	2
0.80467	5
0.80833	7
0.81200	7
0.81567	7
0.81933	6
0.82300	5
0.82667	4
0.83033	8
0.83400	14
0.83767	15
0.84133	12
0.84500	9
0.84867	6
0.85233	2
0.85600	-2
0.85967	-8
0.86333	-10
0.86700	-9
0.87067	-8
0.87433	-6
0.87800	-7
0.88167	-8
0.88533	-10
0.88900	-12
0.89267	-13
0.89633	-14
0.90000	-12
0.90367	-9
0.90733	-3
0.91100	5
0.91467	12
0.91833	15
0.92200	14
0.92567	10
0.92933	8
0.93300	6
0.93667	5
0.94033	4
0.94400	1
0.94767	-4
0.95133	-10
0.95500	-16
0.95867	-16
0.96233	-9
0.96600	-4
0.96967	-7
0.97333	-14
0.97700	-21
0.98067	-31
0.98433	-39
0.98800	-43
0.99167	-40
0.99533	-30
0.99900	-19
1.00267	-9
1.00633	-1
1.01000	1
1.01367	1
1.01733	1
1.02100	3
1.02467	1
1.02833	-6
1.03200	-14
1.03567	-20
1.03933	-23
1.04300	-24
1.04667	-22
1.05033	-20
1.05400	-15
1.05767	-5
1.06133	2
1.06500	6
1.06867	7
1.07233	3
1.07600	0
1.07967	1
1.08333	2
1.08700	2
1.09067	-0
1.09433	-2
1.09800	-3
1.10167	-5
1.10533	-11
1.10900	-18
1.11267	-23
1.11633	-28
1.12000	-30
1.12367	-27
1.12733	-21
1.13100	-15
1.13467	-11
1.13833	-6
1.14200	-4
1.14567	-6
1.14933	-12
1.15300	-15
1.15667	-15
1.16033	-13
1.16400	-10
1.16767	-10
1.17133	-10
1.17500	-6
1.17867	-2
1.18233	1
1.18600	3
1.18967	2
1.19333	-0
1.19700	-2
1.20067	-3
1.20433	-3
1.20800	-4
1.21167	-4
1.21533	-1
1.21900	3
1.22267	4
1.22633	-0
1.23000	-9
1.23367	-20
1.23733	-29
1.24100	-35
1.24467	-37
1.24833	-36
1.25200	-32
1.25567	-27
1.25933	-26
1.26300	-23
1.26667	-15
1.27033	-7
1.27400	-1
1.27767	-1
1.28133	-6
1.28500	-13
1.28867	-18
1.29233	-19
1.29600	-20
1.29967	-21
1.30333	-23
1.30700	-24
1.31067	-26
1.31433	-28
1.31800	-28
1.32167	-29
1.32533	-30
1.32900	-29
1.33267	-25
1.33633	-22
1.34000	-20
1.34367	-21
1.34733	-21
1.35100	-23
1.35467	-26
1.35833	-30
1.36200	-33
1.36567	-33
1.36933	-30
1.37300	-27
1.37667	-25
1.38033	-25
1.38400	-26
1.38767	-25
1.39133	-24
1.39500	-22
1.39867	-18
1.40233	-17
1.40600	-24
1.40967	-36
1.41333	-44
1.41700	-48
1.42067	-48
1.42433	-45
1.42800	-40
1.43167	-30
1.43533	-12
1.43900	6
1.44267	26
1.44633	144
1.45000	507
1.45367	1105
1.45733	1786
1.46100	2411
1.46467	2915
1.46833	3252
1.47200	3372
1.47567	3242
1.47933	2888
1.48300	2395
1.48667	1871
1.49033	1398
1.49400	1012
1.49767	716
1.50133	498
1.50500	343
1.50867	235
1.51233	162
1.51600	115
1.51967	86
1.52333	67
1.52700	53
1.53067	50
1.53433	82
1.53800	208
1.54167	484
1.54533	891
1.54900	1343
1.55267	1745
1.55633	2047
1.56000	2228
1.56367	2265
1.56733	2131
1.57100	1845
1.57467	1477
1.57833	1105
1.58200	784
1.58567	537
1.58933	360
1.59300	234
1.59667	144
1.60033	79
1.60400	35
1.60767	9
1.61133	-7
1.61500	-21
1.61867	-30
1.62233	-34
1.62600	-35
1.62967	-32
1.63333	-24
1.63700	-15
1.64067	-11
1.64433	-10
1.64800	-11
1.65167	-18
1.65533	-28
1.65900	-33
1.66267	-35
1.66633	-36
1.67000	-37
1.67367	-35
1.67733	-30
1.68100	-23
1.68467	-18
1.68833	-18
1.69200	-24
1.69567	-31
1.69933	-33
1.70300	-29
1.70667	-24
1.71033	-20
1.71400	-20
1.71767	-25
1.72133	-33
1.72500	-39
1.72867	-43
1.73233	-45
1.73600	-48
1.73967	-53
1.74333	-54
1.74700	-50
1.75067	-45
1.75433	-40
1.75800	-35
1.76167	-32
1.76533	-26
1.76900	-21
1.77267	-18
1.77633	-21
1.78000	-25
1.78367	-29
1.78733	-35
1.79100	-38
1.79467	-40
1.79833	-39
1.80200	-38
1.80567	-40
1.80933	-40
1.81300	-38
1.81667	-36
1.82033	-35
1.82400	-36
1.82767	-39
1.83133	-42
1.83500	-41
1.83867	-38
1.84233	-35
1.84600	-34
1.84967	-36
1.85333	-33
1.85700	-27
1.86067	-20
1.86433	-17
1.86800	-16
1.87167	-15
1.87533	-16
1.87900	-18
1.88267	-20
1.88633	-23
1.89000	-26
1.89367	-28
1.89733	-30
1.90100	-32
1.90467	-33
1.90833	-35
1.91200	-37
1.91567	-37
1.91933	-36
1.92300	-35
1.92667	-32
1.93033	-29
1.93400	-23
1.93767	-15
1.94133	-9
1.94500	-4
1.94867	42
1.95233	375
1.95600	2007
1.95967	7863
1.96333	23755
1.96700	57194
1.97067	112629
1.97433	186616
1.97800	267847
1.98167	342206
1.98533	397409
1.98900	424995
1.99267	421187
1.99633	388111
2.00000	333929
2.00367	270102
2.00733	207372
2.01100	152868
2.01467	109518
2.01833	77144
2.02200	53997
2.02567	37921
2.02933	26954
2.03300	19539
2.03667	14530
2.04033	11125
2.04400	8784
2.04767	7146
2.05133	5972
2.05500	5110
2.05867	4459
2.06233	3956
2.06600	3559
2.06967	3241
2.07333	2981
2.07700	2762
2.08067	2570
2.08433	2402
2.08800	2255
2.09167	2129
2.09533	2019
2.09900	1916
2.10267	1820
2.10633	1734
2.11000	1657
2.11367	1587
2.11733	1520
2.12100	1458
2.12467	1400
2.12833	1344
2.13200	1289
2.13567	1236
2.13933	1184
2.14300	1135
2.14667	1092
2.15033	1052
2.15400	1015
2.15767	982
2.16133	952
2.16500	924
2.16867	899
2.17233	878
2.17600	861
2.17967	844
2.18333	827
2.18700	808
2.19067	786
2.19433	762
2.19800	736
2.20167	713
2.20533	695
2.20900	683
2.21267	673
2.21633	657
2.22000	632
2.22367	606
2.22733	585
2.23100	570
2.23467	559
2.23833	551
2.24200	542
2.24567	529
2.24933	512
2.25300	493
2.25667	475
2.26033	463
2.26400	453
2.26767	445
2.27133	441
2.27500	441
2.27867	442
2.28233	440
2.28600	433
2.28967	426
2.29333	418
2.29700	408
2.30067	401
2.30433	401
2.30800	408
2.31167	411
2.31533	410
2.31900	405
2.32267	395
2.32633	379
2.33000	363
2.33367	347
2.33733	337
2.34100	332
2.34467	328
2.34833	321
2.35200	313
2.35567	303
2.35933	297
2.36300	296
2.36667	294
2.37033	289
2.37400	283
2.37767	277
2.38133	271
2.38500	266
2.38867	260
2.39233	256
2.39600	255
2.39967	255
2.40333	253
2.40700	249
2.41067	242
2.41433	232
2.41800	223
2.42167	215
2.42533	214
2.42900	214
2.43267	215
2.43633	218
2.44000	223
2.44367	225
2.44733	219
2.45100	210
2.45467	200
2.45833	195
2.46200	194
2.46567	195
2.46933	194
2.47300	194
2.47667	196
2.48033	199
2.48400	197
2.48767	192
2.49133	186
2.49500	179
2.49867	175
2.50233	173
2.50600	173
2.50967	174
2.51333	179
2.51700	187
2.52067	196
2.52433	205
2.52800	211
2.53167	215
2.53533	216
2.53900	210
2.54267	199
2.54633	189
2.55000	180
2.55367	171
2.55733	163
2.56100	155
2.56467	144
2.56833	134
2.57200	125
2.57567	119
2.57933	119
2.58300	125
2.58667	132
2.59033	140
2.59400	148
2.59767	153
2.60133	160
2.60500	168
2.60867	175
2.61233	175
2.61600	169
2.61967	158
2.62333	146
2.62700	135
2.63067	125
2.63433	119
2.63800	117
2.64167	120
2.64533	125
2.64900	128
2.65267	126
2.65633	121
2.66000	115
2.66367	109
2.66733	107
2.67100	110
2.67467	116
2.67833	123
2.68200	126
2.68567	124
2.68933	119
2.69300	113
2.69667	106
2.70033	100
2.70400	97
2.70767	94
2.71133	92
2.71500	90
2.71867	90
2.72233	93
2.72600	97
2.72967	98
2.73333	101
2.73700	102
2.74067	102
2.74433	99
2.74800	94
2.75167	87
2.75533	82
2.75900	82
2.76267	84
2.76633	87
2.77000	88
2.77367	88
2.77733	87
2.78100	84
2.78467	81
2.78833	81
2.79200	83
2.79567	87
2.79933	93
2.80300	102
2.80667	108
2.81033	107
2.81400	103
2.81767	100
2.82133	97
2.82500	96
2.82867	97
2.83233	102
2.83600	105
2.83967	105
2.84333	104
2.84700	103
2.85067	103
2.85433	103
2.85800	103
2.86167	104
2.86533	105
2.86900	105
2.87267	102
2.87633	98
2.88000	92
2.88367	87
2.88733	81
2.89100	77
2.89467	75
2.89833	72
2.90200	70
2.90567	73
2.90933	77
2.91300	83
2.91667	90
2.92033	96
2.92400	99
2.92767	100
2.93133	97
2.93500	92
2.93867	87
2.94233	86
2.94600	87
2.94967	88
2.95333	90
2.95700	92
2.96067	89
2.96433	81
2.96800	74
2.97167	72
2.97533	76
2.97900	84
2.98267	91
2.98633	95
2.99000	99
2.99367	102
2.99733	103
3.00100	103
3.00467	103
3.00833	103
3.01200	103
3.01567	104
3.01933	103
3.02300	99
3.02667	93
3.03033	86
3.03400	82
3.03767	81
3.04133	83
3.04500	87
3.04867	88
3.05233	83
3.05600	79
3.05967	75
3.06333	75
3.06700	76
3.07067	79
3.07433	81
3.07800	83
3.08167	84
3.08533	85
3.08900	84
3.09267	81
3.09633	78
3.10000	76
3.10367	76
3.10733	79
3.11100	83
3.11467	82
3.11833	79
3.12200	75
3.12567	72
3.12933	73
3.13300	77
3.13667	82
3.14033	85
3.14400	84
3.14767	78
3.15133	74
3.15500	74
3.15867	75
3.16233	72
3.16600	66
3.16967	60
3.17333	58
3.17700	59
3.18067	65
3.18433	71
3.18800	74
3.19167	75
3.19533	73
3.19900	71
3.20267	73
3.20633	77
3.21000	81
3.21367	85
3.21733	90
3.22100	92
3.22467	89
3.22833	83
3.23200	78
3.23567	77
3.23933	78
3.24300	79
3.24667	81
3.25033	80
3.25400	74
3.25767	67
3.26133	63
3.26500	66
3.26867	72
3.27233	78
3.27600	81
3.27967	84
3.28333	83
3.28700	80
3.29067	75
3.29433	70
3.29800	70
3.30167	74
3.30533	79
3.30900	83
3.31267	85
3.31633	88
3.32000	91
3.32367	89
3.32733	82
3.33100	72
3.33467	63
3.33833	58
3.34200	59
3.34567	65
3.34933	70
3.35300	72
3.35667	72
3.36033	72
3.36400	71
3.36767	65
3.37133	58
3.37500	53
3.37867	52
3.38233	51
3.38600	49
3.38967	50
3.39333	52
3.39700	56
3.40067	62
3.40433	67
3.40800	69
3.41167	70
3.41533	69
3.41900	68
3.42267	65
3.42633	64
3.43000	64
3.43367	64
3.43733	67
3.44100	68
3.44467	67
3.44833	67
3.45200	69
3.45567	75
3.45933	79
3.46300	77
3.46667	72
3.47033	69
3.47400	69
3.47767	70
3.48133	71
3.48500	69
3.48867	66
3.49233	62
3.49600	60
3.49967	58
3.50333	58
3.50700	58
3.51067	60
3.51433	66
3.51800	70
3.52167	71
3.52533	72
3.52900	72
3.53267	67
3.53633	58
3.54000	52
3.54367	50
3.54733	49
3.55100	50
3.55467	50
3.55833	52
3.56200	56
3.56567	61
3.56933	64
3.57300	67
3.57667	72
3.58033	77
3.58400	81
3.58767	82
3.59133	80
3.59500	73
3.59867	63
3.60233	54
3.60600	48
3.60967	49
3.61333	55
3.61700	63
3.62067	66
3.62433	64
3.62800	63
3.63167	63
3.63533	65
3.63900	67
3.64267	72
3.64633	77
3.65000	78
3.65367	74
3.65733	67
3.66100	61
3.66467	57
3.66833	54
3.67200	51
3.67567	46
3.67933	44
3.68300	46
3.68667	48
3.69033	49
3.69400	51
3.69767	52
3.70133	55
3.70500	57
3.70867	57
3.71233	57
3.71600	59
3.71967	62
3.72333	64
3.72700	66
3.73067	66
3.73433	65
3.73800	64
3.74167	65
3.74533	64
3.74900	61
3.75267	58
3.75633	56
3.76000	54
3.76367	53
3.76733	54
3.77100	55
3.77467	56
3.77833	58
3.78200	54
3.78567	50
3.78933	50
3.79300	55
3.79667	62
3.80033	67
3.80400	75
3.80767	82
3.81133	83
3.81500	79
3.81867	75
3.82233	77
3.82600	79
3.82967	75
3.83333	68
3.83700	64
3.84067	63
3.84433	59
3.84800	54
3.85167	50
3.85533	49
3.85900	48
3.86267	48
3.86633	47
3.87000	42
3.87367	37
3.87733	34
3.88100	36
3.88467	43
3.88833	49
3.89200	51
3.89567	52
3.89933	52
3.90300	52
3.90667	53
3.91033	57
3.91400	60
3.91767	65
3.92133	66
3.92500	63
3.92867	60
3.93233	58
3.93600	61
3.93967	66
3.94333	67
3.94700	65
3.95067	60
3.95433	57
3.95800	54
3.96167	50
3.96533	46
3.96900	45
3.97267	44
3.97633	45
3.98000	48
3.98367	51
3.98733	52
3.99100	50
3.99467	50
3.99833	51

[Chromatogram (Ch2)]
Interval(msec)	220
# of Points	1091
Start Time(min)	0.002
End Time(min)	3.998
R.Time (min)	Intensity
0.00167	-0
0.00533	-0
0.00900	-1
0.01267	-1
0.01633	-1
0.02000	-1
0.02367	-1
0.02733	-0
0.03100	0
0.03467	0
0.03833	0
0.04200	1
0.04567	1
0.04933	1
0.05300	1
0.05667	1
0.06033	1
0.06400	1
0.06767	1
0.07133	1
0.07500	1
0.07867	2
0.08233	2
0.08600	2
0.08967	2
0.09333	3
0.09700	3
0.10067	3
0.10433	3
0.10800	3
0.11167	3
0.11533	3
0.11900	3
0.12267	3
0.12633	3
0.13000	3
0.13367	3
0.13733	3
0.14100	3
0.14467	2
0.14833	2
0.15200	2
0.15567	2
0.15933	2
0.16300	1
0.16667	1
0.17033	1
0.17400	1
0.17767	1
0.18133	2
0.18500	1
0.18867	1
0.19233	1
0.19600	1
0.19967	1
0.20333	1
0.20700	1
0.21067	2
0.21433	2
0.21800	2
0.22167	2
0.22533	1
0.22900	1
0.23267	1
0.23633	1
0.24000	1
0.24367	1
0.24733	0
0.25100	-0
0.25467	-0
0.25833	-1
0.26200	-1
0.26567	-1
0.26933	-1
0.27300	-0
0.27667	-0
0.28033	-1
0.28400	-1
0.28767	-1
0.29133	-1
0.29500	-1
0.29867	-1
0.30233	-2
0.30600	-2
0.30967	-2
0.31333	-2
0.31700	-2
0.32067	-2
0.32433	-2
0.32800	-2
0.33167	-2
0.33533	-2
0.33900	-3
0.34267	-3
0.34633	-3
0.35000	-3
0.35367	-3
0.35733	-3
0.36100	-4
0.36467	-4
0.36833	-4
0.37200	-4
0.37567	-4
0.37933	-4
0.38300	-4
0.38667	-4
0.39033	-4
0.39400	-4
0.39767	-4
0.40133	-3
0.40500	-3
0.40867	-3
0.41233	-3
0.41600	-2
0.41967	-2
0.42333	-2
0.42700	-2
0.43067	-1
0.43433	-1
0.43800	-1
0.44167	-1
0.44533	-1
0.44900	-1
0.45267	-1
0.45633	-1
0.46000	-1
0.46367	-1
0.46733	-1
0.47100	-2
0.47467	-2
0.47833	-2
0.48200	-2
0.48567	-1
0.48933	-1
0.49300	-1
0.49667	-1
0.50033	-0
0.50400	-0
0.50767	0
0.51133	1
0.51500	1
0.51867	1
0.52233	1
0.52600	1
0.52967	1
0.53333	1
0.53700	1
0.54067	1
0.54433	1
0.54800	1
0.55167	1
0.55533	1
0.55900	1
0.56267	1
0.56633	1
0.57000	0
0.57367	0
0.57733	-0
0.58100	-0
0.58467	-0
0.58833	-1
0.59200	-1
0.59567	-1
0.59933	-1
0.60300	-2
0.60667	-2
0.61033	-2
0.61400	-2
0.61767	-1
0.62133	-1
0.62500	-1
0.62867	-1
0.63233	-1
0.63600	-1
0.63967	-1
0.64333	-1
0.64700	-1
0.65067	-1
0.65433	-1
0.65800	-1
0.66167	-0
0.66533	-0
0.66900	0
0.67267	0
0.67633	1
0.68000	1
0.68367	1
0.68733	0
0.69100	-0
0.69467	-1
0.69833	-1
0.70200	-2
0.70567	-2
0.70933	-3
0.71300	-3
0.71667	-4
0.72033	-4
0.72400	-4
0.72767	-4
0.73133	-4
0.73500	-4
0.73867	-4
0.74233	-4
0.74600	-4
0.74967	-4
0.75333	-3
0.75700	-3
0.76067	-3
0.76433	-3
0.76800	-2
0.77167	-2
0.77533	-2
0.77900	-2
0.78267	-2
0.78633	-2
0.79000	-2
0.79367	-2
0.79733	-2
0.80100	-2
0.80467	-2
0.80833	-2
0.81200	-2
0.81567	-2
0.81933	-2
0.82300	-2
0.82667	-2
0.83033	-2
0.83400	-2
0.83767	-2
0.84133	-2
0.84500	-2
0.84867	-2
0.85233	-2
0.85600	-2
0.85967	-2
0.86333	-2
0.86700	-2
0.87067	-2
0.87433	-2
0.87800	-2
0.88167	-3
0.88533	-3
0.88900	-3
0.89267	-3
0.89633	-3
0.90000	-3
0.90367	-3
0.90733	-3
0.91100	-4
0.91467	-4
0.91833	-5
0.92200	-5
0.92567	-5
0.92933	-5
0.93300	-5
0.93667	-5
0.94033	-4
0.94400	-4
0.94767	-3
0.95133	-3
0.95500	-3
0.95867	-3
0.96233	-2
0.96600	-2
0.96967	-2
0.97333	-2
0.97700	-3
0.98067	-3
0.98433	-3
0.98800	-4
0.99167	-4
0.99533	-4
0.99900	-4
1.00267	-4
1.00633	-4
1.01000	-4
1.01367	-4
1.01733	-4
1.02100	-4
1.02467	-4
1.02833	-4
1.03200	-4
1.03567	-3
1.03933	-3
1.04300	-3
1.04667	-2
1.05033	-2
1.05400	-2
1.05767	-2
1.06133	-2
1.06500	-2
1.06867	-2
1.07233	-2
1.07600	-2
1.07967	-2
1.08333	-2
1.08700	-2
1.09067	-2
1.09433	-2
1.09800	-2
1.10167	-2
1.10533	-2
1.10900	-3
1.11267	-3
1.11633	-3
1.12000	-3
1.12367	-3
1.12733	-3
1.13100	-3
1.13467	-3
1.13833	-3
1.14200	-3
1.14567	-3
1.14933	-3
1.15300	-3
1.15667	-4
1.16033	-4
1.16400	-4
1.16767	-4
1.17133	-4
1.17500	-4
1.17867	-3
1.18233	-3
1.18600	-3
1.18967	-3
1.19333	-3
1.19700	-3
1.20067	-3
1.20433	-3
1.20800	-4
1.21167	-4
1.21533	-4
1.21900	-4
1.22267	-4
1.22633	-4
1.23000	-4
1.23367	-4
1.23733	-4
1.24100	-4
1.24467	-4
1.24833	-4
1.25200	-3
1.25567	-3
1.25933	-3
1.26300	-3
1.26667	-3
1.27033	-3
1.27400	-3
1.27767	-3
1.28133	-3
1.28500	-3
1.28867	-4
1.29233	-4
1.29600	-4
1.29967	-4
1.30333	-4
1.30700	-4
1.31067	-4
1.31433	-4
1.31800	-4
1.32167	-4
1.32533	-4
1.32900	-4
1.33267	-4
1.33633	-4
1.34000	-4
1.34367	-4
1.34733	-4
1.35100	-4
1.35467	-5
1.35833	-5
1.36200	-5
1.36567	-5
1.36933	-5
1.37300	-4
1.37667	-4
1.38033	-4
1.38400	-4
1.38767	-4
1.39133	-4
1.39500	-3
1.39867	-3
1.40233	-3
1.40600	-3
1.40967	-4
1.41333	-4
1.41700	-4
1.42067	-4
1.42433	-4
1.42800	-4
1.43167	-3
1.43533	-4
1.43900	-4
1.44267	-4
1.44633	-4
1.45000	-4
1.45367	-4
1.45733	-5
1.46100	-5
1.46467	-5
1.46833	-5
1.47200	-5
1.47567	-5
1.47933	-5
1.48300	-5
1.48667	-5
1.49033	-5
1.49400	-5
1.49767	-5
1.50133	-5
1.50500	-5
1.50867	-5
1.51233	-5
1.51600	-5
1.51967	-5
1.52333	-4
1.52700	-4
1.53067	-4
1.53433	-4
1.53800	-4
1.54167	-4
1.54533	-4
1.54900	-4
1.55267	-4
1.55633	-4
1.56000	-4
1.56367	-4
1.56733	-4
1.57100	-4
1.57467	-4
1.57833	-4
1.58200	-4
1.58567	-4
1.58933	-4
1.59300	-5
1.59667	-6
1.60033	-7
1.60400	-8
1.60767	-9
1.61133	-11
1.61500	-13
1.61867	-16
1.62233	-18
1.62600	-21
1.62967	-24
1.63333	-27
1.63700	-30
1.64067	-33
1.64433	-36
1.64800	-39
1.65167	-42
1.65533	-46
1.65900	-49
1.66267	-53
1.66633	-57
1.67000	-62
1.67367	-66
1.67733	-71
1.68100	-75
1.68467	-79
1.68833	-83
1.69200	-86
1.69567	-89
1.69933	-91
1.70300	-92
1.70667	-94
1.71033	-95
1.71400	-96
1.71767	-96
1.72133	-97
1.72500	-97
1.72867	-98
1.73233	-98
1.73600	-99
1.73967	-100
1.74333	-100
1.74700	-101
1.75067	-101
1.75433	-100
1.75800	-100
1.76167	-99
1.76533	-99
1.76900	-99
1.77267	-99
1.77633	-99
1.78000	-99
1.78367	-99
1.78733	-100
1.79100	-100
1.79467	-101
1.79833	-101
1.80200	-102
1.80567	-102
1.80933	-103
1.81300	-103
1.81667	-103
1.82033	-103
1.82400	-103
1.82767	-102
1.83133	-101
1.83500	-100
1.83867	-100
1.84233	-99
1.84600	-99
1.84967	-99
1.85333	-99
1.85700	-100
1.86067	-101
1.86433	-101
1.86800	-102
1.87167	-102
1.87533	-102
1.87900	-102
1.88267	-102
1.88633	-103
1.89000	-103
1.89367	-102
1.89733	-102
1.90100	-102
1.90467	-102
1.90833	-101
1.91200	-101
1.91567	-100
1.91933	-100
1.92300	-99
1.92667	-99
1.93033	-99
1.93400	-98
1.93767	-99
1.94133	-99
1.94500	-98
1.94867	-98
1.95233	-98
1.95600	-98
1.95967	-98
1.96333	-98
1.96700	-98
1.97067	-97
1.97433	-96
1.97800	-96
1.98167	-95
1.98533	-94
1.98900	-94
1.99267	-93
1.99633	-92
2.00000	-92
2.00367	-92
2.00733	-92
2.01100	-92
2.01467	-92
2.01833	-93
2.02200	-93
2.02567	-93
2.02933	-93
2.03300	-93
2.03667	-93
2.04033	-93
2.04400	-92
2.04767	-92
2.05133	-92
2.05500	-91
2.05867	-90
2.06233	-89
2.06600	-87
2.06967	-87
2.07333	-86
2.07700	-85
2.08067	-85
2.08433	-85
2.08800	-85
2.09167	-85
2.09533	-85
2.09900	-85
2.10267	-85
2.10633	-85
2.11000	-85
2.11367	-85
2.11733	-85
2.12100	-85
2.12467	-85
2.12833	-84
2.13200	-84
2.13567	-83
2.13933	-83
2.14300	-83
2.14667	-83
2.15033	-83
2.15400	-84
2.15767	-84
2.16133	-84
2.16500	-84
2.16867	-85
2.17233	-84
2.17600	-84
2.17967	-83
2.18333	-82
2.18700	-81
2.19067	-80
2.19433	-79
2.19800	-78
2.20167	-78
2.20533	-78
2.20900	-79
2.21267	-79
2.21633	-79
2.22000	-79
2.22367	-79
2.22733	-79
2.23100	-78
2.23467	-77
2.23833	-77
2.24200	-77
2.24567	-76
2.24933	-76
2.25300	-76
2.25667	-76
2.26033	-75
2.26400	-75
2.26767	-75
2.27133	-76
2.27500	-76
2.27867	-75
2.28233	-75
2.28600	-74
2.28967	-73
2.29333	-72
2.29700	-72
2.30067	-72
2.30433	-72
2.30800	-73
2.31167	-73
2.31533	-72
2.31900	-72
2.32267	-72
2.32633	-71
2.33000	-71
2.33367	-71
2.33733	-71
2.34100	-70
2.34467	-69
2.34833	-67
2.35200	-66
2.35567	-64
2.35933	-63
2.36300	-62
2.36667	-60
2.37033	-58
2.37400	-55
2.37767	-52
2.38133	-49
2.38500	-45
2.38867	-42
2.39233	-38
2.39600	-34
2.39967	-30
2.40333	-26
2.40700	-22
2.41067	-18
2.41433	-14
2.41800	-11
2.42167	-9
2.42533	-7
2.42900	-5
2.43267	-4
2.43633	-2
2.44000	-1
2.44367	0
2.44733	2
2.45100	3
2.45467	4
2.45833	4
2.46200	5
2.46567	6
2.46933	6
2.47300	7
2.47667	8
2.48033	10
2.48400	11
2.48767	12
2.49133	13
2.49500	14
2.49867	15
2.50233	15
2.50600	16
2.50967	16
2.51333	16
2.51700	16
2.52067	16
2.52433	16
2.52800	16
2.53167	16
2.53533	16
2.53900	16
2.54267	15
2.54633	15
2.55000	14
2.55367	14
2.55733	13
2.56100	12
2.56467	12
2.56833	11
2.57200	11
2.57567	11
2.57933	11
2.58300	11
2.58667	11
2.59033	11
2.59400	12
2.59767	12
2.60133	12
2.60500	12
2.60867	13
2.61233	13
2.61600	13
2.61967	14
2.62333	14
2.62700	15
2.63067	15
2.63433	16
2.63800	16
2.64167	17
2.64533	17
2.64900	17
2.65267	18
2.65633	18
2.66000	18
2.66367	19
2.66733	19
2.67100	19
2.67467	20
2.67833	20
2.68200	21
2.68567	22
2.68933	23
2.69300	23
2.69667	24
2.70033	24
2.70400	24
2.70767	23
2.71133	23
2.71500	23
2.71867	23
2.72233	23
2.72600	23
2.72967	23
2.73333	23
2.73700	24
2.74067	24
2.74433	25
2.74800	25
2.75167	25
2.75533	26
2.75900	26
2.76267	26
2.76633	26
2.77000	26
2.77367	26
2.77733	27
2.78100	27
2.78467	27
2.78833	27
2.79200	27
2.79567	27
2.79933	27
2.80300	27
2.80667	26
2.81033	26
2.81400	26
2.81767	26
2.82133	26
2.82500	26
2.82867	26
2.83233	25
2.83600	25
2.83967	25
2.84333	24
2.84700	24
2.85067	24
2.85433	23
2.85800	21
2.86167	18
2.86533	12
2.86900	3
2.87267	-9
2.87633	-26
2.88000	-49
2.88367	-76
2.88733	-109
2.89100	-148
2.89467	-192
2.89833	-240
2.90200	-294
2.90567	-350
2.90933	-410
2.91300	-473
2.91667	-537
2.92033	-602
2.92400	-667
2.92767	-731
2.93133	-793
2.93500	-852
2.93867	-908
2.94233	-962
2.94600	-1018
2.94967	-1070
2.95333	-1110
2.95700	-1129
2.96067	-1123
2.96433	-1091
2.96800	-1039
2.97167	-972
2.97533	-895
2.97900	-813
2.98267	-731
2.98633	-650
2.99000	-574
2.99367	-503
2.99733	-438
3.00100	-380
3.00467	-328
3.00833	-281
3.01200	-241
3.01567	-205
3.01933	-174
3.02300	-148
3.02667	-125
3.03033	-105
3.03400	-88
3.03767	-73
3.04133	-60
3.04500	-50
3.04867	-40
3.05233	-32
3.05600	-25
3.05967	-19
3.06333	-14
3.06700	-10
3.07067	-6
3.07433	-3
3.07800	-1
3.08167	2
3.08533	4
3.08900	5
3.09267	7
3.09633	8
3.10000	9
3.10367	10
3.10733	11
3.11100	12
3.11467	13
3.11833	14
3.12200	14
3.12567	15
3.12933	15
3.13300	15
3.13667	16
3.14033	16
3.14400	16
3.14767	17
3.15133	17
3.15500	17
3.15867	17
3.16233	17
3.16600	17
3.16967	17
3.17333	17
3.17700	17
3.18067	17
3.18433	18
3.18800	18
3.19167	18
3.19533	19
3.19900	19
3.20267	20
3.20633	20
3.21000	21
3.21367	21
3.21733	22
3.22100	22
3.22467	23
3.22833	23
3.23200	24
3.23567	24
3.23933	25
3.24300	25
3.24667	25
3.25033	25
3.25400	26
3.25767	26
3.26133	26
3.26500	26
3.26867	26
3.27233	26
3.27600	26
3.27967	26
3.28333	26
3.28700	26
3.29067	26
3.29433	26
3.29800	27
3.30167	27
3.30533	27
3.30900	27
3.31267	27
3.31633	27
3.32000	27
3.32367	27
3.32733	27
3.33100	26
3.33467	26
3.33833	26
3.34200	26
3.34567	26
3.34933	27
3.35300	27
3.35667	27
3.36033	27
3.36400	27
3.36767	27
3.37133	27
3.37500	27
3.37867	27
3.38233	27
3.38600	26
3.38967	26
3.39333	26
3.39700	26
3.40067	26
3.40433	26
3.40800	26
3.41167	26
3.41533	26
3.41900	26
3.42267	26
3.42633	26
3.43000	26
3.43367	26
3.43733	26
3.44100	26
3.44467	26
3.44833	26
3.45200	26
3.45567	26
3.45933	26
3.46300	26
3.46667	26
3.47033	26
3.47400	25
3.47767	25
3.48133	25
3.48500	25
3.48867	25
3.49233	25
3.49600	25
3.49967	25
3.50333	25
3.50700	26
3.51067	26
3.51433	26
3.51800	26
3.52167	26
3.52533	27
3.52900	27
3.53267	26
3.53633	26
3.54000	26
3.54367	26
3.54733	26
3.55100	26
3.55467	26
3.55833	26
3.56200	26
3.56567	27
3.56933	27
3.57300	27
3.57667	28
3.58033	28
3.58400	28
3.58767	28
3.59133	28
3.59500	28
3.59867	28
3.60233	28
3.60600	28
3.60967	27
3.61333	27
3.61700	27
3.62067	27
3.62433	27
3.62800	27
3.63167	27
3.63533	27
3.63900	27
3.64267	27
3.64633	27
3.65000	27
3.65367	27
3.65733	27
3.66100	27
3.66467	27
3.66833	28
3.67200	28
3.67567	28
3.67933	28
3.68300	28
3.68667	28
3.69033	28
3.69400	28
3.69767	28
3.70133	28
3.70500	27
3.70867	27
3.71233	27
3.71600	27
3.71967	26
3.72333	26
3.72700	26
3.73067	26
3.73433	26
3.73800	26
3.74167	26
3.74533	26
3.74900	26
3.75267	26
3.75633	26
3.76000	26
3.76367	26
3.76733	26
3.77100	26
3.77467	26
3.77833	26
3.78200	27
3.78567	27
3.78933	27
3.79300	27
3.79667	26
3.80033	26
3.80400	27
3.80767	27
3.81133	27
3.81500	27
3.81867	27
3.82233	27
3.82600	27
3.82967	27
3.83333	27
3.83700	27
3.84067	27
3.84433	27
3.84800	27
3.85167	27
3.85533	27
3.85900	27
3.86267	27
3.86633	27
3.87000	27
3.87367	27
3.87733	26
3.88100	26
3.88467	27
3.88833	27
3.89200	27
3.89567	27
3.89933	27
3.90300	27
3.90667	28
3.91033	28
3.91400	27
3.91767	27
3.92133	27
3.92500	27
3.92867	28
3.93233	28
3.93600	28
3.93967	28
3.94333	28
3.94700	27
3.95067	27
3.95433	27
3.95800	27
3.96167	27
3.96533	27
3.96900	27
3.97267	26
3.97633	26
3.98000	26
3.98367	26
3.98733	26
3.99100	26
3.99467	26
3.99833	26

[Chromatogram (Ch3)]
Interval(msec)	220
# of Points	1091
Start Time(min)	0.002
End Time(min)	3.998
R.Time (min)	Intensity
0.00167	1
0.00533	2
0.00900	-0
0.01267	-1
0.01633	1
0.02000	5
0.02367	7
0.02733	5
0.03100	4
0.03467	2
0.03833	1
0.04200	2
0.04567	3
0.04933	2
0.05300	-0
0.05667	-1
0.06033	-1
0.06400	-2
0.06767	-1
0.07133	2
0.07500	5
0.07867	8
0.08233	7
0.08600	6
0.08967	6
0.09333	6
0.09700	4
0.10067	2
0.10433	-1
0.10800	-3
0.11167	-3
0.11533	-2
0.11900	-4
0.12267	-4
0.12633	-1
0.13000	2
0.13367	4
0.13733	5
0.14100	3
0.14467	2
0.14833	1
0.15200	0
0.15567	-1
0.15933	1
0.16300	1
0.16667	-2
0.17033	-6
0.17400	-8
0.17767	-7
0.18133	-6
0.18500	-7
0.18867	-8
0.19233	-8
0.19600	-5
0.19967	-3
0.20333	-5
0.20700	-6
0.21067	-7
0.21433	-8
0.21800	-9
0.22167	-8
0.22533	-7
0.22900	-6
0.23267	-4
0.23633	-5
0.24000	-6
0.24367	-5
0.24733	-6
0.25100	-6
0.25467	-4
0.25833	-4
0.26200	-6
0.26567	-7
0.26933	-8
0.27300	-8
0.27667	-5
0.28033	-3
0.28400	-5
0.28767	-10
0.29133	-13
0.29500	-13
0.29867	-10
0.30233	-6
0.30600	-4
0.30967	-4
0.31333	-6
0.31700	-9
0.32067	-9
0.32433	-7
0.32800	-8
0.33167	-7
0.33533	-6
0.33900	-6
0.34267	-6
0.34633	-7
0.35000	-8
0.35367	-10
0.35733	-9
0.36100	-9
0.36467	-10
0.36833	-11
0.37200	-10
0.37567	-10
0.37933	-7
0.38300	-6
0.38667	-8
0.39033	-7
0.39400	-4
0.39767	-4
0.40133	-3
0.40500	-2
0.40867	-4
0.41233	-6
0.41600	-6
0.41967	-6
0.42333	-9
0.42700	-11
0.43067	-11
0.43433	-12
0.43800	-10
0.44167	-10
0.44533	-11
0.44900	-11
0.45267	-14
0.45633	-14
0.46000	-13
0.46367	-13
0.46733	-13
0.47100	-11
0.47467	-10
0.47833	-10
0.48200	-12
0.48567	-15
0.48933	-17
0.49300	-16
0.49667	-14
0.50033	-15
0.50400	-17
0.50767	-15
0.51133	-12
0.51500	-10
0.51867	-9
0.52233	-8
0.52600	-6
0.52967	-8
0.53333	-8
0.53700	-8
0.54067	-10
0.54433	-12
0.54800	-11
0.55167	-11
0.55533	-11
0.55900	-14
0.56267	-15
0.56633	-13
0.57000	-11
0.57367	-11
0.57733	-11
0.58100	-13
0.58467	-14
0.58833	-14
0.59200	-16
0.59567	-16
0.59933	-15
0.60300	-15
0.60667	-12
0.61033	-11
0.61400	-12
0.61767	-11
0.62133	-10
0.62500	-11
0.62867	-10
0.63233	-10
0.63600	-12
0.63967	-12
0.64333	-14
0.64700	-13
0.65067	-12
0.65433	-11
0.65800	-8
0.66167	-6
0.66533	-5
0.66900	-6
0.67267	-5
0.67633	-7
0.68000	-10
0.68367	-12
0.68733	-13
0.69100	-14
0.69467	-14
0.69833	-13
0.70200	-11
0.70567	-10
0.70933	-11
0.71300	-11
0.71667	-10
0.72033	-9
0.72400	-8
0.72767	-7
0.73133	-7
0.73500	-5
0.73867	-4
0.74233	-3
0.74600	-3
0.74967	-5
0.75333	-8
0.75700	-10
0.76067	-9
0.76433	-9
0.76800	-10
0.77167	-10
0.77533	-9
0.77900	-9
0.78267	-8
0.78633	-7
0.79000	-8
0.79367	-8
0.79733	-7
0.80100	-5
0.80467	-4
0.80833	-3
0.81200	-3
0.81567	-3
0.81933	-4
0.82300	-3
0.82667	-4
0.83033	-5
0.83400	-6
0.83767	-7
0.84133	-7
0.84500	-9
0.84867	-10
0.85233	-9
0.85600	-5
0.85967	-3
0.86333	-5
0.86700	-7
0.87067	-8
0.87433	-10
0.87800	-9
0.88167	-7
0.88533	-6
0.88900	-5
0.89267	-4
0.89633	-2
0.90000	-1
0.90367	-1
0.90733	-0
0.91100	-3
0.91467	-5
0.91833	-4
0.92200	-4
0.92567	-3
0.92933	-0
0.93300	1
0.93667	1
0.94033	2
0.94400	5
0.94767	3
0.95133	-0
0.95500	-0
0.95867	0
0.96233	-1
0.96600	-3
0.96967	-2
0.97333	0
0.97700	1
0.98067	2
0.98433	1
0.98800	3
0.99167	4
0.99533	4
0.99900	3
1.00267	3
1.00633	5
1.01000	6
1.01367	7
1.01733	7
1.02100	5
1.02467	4
1.02833	0
1.03200	-2
1.03567	-3
1.03933	-4
1.04300	-1
1.04667	-0
1.05033	-1
1.05400	-2
1.05767	-3
1.06133	-5
1.06500	-6
1.06867	-4
1.07233	-1
1.07600	-2
1.07967	-2
1.08333	-2
1.08700	-5
1.09067	-6
1.09433	-6
1.09800	-4
1.10167	-4
1.10533	-5
1.10900	-7
1.11267	-7
1.11633	-5
1.12000	-3
1.12367	-3
1.12733	-3
1.13100	-2
1.13467	-3
1.13833	-5
1.14200	-3
1.14567	-2
1.14933	1
1.15300	2
1.15667	1
1.16033	-1
1.16400	-4
1.16767	-5
1.17133	-4
1.17500	-4
1.17867	-4
1.18233	0
1.18600	2
1.18967	-1
1.19333	-3
1.19700	-2
1.20067	-4
1.20433	-5
1.20800	-6
1.21167	-8
1.21533	-7
1.21900	-6
1.22267	-4
1.22633	-2
1.23000	-2
1.23367	-4
1.23733	-7
1.24100	-9
1.24467	-7
1.24833	-8
1.25200	-7
1.25567	-2
1.25933	-2
1.26300	-2
1.26667	-1
1.27033	0
1.27400	-0
1.27767	-1
1.28133	-1
1.28500	-0
1.28867	-3
1.29233	-4
1.29600	-5
1.29967	-3
1.30333	-2
1.30700	-2
1.31067	-2
1.31433	-5
1.31800	-4
1.32167	-3
1.32533	-2
1.32900	-3
1.33267	-4
1.33633	-6
1.34000	-9
1.34367	-12
1.34733	-15
1.35100	-15
1.35467	-14
1.35833	-16
1.36200	-14
1.36567	-14
1.36933	-13
1.37300	-11
1.37667	-11
1.38033	-12
1.38400	-11
1.38767	-12
1.39133	-11
1.39500	-10
1.39867	-10
1.40233	-11
1.40600	-10
1.40967	-11
1.41333	-11
1.41700	-9
1.42067	-11
1.42433	-12
1.42800	-12
1.43167	-11
1.43533	-11
1.43900	-12
1.44267	-14
1.44633	-16
1.45000	-18
1.45367	-18
1.45733	-17
1.46100	-16
1.46467	-17
1.46833	-18
1.47200	-16
1.47567	-14
1.47933	-15
1.48300	-15
1.48667	-15
1.49033	-14
1.49400	-11
1.49767	-10
1.50133	-11
1.50500	-14
1.50867	-15
1.51233	-15
1.51600	-14
1.51967	-14
1.52333	-16
1.52700	-15
1.53067	-13
1.53433	-14
1.53800	-14
1.54167	-16
1.54533	-19
1.54900	-21
1.55267	-21
1.55633	-20
1.56000	-19
1.56367	-16
1.56733	-15
1.57100	-15
1.57467	-14
1.57833	-13
1.58200	-14
1.58567	-14
1.58933	-12
1.59300	-10
1.59667	-10
1.60033	-12
1.60400	-14
1.60767	-14
1.61133	-14
1.61500	-10
1.61867	-4
1.62233	-2
1.62600	-2
1.62967	-1
1.63333	-3
1.63700	-4
1.64067	-6
1.64433	-7
1.64800	-9
1.65167	-9
1.65533	-8
1.65900	-10
1.66267	-9
1.66633	-5
1.67000	-5
1.67367	-6
1.67733	-6
1.68100	-7
1.68467	-10
1.68833	-9
1.69200	-7
1.69567	-7
1.69933	-8
1.70300	-8
1.70667	-7
1.71033	-3
1.71400	-4
1.71767	-4
1.72133	-2
1.72500	1
1.72867	2
1.73233	0
1.73600	1
1.73967	0
1.74333	-2
1.74700	-3
1.75067	-3
1.75433	-4
1.75800	-5
1.76167	-5
1.76533	-6
1.76900	-8
1.77267	-9
1.77633	-9
1.78000	-8
1.78367	-7
1.78733	-8
1.79100	-8
1.79467	-6
1.79833	-4
1.80200	-3
1.80567	-1
1.80933	1
1.81300	2
1.81667	4
1.82033	4
1.82400	4
1.82767	2
1.83133	0
1.83500	-1
1.83867	-1
1.84233	1
1.84600	2
1.84967	2
1.85333	5
1.85700	9
1.86067	10
1.86433	9
1.86800	8
1.87167	7
1.87533	7
1.87900	7
1.88267	9
1.88633	12
1.89000	14
1.89367	15
1.89733	13
1.90100	9
1.90467	4
1.90833	2
1.91200	-0
1.91567	2
1.91933	4
1.92300	7
1.92667	8
1.93033	8
1.93400	7
1.93767	8
1.94133	7
1.94500	6
1.94867	7
1.95233	9
1.95600	11
1.95967	13
1.96333	12
1.96700	13
1.97067	14
1.97433	16
1.97800	18
1.98167	17
1.98533	15
1.98900	13
1.99267	14
1.99633	17
2.00000	20
2.00367	23
2.00733	20
2.01100	19
2.01467	20
2.01833	20
2.02200	22
2.02567	23
2.02933	24
2.03300	28
2.03667	30
2.04033	31
2.04400	32
2.04767	29
2.05133	25
2.05500	24
2.05867	24
2.06233	24
2.06600	25
2.06967	25
2.07333	26
2.07700	27
2.08067	26
2.08433	25
2.08800	24
2.09167	24
2.09533	26
2.09900	29
2.10267	33
2.10633	37
2.11000	39
2.11367	40
2.11733	39
2.12100	39
2.12467	39
2.12833	40
2.13200	42
2.13567	43
2.13933	44
2.14300	45
2.14667	45
2.15033	47
2.15400	47
2.15767	48
2.16133	50
2.16500	50
2.16867	53
2.17233	54
2.17600	54
2.17967	52
2.18333	51
2.18700	50
2.19067	48
2.19433	48
2.19800	48
2.20167	47
2.20533	47
2.20900	49
2.21267	51
2.21633	52
2.22000	54
2.22367	57
2.22733	58
2.23100	57
2.23467	58
2.23833	59
2.24200	62
2.24567	66
2.24933	69
2.25300	69
2.25667	71
2.26033	73
2.26400	76
2.26767	76
2.27133	75
2.27500	74
2.27867	76
2.28233	77
2.28600	76
2.28967	75
2.29333	75
2.29700	77
2.30067	78
2.30433	80
2.30800	82
2.31167	84
2.31533	83
2.31900	83
2.32267	84
2.32633	84
2.33000	85
2.33367	84
2.33733	84
2.34100	86
2.34467	89
2.34833	90
2.35200	91
2.35567	93
2.35933	92
2.36300	91
2.36667	90
2.37033	86
2.37400	83
2.37767	84
2.38133	86
2.38500	85
2.38867	81
2.39233	81
2.39600	84
2.39967	89
2.40333	97
2.40700	104
2.41067	109
2.41433	110
2.41800	110
2.42167	110
2.42533	111
2.42900	112
2.43267	111
2.43633	109
2.44000	113
2.44367	161
2.44733	241
2.45100	313
2.45467	365
2.45833	388
2.46200	383
2.46567	366
2.46933	349
2.47300	339
2.47667	329
2.48033	313
2.48400	290
2.48767	264
2.49133	241
2.49500	222
2.49867	209
2.50233	201
2.50600	198
2.50967	199
2.51333	206
2.51700	214
2.52067	220
2.52433	220
2.52800	215
2.53167	205
2.53533	195
2.53900	183
2.54267	169
2.54633	155
2.55000	143
2.55367	134
2.55733	129
2.56100	126
2.56467	118
2.56833	114
2.57200	113
2.57567	117
2.57933	121
2.58300	124
2.58667	127
2.59033	132
2.59400	138
2.59767	143
2.60133	152
2.60500	162
2.60867	170
2.61233	177
2.61600	179
2.61967	179
2.62333	179
2.62700	176
2.63067	171
2.63433	166
2.63800	161
2.64167	151
2.64533	140
2.64900	128
2.65267	120
2.65633	111
2.66000	105
2.66367	98
2.66733	92
2.67100	86
2.67467	81
2.67833	78
2.68200	74
2.68567	72
2.68933	70
2.69300	67
2.69667	67
2.70033	68
2.70400	68
2.70767	67
2.71133	65
2.71500	62
2.71867	62
2.72233	64
2.72600	65
2.72967	65
2.73333	63
2.73700	61
2.74067	62
2.74433	65
2.74800	64
2.75167	65
2.75533	66
2.75900	68
2.76267	68
2.76633	67
2.77000	69
2.77367	70
2.77733	69
2.78100	70
2.78467	74
2.78833	79
2.79200	81
2.79567	85
2.79933	87
2.80300	87
2.80667	88
2.81033	91
2.81400	95
2.81767	97
2.82133	100
2.82500	100
2.82867	99
2.83233	101
2.83600	108
2.83967	128
2.84333	172
2.84700	252
2.85067	389
2.85433	602
2.85800	902
2.86167	1292
2.86533	1752
2.86900	2253
2.87267	2755
2.87633	3216
2.88000	3599
2.88367	3874
2.88733	4029
2.89100	4063
2.89467	3988
2.89833	3824
2.90200	3591
2.90567	3320
2.90933	3026
2.91300	2725
2.91667	2433
2.92033	2159
2.92400	1905
2.92767	1672
2.93133	1463
2.93500	1279
2.93867	1117
2.94233	971
2.94600	845
2.94967	735
2.95333	639
2.95700	557
2.96067	486
2.96433	423
2.96800	369
2.97167	323
2.97533	283
2.97900	248
2.98267	217
2.98633	191
2.99000	171
2.99367	154
2.99733	141
3.00100	128
3.00467	116
3.00833	107
3.01200	98
3.01567	87
3.01933	81
3.02300	81
3.02667	78
3.03033	75
3.03400	71
3.03767	69
3.04133	68
3.04500	70
3.04867	71
3.05233	69
3.05600	66
3.05967	64
3.06333	64
3.06700	65
3.07067	66
3.07433	65
3.07800	64
3.08167	64
3.08533	66
3.08900	68
3.09267	69
3.09633	70
3.10000	70
3.10367	67
3.10733	68
3.11100	71
3.11467	73
3.11833	73
3.12200	72
3.12567	73
3.12933	74
3.13300	75
3.13667	76
3.14033	78
3.14400	73
3.14767	59
3.15133	51
3.15500	64
3.15867	111
3.16233	182
3.16600	266
3.16967	353
3.17333	443
3.17700	532
3.18067	618
3.18433	698
3.18800	767
3.19167	828
3.19533	880
3.19900	920
3.20267	951
3.20633	974
3.21000	993
3.21367	1009
3.21733	1023
3.22100	1035
3.22467	1046
3.22833	1052
3.23200	1055
3.23567	1057
3.23933	1055
3.24300	1055
3.24667	1055
3.25033	1054
3.25400	1051
3.25767	1047
3.26133	1046
3.26500	1045
3.26867	1041
3.27233	1035
3.27600	1032
3.27967	1029
3.28333	1025
3.28700	1021
3.29067	1018
3.29433	1016
3.29800	1013
3.30167	1010
3.30533	1005
3.30900	999
3.31267	994
3.31633	990
3.32000	986
3.32367	979
3.32733	973
3.33100	967
3.33467	960
3.33833	956
3.34200	952
3.34567	948
3.34933	943
3.35300	938
3.35667	934
3.36033	931
3.36400	927
3.36767	921
3.37133	914
3.37500	907
3.37867	902
3.38233	896
3.38600	892
3.38967	891
3.39333	887
3.39700	884
3.40067	881
3.40433	878
3.40800	874
3.41167	870
3.41533	868
3.41900	867
3.42267	863
3.42633	860
3.43000	858
3.43367	855
3.43733	853
3.44100	851
3.44467	847
3.44833	843
3.45200	841
3.45567	840
3.45933	837
3.46300	835
3.46667	835
3.47033	835
3.47400	833
3.47767	832
3.48133	832
3.48500	831
3.48867	830
3.49233	830
3.49600	830
3.49967	830
3.50333	830
3.50700	830
3.51067	832
3.51433	834
3.51800	836
3.52167	840
3.52533	846
3.52900	850
3.53267	853
3.53633	857
3.54000	860
3.54367	864
3.54733	870
3.55100	876
3.55467	884
3.55833	892
3.56200	897
3.56567	902
3.56933	906
3.57300	913
3.57667	921
3.58033	929
3.58400	938
3.58767	945
3.59133	948
3.59500	952
3.59867	956
3.60233	960
3.60600	964
3.60967	966
3.61333	970
3.61700	972
3.62067	969
3.62433	967
3.62800	965
3.63167	962
3.63533	960
3.63900	957
3.64267	952
3.64633	946
3.65000	939
3.65367	930
3.65733	923
3.66100	916
3.66467	907
3.66833	898
3.67200	887
3.67567	878
3.67933	869
3.68300	860
3.68667	849
3.69033	840
3.69400	831
3.69767	821
3.70133	812
3.70500	805
3.70867	799
3.71233	793
3.71600	787
3.71967	782
3.72333	776
3.72700	768
3.73067	762
3.73433	759
3.73800	755
3.74167	752
3.74533	748
3.74900	741
3.75267	735
3.75633	730
3.76000	727
3.76367	722
3.76733	719
3.77100	717
3.77467	715
3.77833	714
3.78200	713
3.78567	712
3.78933	709
3.79300	707
3.79667	706
3.80033	704
3.80400	701
3.80767	698
3.81133	696
3.81500	695
3.81867	693
3.82233	691
3.82600	691
3.82967	689
3.83333	687
3.83700	683
3.84067	680
3.84433	679
3.84800	679
3.85167	679
3.85533	679
3.85900	677
3.86267	677
3.86633	676
3.87000	675
3.87367	671
3.87733	668
3.88100	664
3.88467	661
3.88833	660
3.89200	659
3.89567	657
3.89933	655
3.90300	651
3.90667	650
3.91033	651
3.91400	650
3.91767	649
3.92133	647
3.92500	646
3.92867	643
3.93233	639
3.93600	637
3.93967	636
3.94333	636
3.94700	635
3.95067	633
3.95433	630
3.95800	629
3.96167	627
3.96533	627
3.96900	627
3.97267	626
3.97633	623
3.98000	621
3.98367	621
3.98733	619
3.99100	618
3.99467	616
3.99833	610

[Status Trace (Column Oven Temperature)]
Interval(msec)	1000
# of Points	240
Start Time(min)	0.015
End Time(min)	3.999
Intensity Units	
Intensity Multiplier	1
R.Time (min)	Intensity
0.01533	35.08
0.03200	35.07
0.04867	35.06
0.06533	35.06
0.08200	35.04
0.09867	35.03
0.11533	35.04
0.13200	35.03
0.14867	35.02
0.16533	35.02
0.18200	35.01
0.19867	35.00
0.21533	35.00
0.23200	35.00
0.24867	34.99
0.26533	34.99
0.28200	34.98
0.29867	34.98
0.31533	34.99
0.33200	34.99
0.34867	35.01
0.36533	35.02
0.38200	35.03
0.39867	35.04
0.41533	35.04
0.43200	35.04
0.44867	35.03
0.46533	35.03
0.48200	35.03
0.49867	35.01
0.51533	35.00
0.53200	34.99
0.54867	34.98
0.56533	34.98
0.58200	34.98
0.59867	34.98
0.61533	34.98
0.63200	34.98
0.64867	34.98
0.66533	34.97
0.68200	34.97
0.69867	34.98
0.71533	34.98
0.73200	34.99
0.74867	34.99
0.76533	34.98
0.78200	34.98
0.79867	34.98
0.81533	34.98
0.83200	34.98
0.84867	34.98
0.86533	34.98
0.88200	34.97
0.89867	34.97
0.91533	34.99
0.93200	35.00
0.94867	35.01
0.96533	35.01
0.98200	35.01
0.99867	35.01
1.01533	35.01
1.03200	35.00
1.04867	34.99
1.06533	34.97
1.08200	34.97
1.09867	34.98
1.11533	34.98
1.13200	34.98
1.14867	34.99
1.16533	34.99
1.18200	34.99
1.19867	34.99
1.21533	34.99
1.23200	34.99
1.24867	34.98
1.26533	34.98
1.28200	34.98
1.29867	34.98
1.31533	34.98
1.33200	34.98
1.34867	34.99
1.36533	34.98
1.38200	34.99
1.39867	34.99
1.41533	34.98
1.43200	34.97
1.44867	34.97
1.46533	34.98
1.48200	34.98
1.49867	34.98
1.51533	34.99
1.53200	34.99
1.54867	34.98
1.56533	34.98
1.58200	34.98
1.59867	35.01
1.61533	35.09
1.63200	35.25
1.64867	35.46
1.66533	35.77
1.68200	36.14
1.69867	36.49
1.71533	36.83
1.73200	37.17
1.74867	37.51
1.76533	37.82
1.78200	38.16
1.79867	38.49
1.81533	38.84
1.83200	39.15
1.84867	39.48
1.86533	39.80
1.88200	40.14
1.89867	40.48
1.91533	40.80
1.93200	41.14
1.94867	41.46
1.96533	41.79
1.98200	42.10
1.99867	42.41
2.01533	42.74
2.03200	43.08
2.04867	43.41
2.06533	43.70
2.08200	44.04
2.09867	44.36
2.11533	44.69
2.13200	45.02
2.14867	45.36
2.16533	45.72
2.18200	46.04
2.19867	46.34
2.21533	46.70
2.23200	47.01
2.24867	47.34
2.26533	47.68
2.28200	48.00
2.29867	48.33
2.31533	48.67
2.33200	49.00
2.34867	49.29
2.36533	49.53
2.38200	49.65
2.39867	49.68
2.41533	49.67
2.43200	49.68
2.44867	49.69
2.46533	49.72
2.48200	49.72
2.49867	49.71
2.51533	49.74
2.53200	49.76
2.54867	49.77
2.56533	49.78
2.58200	49.79
2.59867	49.82
2.61533	49.83
2.63200	49.83
2.64867	49.85
2.66533	49.86
2.68200	49.85
2.69867	49.85
2.71533	49.87
2.73200	49.87
2.74867	49.86
2.76533	49.86
2.78200	49.85
2.79867	49.85
2.81533	49.86
2.83200	49.87
2.84867	49.89
2.86533	49.91
2.88200	49.93
2.89867	49.95
2.91533	49.95
2.93200	49.97
2.94867	49.98
2.96533	49.98
2.98200	49.99
2.99867	50.00
3.01533	50.01
3.03200	50.03
3.04867	50.02
3.06533	50.03
3.08200	50.03
3.09867	50.04
3.11533	50.05
3.13200	50.06
3.14867	50.07
3.16533	50.09
3.18200	50.11
3.19867	50.11
3.21533	50.10
3.23200	50.09
3.24867	50.08
3.26533	50.07
3.28200	50.06
3.29867	50.05
3.31533	50.04
3.33200	50.04
3.34867	50.03
3.36533	50.03
3.38200	50.03
3.39867	50.04
3.41533	50.04
3.43200	50.05
3.44867	50.05
3.46533	50.07
3.48200	50.08
3.49867	50.08
3.51533	50.09
3.53200	50.09
3.54867	50.09
3.56533	50.09
3.58200	50.08
3.59867	50.08
3.61533	50.08
3.63200	50.08
3.64867	50.07
3.66533	50.07
3.68200	50.07
3.69867	50.07
3.71533	50.07
3.73200	50.08
3.74867	50.08
3.76533	50.08
3.78200	50.09
3.79867	50.09
3.81533	50.09
3.83200	50.08
3.84867	50.08
3.86533	50.07
3.88200	50.08
3.89867	50.08
3.91533	50.08
3.93200	50.07
3.94867	50.07
3.96533	50.08
3.98200	50.07
3.99867	50.08

[Status Trace (Injection Unit Temperature)]
Interval(msec)	1000
# of Points	240
Start Time(min)	0.015
End Time(min)	3.999
Intensity Units	
Intensity Multiplier	1
R.Time (min)	Intensity
0.01533	99.97
0.03200	99.97
0.04867	99.97
0.06533	99.97
0.08200	99.98
0.09867	99.98
0.11533	99.97
0.13200	99.98
0.14867	99.97
0.16533	99.98
0.18200	99.98
0.19867	99.98
0.21533	99.97
0.23200	99.98
0.24867	99.98
0.26533	99.98
0.28200	99.98
0.29867	99.98
0.31533	99.98
0.33200	99.98
0.34867	99.98
0.36533	99.98
0.38200	99.98
0.39867	99.98
0.41533	99.98
0.43200	99.98
0.44867	99.98
0.46533	99.98
0.48200	99.98
0.49867	99.98
0.51533	99.98
0.53200	99.98
0.54867	99.98
0.56533	99.98
0.58200	99.98
0.59867	99.98
0.61533	99.98
0.63200	99.98
0.64867	99.98
0.66533	99.98
0.68200	99.98
0.69867	99.98
0.71533	99.98
0.73200	99.98
0.74867	99.98
0.76533	99.98
0.78200	99.98
0.79867	99.98
0.81533	99.98
0.83200	99.98
0.84867	99.98
0.86533	99.98
0.88200	99.98
0.89867	99.98
0.91533	99.98
0.93200	99.98
0.94867	99.98
0.96533	99.98
0.98200	99.98
0.99867	99.98
1.01533	99.98
1.03200	99.98
1.04867	99.98
1.06533	99.98
1.08200	99.98
1.09867	99.98
1.11533	99.98
1.13200	99.98
1.14867	99.98
1.16533	99.98
1.18200	99.98
1.19867	99.98
1.21533	99.98
1.23200	99.98
1.24867	99.98
1.26533	99.98
1.28200	99.98
1.29867	99.98
1.31533	99.98
1.33200	99.98
1.34867	99.98
1.36533	99.98
1.38200	99.98
1.39867	99.98
1.41533	99.98
1.43200	99.98
1.44867	99.98
1.46533	99.98
1.48200	99.98
1.49867	99.98
1.51533	99.98
1.53200	99.98
1.54867	99.98
1.56533	99.98
1.58200	99.98
1.59867	99.98
1.61533	99.98
1.63200	99.98
1.64867	99.98
1.66533	99.98
1.68200	99.98
1.69867	99.98
1.71533	99.98
1.73200	99.98
1.74867	99.98
1.76533	99.98
1.78200	99.98
1.79867	99.98
1.81533	99.98
1.83200	99.98
1.84867	99.98
1.86533	99.98
1.88200	99.98
1.89867	99.97
1.91533	99.97
1.93200	99.98
1.94867	99.97
1.96533	99.98
1.98200	99.98
1.99867	99.97
2.01533	99.97
2.03200	99.97
2.04867	99.97
2.06533	99.97
2.08200	99.97
2.09867	99.97
2.11533	99.97
2.13200	99.97
2.14867	99.97
2.16533	99.97
2.18200	99.97
2.19867	99.97
2.21533	99.97
2.23200	99.96
2.24867	99.97
2.26533	99.97
2.28200	99.96
2.29867	99.97
2.31533	99.97
2.33200	99.97
2.34867	99.96
2.36533	99.96
2.38200	99.97
2.39867	99.96
2.41533	99.97
2.43200	99.96
2.44867	99.96
2.46533	99.97
2.48200	99.97
2.49867	99.96
2.51533	99.97
2.53200	99.97
2.54867	99.97
2.56533	99.97
2.58200	99.96
2.59867	99.97
2.61533	99.97
2.63200	99.97
2.64867	99.97
2.66533	99.97
2.68200	99.97
2.69867	99.98
2.71533	99.98
2.73200	99.98
2.74867	99.98
2.76533	99.98
2.78200	99.98
2.79867	99.98
2.81533	99.98
2.83200	99.99
2.84867	99.99
2.86533	99.99
2.88200	99.99
2.89867	99.99
2.91533	99.99
2.93200	100.00
2.94867	99.99
2.96533	100.00
2.98200	100.00
2.99867	99.99
3.01533	100.00
3.03200	100.00
3.04867	100.00
3.06533	100.00
3.08200	100.00
3.09867	100.00
3.11533	100.01
3.13200	100.01
3.14867	100.01
3.16533	100.01
3.18200	100.01
3.19867	100.01
3.21533	100.01
3.23200	100.01
3.24867	100.01
3.26533	100.01
3.28200	100.01
3.29867	100.01
3.31533	100.01
3.33200	100.01
3.34867	100.01
3.36533	100.02
3.38200	100.02
3.39867	100.01
3.41533	100.02
3.43200	100.02
3.44867	100.02
3.46533	100.02
3.48200	100.02
3.49867	100.02
3.51533	100.02
3.53200	100.02
3.54867	100.02
3.56533	100.02
3.58200	100.02
3.59867	100.03
3.61533	100.02
3.63200	100.02
3.64867	100.02
3.66533	100.02
3.68200	100.02
3.69867	100.02
3.71533	100.02
3.73200	100.03
3.74867	100.02
3.76533	100.02
3.78200	100.03
3.79867	100.03
3.81533	100.03
3.83200	100.02
3.84867	100.02
3.86533	100.03
3.88200	100.03
3.89867	100.02
3.91533	100.03
3.93200	100.03
3.94867	100.03
3.96533	100.03
3.98200	100.03
3.99867	100.03

[Status Trace (Carrier Gas Pressure)]
Interval(msec)	1000
# of Points	240
Start Time(min)	0.015
End Time(min)	3.999
Intensity Units	
Intensity Multiplier	1
R.Time (min)	Intensity
0.01533	57.05
0.03200	55.59
0.04867	58.04
0.06533	59.89
0.08200	58.67
0.09867	57.98
0.11533	58.00
0.13200	58.01
0.14867	58.01
0.16533	58.00
0.18200	58.00
0.19867	58.00
0.21533	58.00
0.23200	58.00
0.24867	58.00
0.26533	58.00
0.28200	58.00
0.29867	58.00
0.31533	58.00
0.33200	58.00
0.34867	58.00
0.36533	58.00
0.38200	58.00
0.39867	58.00
0.41533	58.00
0.43200	58.00
0.44867	58.00
0.46533	58.00
0.48200	58.00
0.49867	58.00
0.51533	58.00
0.53200	58.00
0.54867	58.00
0.56533	58.00
0.58200	58.00
0.59867	58.00
0.61533	58.00
0.63200	58.00
0.64867	58.00
0.66533	58.00
0.68200	58.00
0.69867	58.00
0.71533	58.00
0.73200	58.00
0.74867	58.00
0.76533	58.00
0.78200	58.00
0.79867	58.00
0.81533	58.00
0.83200	58.00
0.84867	58.00
0.86533	58.00
0.88200	58.00
0.89867	58.00
0.91533	58.00
0.93200	58.00
0.94867	58.00
0.96533	58.00
0.98200	58.00
0.99867	58.00
1.01533	58.00
1.03200	58.00
1.04867	58.00
1.06533	58.00
1.08200	58.00
1.09867	58.00
1.11533	58.00
1.13200	58.00
1.14867	58.00
1.16533	58.00
1.18200	58.00
1.19867	58.00
1.21533	58.00
1.23200	58.00
1.24867	58.00
1.26533	58.00
1.28200	58.00
1.29867	58.00
1.31533	58.00
1.33200	58.00
1.34867	58.00
1.36533	58.00
1.38200	58.00
1.39867	58.00
1.41533	58.00
1.43200	58.00
1.44867	58.00
1.46533	58.00
1.48200	58.00
1.49867	58.00
1.51533	58.00
1.53200	58.00
1.54867	58.00
1.56533	58.00
1.58200	58.00
1.59867	58.00
1.61533	58.00
1.63200	58.00
1.64867	58.00
1.66533	58.00
1.68200	58.01
1.69867	58.00
1.71533	58.00
1.73200	58.00
1.74867	58.00
1.76533	58.00
1.78200	58.00
1.79867	58.00
1.81533	58.00
1.83200	58.00
1.84867	58.00
1.86533	58.00
1.88200	58.00
1.89867	58.00
1.91533	58.00
1.93200	58.00
1.94867	58.00
1.96533	58.00
1.98200	58.00
1.99867	58.00
2.01533	58.00
2.03200	58.00
2.04867	58.00
2.06533	58.00
2.08200	58.00
2.09867	58.00
2.11533	58.00
2.13200	58.00
2.14867	58.00
2.16533	58.00
2.18200	58.00
2.19867	58.00
2.21533	58.00
2.23200	58.00
2.24867	58.00
2.26533	58.00
2.28200	58.00
2.29867	58.00
2.31533	58.00
2.33200	58.00
2.34867	58.00
2.36533	58.00
2.38200	57.99
2.39867	57.99
2.41533	58.00
2.43200	58.00
2.44867	58.00
2.46533	58.00
2.48200	58.00
2.49867	58.00
2.51533	57.99
2.53200	57.99
2.54867	58.00
2.56533	58.00
2.58200	58.00
2.59867	58.00
2.61533	58.00
2.63200	58.00
2.64867	58.00
2.66533	58.00
2.68200	58.00
2.69867	58.00
2.71533	58.00
2.73200	58.00
2.74867	58.00
2.76533	58.00
2.78200	58.00
2.79867	58.00
2.81533	58.00
2.83200	58.00
2.84867	58.00
2.86533	58.00
2.88200	58.00
2.89867	58.00
2.91533	58.00
2.93200	58.00
2.94867	58.00
2.96533	58.00
2.98200	58.00
2.99867	58.00
3.01533	58.00
3.03200	58.00
3.04867	58.00
3.06533	58.00
3.08200	58.00
3.09867	58.00
3.11533	58.00
3.13200	58.00
3.14867	58.00
3.16533	58.00
3.18200	58.00
3.19867	58.00
3.21533	58.00
3.23200	58.00
3.24867	58.00
3.26533	58.00
3.28200	58.00
3.29867	58.00
3.31533	58.00
3.33200	58.00
3.34867	58.00
3.36533	58.00
3.38200	58.00
3.39867	58.00
3.41533	58.00
3.43200	58.00
3.44867	58.00
3.46533	58.00
3.48200	58.00
3.49867	58.00
3.51533	58.00
3.53200	58.00
3.54867	58.00
3.56533	58.00
3.58200	58.00
3.59867	58.00
3.61533	58.00
3.63200	58.00
3.64867	58.00
3.66533	58.00
3.68200	58.00
3.69867	58.00
3.71533	58.00
3.73200	58.00
3.74867	58.00
3.76533	58.00
3.78200	58.00
3.79867	58.00
3.81533	58.00
3.83200	58.00
3.84867	58.00
3.86533	58.00
3.88200	58.00
3.89867	58.00
3.91533	58.00
3.93200	58.00
3.94867	58.00
3.96533	58.00
3.98200	58.00
3.99867	58.00

[Status Trace (Carrier Gas Flow)]
Interval(msec)	1000
# of Points	240
Start Time(min)	0.015
End Time(min)	3.999
Intensity Units	
Intensity Multiplier	1
R.Time (min)	Intensity
0.01533	33.86
0.03200	34.54
0.04867	34.55
0.06533	34.51
0.08200	34.51
0.09867	34.52
0.11533	34.52
0.13200	34.52
0.14867	34.52
0.16533	34.52
0.18200	34.52
0.19867	34.52
0.21533	34.52
0.23200	34.52
0.24867	34.52
0.26533	34.52
0.28200	34.51
0.29867	34.52
0.31533	34.52
0.33200	34.52
0.34867	34.52
0.36533	34.52
0.38200	34.52
0.39867	34.52
0.41533	34.51
0.43200	34.52
0.44867	34.52
0.46533	34.52
0.48200	34.52
0.49867	34.52
0.51533	34.52
0.53200	34.52
0.54867	34.52
0.56533	34.52
0.58200	34.52
0.59867	34.52
0.61533	34.52
0.63200	34.52
0.64867	34.52
0.66533	34.52
0.68200	34.52
0.69867	34.52
0.71533	34.51
0.73200	34.52
0.74867	34.52
0.76533	34.52
0.78200	34.52
0.79867	34.52
0.81533	34.52
0.83200	34.52
0.84867	34.52
0.86533	34.52
0.88200	34.52
0.89867	34.52
0.91533	34.52
0.93200	34.52
0.94867	34.52
0.96533	34.52
0.98200	34.52
0.99867	34.52
1.01533	34.52
1.03200	34.52
1.04867	34.52
1.06533	34.51
1.08200	34.52
1.09867	34.52
1.11533	34.52
1.13200	34.52
1.14867	34.52
1.16533	34.52
1.18200	34.52
1.19867	34.52
1.21533	34.52
1.23200	34.52
1.24867	34.52
1.26533	34.52
1.28200	34.52
1.29867	34.52
1.31533	34.52
1.33200	34.52
1.34867	34.52
1.36533	34.52
1.38200	34.52
1.39867	34.52
1.41533	34.52
1.43200	34.52
1.44867	34.52
1.46533	34.52
1.48200	34.52
1.49867	34.52
1.51533	34.52
1.53200	34.52
1.54867	34.52
1.56533	34.52
1.58200	34.52
1.59867	34.52
1.61533	34.52
1.63200	34.52
1.64867	34.52
1.66533	34.52
1.68200	34.52
1.69867	34.52
1.71533	34.52
1.73200	34.52
1.74867	34.52
1.76533	34.52
1.78200	34.52
1.79867	34.51
1.81533	34.52
1.83200	34.51
1.84867	34.51
1.86533	34.51
1.88200	34.52
1.89867	34.52
1.91533	34.52
1.93200	34.52
1.94867	34.52
1.96533	34.53
1.98200	34.52
1.99867	34.52
2.01533	34.52
2.03200	34.52
2.04867	34.52
2.06533	34.51
2.08200	34.52
2.09867	34.52
2.11533	34.52
2.13200	34.52
2.14867	34.51
2.16533	34.52
2.18200	34.52
2.19867	34.52
2.21533	34.52
2.23200	34.52
2.24867	34.52
2.26533	34.52
2.28200	34.52
2.29867	34.52
2.31533	34.51
2.33200	34.52
2.34867	34.52
2.36533	34.52
2.38200	34.51
2.39867	34.52
2.41533	34.52
2.43200	34.52
2.44867	34.51
2.46533	34.53
2.48200	34.52
2.49867	34.52
2.51533	34.52
2.53200	34.52
2.54867	34.52
2.56533	34.51
2.58200	34.52
2.59867	34.52
2.61533	34.52
2.63200	34.52
2.64867	34.52
2.66533	34.52
2.68200	34.52
2.69867	34.51
2.71533	34.52
2.73200	34.52
2.74867	34.51
2.76533	34.52
2.78200	34.52
2.79867	34.52
2.81533	34.51
2.83200	34.53
2.84867	34.52
2.86533	34.52
2.88200	34.52
2.89867	34.52
2.91533	34.53
2.93200	34.52
2.94867	34.52
2.96533	34.52
2.98200	34.52
2.99867	34.51
3.01533	34.52
3.03200	34.52
3.04867	34.52
3.06533	34.52
3.08200	34.52
3.09867	34.52
3.11533	34.51
3.13200	34.51
3.14867	34.52
3.16533	34.52
3.18200	34.52
3.19867	34.52
3.21533	34.52
3.23200	34.52
3.24867	34.52
3.26533	34.52
3.28200	34.51
3.29867	34.52
3.31533	34.52
3.33200	34.52
3.34867	34.52
3.36533	34.52
3.38200	34.52
3.39867	34.52
3.41533	34.52
3.43200	34.51
3.44867	34.52
3.46533	34.52
3.48200	34.52
3.49867	34.51
3.51533	34.52
3.53200	34.52
3.54867	34.52
3.56533	34.52
3.58200	34.52
3.59867	34.52
3.61533	34.52
3.63200	34.52
3.64867	34.52
3.66533	34.52
3.68200	34.52
3.69867	34.52
3.71533	34.52
3.73200	34.52
3.74867	34.52
3.76533	34.52
3.78200	34.52
3.79867	34.51
3.81533	34.52
3.83200	34.52
3.84867	34.52
3.86533	34.51
3.88200	34.52
3.89867	34.53
3.91533	34.52
3.93200	34.52
3.94867	34.52
3.96533	34.52
3.98200	34.52
3.99867	34.51

[Status Trace (Column Flow)]
Interval(msec)	1000
# of Points	240
Start Time(min)	0.015
End Time(min)	3.999
Intensity Units	
Intensity Multiplier	1
R.Time (min)	Intensity
0.01533	5.40
0.03200	5.23
0.04867	5.52
0.06533	5.73
0.08200	5.59
0.09867	5.51
0.11533	5.51
0.13200	5.51
0.14867	5.51
0.16533	5.51
0.18200	5.51
0.19867	5.51
0.21533	5.51
0.23200	5.51
0.24867	5.51
0.26533	5.51
0.28200	5.51
0.29867	5.51
0.31533	5.51
0.33200	5.51
0.34867	5.51
0.36533	5.51
0.38200	5.51
0.39867	5.51
0.41533	5.51
0.43200	5.51
0.44867	5.51
0.46533	5.51
0.48200	5.51
0.49867	5.51
0.51533	5.51
0.53200	5.51
0.54867	5.51
0.56533	5.51
0.58200	5.51
0.59867	5.51
0.61533	5.51
0.63200	5.51
0.64867	5.51
0.66533	5.51
0.68200	5.51
0.69867	5.51
0.71533	5.51
0.73200	5.51
0.74867	5.51
0.76533	5.51
0.78200	5.51
0.79867	5.51
0.81533	5.51
0.83200	5.51
0.84867	5.51
0.86533	5.51
0.88200	5.51
0.89867	5.51
0.91533	5.51
0.93200	5.51
0.94867	5.51
0.96533	5.51
0.98200	5.51
0.99867	5.51
1.01533	5.51
1.03200	5.51
1.04867	5.51
1.06533	5.51
1.08200	5.51
1.09867	5.51
1.11533	5.51
1.13200	5.51
1.14867	5.51
1.16533	5.51
1.18200	5.51
1.19867	5.51
1.21533	5.51
1.23200	5.51
1.24867	5.51
1.26533	5.51
1.28200	5.51
1.29867	5.51
1.31533	5.51
1.33200	5.51
1.34867	5.51
1.36533	5.51
1.38200	5.51
1.39867	5.51
1.41533	5.51
1.43200	5.51
1.44867	5.51
1.46533	5.51
1.48200	5.51
1.49867	5.51
1.51533	5.51
1.53200	5.51
1.54867	5.51
1.56533	5.51
1.58200	5.51
1.59867	5.51
1.61533	5.51
1.63200	5.51
1.64867	5.50
1.66533	5.49
1.68200	5.48
1.69867	5.47
1.71533	5.46
1.73200	5.45
1.74867	5.43
1.76533	5.43
1.78200	5.42
1.79867	5.40
1.81533	5.39
1.83200	5.39
1.84867	5.37
1.86533	5.36
1.88200	5.36
1.89867	5.34
1.91533	5.33
1.93200	5.33
1.94867	5.32
1.96533	5.31
1.98200	5.30
1.99867	5.29
2.01533	5.28
2.03200	5.27
2.04867	5.26
2.06533	5.25
2.08200	5.24
2.09867	5.23
2.11533	5.22
2.13200	5.21
2.14867	5.20
2.16533	5.19
2.18200	5.18
2.19867	5.17
2.21533	5.16
2.23200	5.15
2.24867	5.14
2.26533	5.14
2.28200	5.13
2.29867	5.12
2.31533	5.11
2.33200	5.10
2.34867	5.09
2.36533	5.08
2.38200	5.08
2.39867	5.08
2.41533	5.08
2.43200	5.08
2.44867	5.08
2.46533	5.08
2.48200	5.08
2.49867	5.08
2.51533	5.08
2.53200	5.08
2.54867	5.08
2.56533	5.08
2.58200	5.08
2.59867	5.08
2.61533	5.08
2.63200	5.08
2.64867	5.07
2.66533	5.07
2.68200	5.07
2.69867	5.07
2.71533	5.07
2.73200	5.07
2.74867	5.07
2.76533	5.07
2.78200	5.07
2.79867	5.07
2.81533	5.07
2.83200	5.07
2.84867	5.07
2.86533	5.07
2.88200	5.07
2.89867	5.07
2.91533	5.07
2.93200	5.07
2.94867	5.07
2.96533	5.07
2.98200	5.07
2.99867	5.07
3.01533	5.07
3.03200	5.07
3.04867	5.07
3.06533	5.07
3.08200	5.07
3.09867	5.07
3.11533	5.07
3.13200	5.07
3.14867	5.07
3.16533	5.07
3.18200	5.07
3.19867	5.07
3.21533	5.07
3.23200	5.07
3.24867	5.07
3.26533	5.07
3.28200	5.07
3.29867	5.07
3.31533	5.07
3.33200	5.07
3.34867	5.07
3.36533	5.07
3.38200	5.07
3.39867	5.07
3.41533	5.07
3.43200	5.07
3.44867	5.07
3.46533	5.07
3.48200	5.07
3.49867	5.07
3.51533	5.07
3.53200	5.07
3.54867	5.07
3.56533	5.07
3.58200	5.07
3.59867	5.07
3.61533	5.07
3.63200	5.07
3.64867	5.07
3.66533	5.07
3.68200	5.07
3.69867	5.07
3.71533	5.07
3.73200	5.07
3.74867	5.07
3.76533	5.07
3.78200	5.07
3.79867	5.07
3.81533	5.07
3.83200	5.07
3.84867	5.07
3.86533	5.07
3.88200	5.07
3.89867	5.07
3.91533	5.07
3.93200	5.07
3.94867	5.07
3.96533	5.07
3.98200	5.07
3.99867	5.07

[Status Trace (Linear Velocity)]
Interval(msec)	1000
# of Points	240
Start Time(min)	0.015
End Time(min)	3.999
Intensity Units	
Intensity Multiplier	1
R.Time (min)	Intensity
0.01533	38.39
0.03200	37.43
0.04867	39.03
0.06533	40.24
0.08200	39.45
0.09867	39.00
0.11533	39.01
0.13200	39.02
0.14867	39.02
0.16533	39.02
0.18200	39.02
0.19867	39.02
0.21533	39.02
0.23200	39.02
0.24867	39.02
0.26533	39.02
0.28200	39.02
0.29867	39.02
0.31533	39.02
0.33200	39.02
0.34867	39.01
0.36533	39.01
0.38200	39.01
0.39867	39.01
0.41533	39.01
0.43200	39.01
0.44867	39.01
0.46533	39.01
0.48200	39.01
0.49867	39.01
0.51533	39.01
0.53200	39.02
0.54867	39.02
0.56533	39.02
0.58200	39.02
0.59867	39.02
0.61533	39.02
0.63200	39.02
0.64867	39.02
0.66533	39.02
0.68200	39.02
0.69867	39.02
0.71533	39.02
0.73200	39.02
0.74867	39.02
0.76533	39.02
0.78200	39.02
0.79867	39.02
0.81533	39.02
0.83200	39.02
0.84867	39.02
0.86533	39.02
0.88200	39.02
0.89867	39.02
0.91533	39.02
0.93200	39.01
0.94867	39.01
0.96533	39.01
0.98200	39.01
0.99867	39.01
1.01533	39.01
1.03200	39.01
1.04867	39.02
1.06533	39.02
1.08200	39.02
1.09867	39.02
1.11533	39.02
1.13200	39.02
1.14867	39.02
1.16533	39.02
1.18200	39.02
1.19867	39.02
1.21533	39.02
1.23200	39.02
1.24867	39.02
1.26533	39.02
1.28200	39.02
1.29867	39.02
1.31533	39.02
1.33200	39.02
1.34867	39.02
1.36533	39.02
1.38200	39.02
1.39867	39.02
1.41533	39.02
1.43200	39.02
1.44867	39.02
1.46533	39.02
1.48200	39.02
1.49867	39.02
1.51533	39.02
1.53200	39.01
1.54867	39.02
1.56533	39.02
1.58200	39.02
1.59867	39.02
1.61533	39.01
1.63200	39.00
1.64867	38.97
1.66533	38.94
1.68200	38.91
1.69867	38.87
1.71533	38.84
1.73200	38.81
1.74867	38.78
1.76533	38.74
1.78200	38.72
1.79867	38.68
1.81533	38.65
1.83200	38.62
1.84867	38.59
1.86533	38.56
1.88200	38.53
1.89867	38.50
1.91533	38.46
1.93200	38.44
1.94867	38.40
1.96533	38.37
1.98200	38.35
1.99867	38.32
2.01533	38.29
2.03200	38.26
2.04867	38.22
2.06533	38.20
2.08200	38.17
2.09867	38.14
2.11533	38.11
2.13200	38.08
2.14867	38.05
2.16533	38.01
2.18200	37.99
2.19867	37.96
2.21533	37.93
2.23200	37.90
2.24867	37.87
2.26533	37.84
2.28200	37.81
2.29867	37.78
2.31533	37.75
2.33200	37.72
2.34867	37.69
2.36533	37.67
2.38200	37.66
2.39867	37.65
2.41533	37.66
2.43200	37.66
2.44867	37.66
2.46533	37.66
2.48200	37.65
2.49867	37.65
2.51533	37.65
2.53200	37.65
2.54867	37.65
2.56533	37.65
2.58200	37.65
2.59867	37.65
2.61533	37.64
2.63200	37.64
2.64867	37.64
2.66533	37.64
2.68200	37.64
2.69867	37.64
2.71533	37.64
2.73200	37.64
2.74867	37.64
2.76533	37.64
2.78200	37.64
2.79867	37.64
2.81533	37.64
2.83200	37.64
2.84867	37.64
2.86533	37.64
2.88200	37.64
2.89867	37.64
2.91533	37.63
2.93200	37.63
2.94867	37.63
2.96533	37.63
2.98200	37.63
2.99867	37.63
3.01533	37.63
3.03200	37.63
3.04867	37.63
3.06533	37.63
3.08200	37.63
3.09867	37.63
3.11533	37.63
3.13200	37.63
3.14867	37.62
3.16533	37.62
3.18200	37.62
3.19867	37.62
3.21533	37.62
3.23200	37.62
3.24867	37.62
3.26533	37.62
3.28200	37.62
3.29867	37.63
3.31533	37.63
3.33200	37.63
3.34867	37.63
3.36533	37.63
3.38200	37.63
3.39867	37.63
3.41533	37.63
3.43200	37.63
3.44867	37.63
3.46533	37.62
3.48200	37.62
3.49867	37.62
3.51533	37.62
3.53200	37.62
3.54867	37.62
3.56533	37.62
3.58200	37.62
3.59867	37.62
3.61533	37.62
3.63200	37.62
3.64867	37.62
3.66533	37.62
3.68200	37.62
3.69867	37.62
3.71533	37.62
3.73200	37.62
3.74867	37.62
3.76533	37.62
3.78200	37.62
3.79867	37.62
3.81533	37.62
3.83200	37.62
3.84867	37.62
3.86533	37.62
3.88200	37.62
3.89867	37.62
3.91533	37.62
3.93200	37.62
3.94867	37.62
3.96533	37.62
3.98200	37.62
3.99867	37.62

