[Header]
Application Name	LabSolutions
Version	5.110
Data File Name	C:\Users\User\Desktop\Junior\UIC Prairie Sampling\2023\8.18.23\081823_038.gcd
Output Date	8/31/2023
Output Time	12:48:09 PM

[File Information]
Type	Data File
Generated	8/30/2023 8:10:57 PM
Generated by	System Administrator
Modified	8/30/2023 8:17:18 PM
Modified by	System Administrator

[Sample Information]
Operator Name	System Administrator
Acquired	8/30/2023 8:13:18 PM
Sample Type	0:Unknown
Level	0
Sample Name	038
Sample ID	038
ISTD Amount1	1
ISTD Amount2	1
ISTD Amount3	1
ISTD Amount4	1
ISTD Amount5	1
ISTD Amount6	1
ISTD Amount7	1
ISTD Amount8	1
ISTD Amount9	1
ISTD Amount10	1
ISTD Amount11	1
ISTD Amount12	1
ISTD Amount13	1
ISTD Amount14	1
ISTD Amount15	1
ISTD Amount16	1
ISTD Amount17	1
ISTD Amount18	1
ISTD Amount19	1
ISTD Amount20	1
ISTD Amount21	1
ISTD Amount22	1
ISTD Amount23	1
ISTD Amount24	1
ISTD Amount25	1
ISTD Amount26	1
ISTD Amount27	1
ISTD Amount28	1
ISTD Amount29	1
ISTD Amount30	1
ISTD Amount31	1
ISTD Amount32	1
Sample Amount	1
Dilution Factor	1
Vial#	37
Injection Volume	1
Injection Count	1
Bar Code	

[Original Files]
Data File	C:\Users\User\Desktop\Junior\UIC Prairie Sampling\8.18.23\081823_038.gcd
Method File	C:\LabSolutions\Data\GHG_4min_2022\ghg3_togas_w_acet_4 min_new_int.gcm
Batch File	C:\LabSolutions\Data\BATCH FILES\081823.gcb
Report Format File	c:\LabSolutions\System\DEFAULT.lsr

[File Description]


[Configuration]
Instrument Name	C0B7VH3-Instrument1
Instrument #	1
Line #	1
# of Detectors	3
Detector ID	DET#1	DET#2	DET#3
Detector Name	FID	PTCD	ECD
# of Channels	1	1	1

[Peak Table(Ch1)]
# of Peaks	3
Peak#	R.Time	I.Time	F.Time	Area	Height	A/H	Conc.	Mark	ID#	Name	k'	Plate #	Plate Ht.	Tailing	Resolution	Sep.Factor	Area Ratio	Height Ratio	Conc. %	Norm Conc.
1	1.472	1.435	1.527	4634	2303	2.012	0.000	   	1	CO	0.000	9540	15.724	1.367	0.000	0.000	0	0	0.000	0.000
2	1.564	1.527	1.630	4456	2221	2.006	21.724	 V 	2	CH4	0.062	11373	13.189	1.136	1.541	0.000	0	0	7.895	7.895
3	1.989	1.938	2.425	1314973	631449	2.082	253.419	   	3	CO2	0.351	17524	8.560	1.295	7.164	5.640	0	0	92.105	92.105

[Peak Table(Ch2)]
# of Peaks	0

[Peak Table(Ch3)]
# of Peaks	5
Peak#	R.Time	I.Time	F.Time	Area	Height	A/H	Conc.	Mark	ID#	Name	k'	Plate #	Plate Ht.	Tailing	Resolution	Sep.Factor	Area Ratio	Height Ratio	Conc. %	Norm Conc.
1	2.458	2.440	2.506	704	284	2.479	0.000	   			0.000	14996	10.003	0.000	0.000	0.000	0	0	0.000	0.000
2	2.524	2.506	2.576	315	121	2.591	0.000	 V 			0.027	7732	19.401	0.000	0.676	0.000	0	0	0.000	0.000
3	2.623	2.576	2.693	378	102	3.703	0.000	 V 			0.067	10102	14.848	0.000	0.903	2.500	0	0	0.000	0.000
4	2.891	2.777	3.056	14779	4014	3.682	0.219	   	1	N2O	0.176	13981	10.729	1.472	2.648	2.622	0	0	100.000	100.000
5	3.265	3.188	3.965	19441	867	22.420	0.000	   			0.328	383	391.193	5.095	0.978	1.864	0	0	0.000	0.000

[Compound Results(Ch1)]
# of IDs	6
ID#	Name	R.Time	Area	Height	Conc.	Curve	3rd	2nd	1st	Constant	Area Ratio	Height Ratio	Conc. %	Norm Conc.
1	CO	1.472	4634	2303	0.000	Linear	0.000000e+00	0.000000e+00	0.000000e+00	0.000000e+00	0	0	0.000	0.000
2	CH4	1.564	4456	2221	21.724	Linear	0.000000e+00	0.000000e+00	2.051179e+002	0.000000e+00	0	0	7.895	7.895
3	CO2	1.989	1314973	631449	253.419	Linear	0.000000e+00	0.000000e+00	5.188919e+003	0.000000e+00	0	0	92.105	92.105
4	Ethylene	0.000	0	0	0.000	Linear	0.000000e+00	0.000000e+00	0.000000e+00	0.000000e+00	0	0	0.000	0.000
5	Acetylene	0.000	0	0	0.000	Linear	0.000000e+00	0.000000e+00	0.000000e+00	0.000000e+00	0	0	0.000	0.000
6	Ethane	0.000	0	0	0.000	Linear	0.000000e+00	0.000000e+00	0.000000e+00	0.000000e+00	0	0	0.000	0.000

[Compound Results(Ch2)]
# of IDs	5
ID#	Name	R.Time	Area	Height	Conc.	Curve	3rd	2nd	1st	Constant	Area Ratio	Height Ratio	Conc. %	Norm Conc.
1	Hydrogen	0.000	0	0	0.000	Linear	0.000000e+00	0.000000e+00	0.000000e+00	0.000000e+00	0	0	0.000	0.000
2	Oxygen	0.000	0	0	0.000	Linear	0.000000e+00	0.000000e+00	0.000000e+00	0.000000e+00	0	0	0.000	0.000
3	Nitrogen	0.000	0	0	0.000	Linear	0.000000e+00	0.000000e+00	0.000000e+00	0.000000e+00	0	0	0.000	0.000
4	Methane	0.000	0	0	0.000	Linear	0.000000e+00	0.000000e+00	0.000000e+00	0.000000e+00	0	0	0.000	0.000
5	Carbon Monoxide	0.000	0	0	0.000	Linear	0.000000e+00	0.000000e+00	0.000000e+00	0.000000e+00	0	0	0.000	0.000

[Compound Results(Ch3)]
# of IDs	2
ID#	Name	R.Time	Area	Height	Conc.	Curve	3rd	2nd	1st	Constant	Area Ratio	Height Ratio	Conc. %	Norm Conc.
1	N2O	2.891	14779	4014	0.219	Linear	0.000000e+00	0.000000e+00	6.759880e+004	0.000000e+00	0	0	100.000	100.000
2	SF6	0.000	0	0	0.000	Linear	0.000000e+00	0.000000e+00	0.000000e+00	0.000000e+00	0	0	0.000	0.000

[Group Results(Ch1)]
# of Groups	0

[Group Results(Ch2)]
# of Groups	0

[Group Results(Ch3)]
# of Groups	0

[Chromatogram (Ch1)]
Interval(msec)	220
# of Points	1091
Start Time(min)	0.002
End Time(min)	3.998
R.Time (min)	Intensity
0.00167	-2
0.00533	4
0.00900	6
0.01267	4
0.01633	2
0.02000	2
0.02367	5
0.02733	5
0.03100	3
0.03467	0
0.03833	0
0.04200	-1
0.04567	-4
0.04933	-6
0.05300	-10
0.05667	-15
0.06033	-18
0.06400	-15
0.06767	-9
0.07133	-5
0.07500	0
0.07867	8
0.08233	17
0.08600	21
0.08967	18
0.09333	11
0.09700	1
0.10067	-6
0.10433	-13
0.10800	-18
0.11167	-20
0.11533	-19
0.11900	-15
0.12267	-4
0.12633	8
0.13000	16
0.13367	19
0.13733	16
0.14100	11
0.14467	4
0.14833	-5
0.15200	-11
0.15567	-15
0.15933	-12
0.16300	-7
0.16667	-3
0.17033	-4
0.17400	-7
0.17767	-11
0.18133	-14
0.18500	-15
0.18867	-13
0.19233	-8
0.19600	-2
0.19967	2
0.20333	4
0.20700	5
0.21067	7
0.21433	9
0.21800	9
0.22167	10
0.22533	12
0.22900	13
0.23267	13
0.23633	13
0.24000	10
0.24367	3
0.24733	-4
0.25100	-9
0.25467	-13
0.25833	-15
0.26200	-14
0.26567	-9
0.26933	-4
0.27300	2
0.27667	5
0.28033	9
0.28400	10
0.28767	7
0.29133	2
0.29500	-3
0.29867	-6
0.30233	-6
0.30600	-5
0.30967	-3
0.31333	-1
0.31700	3
0.32067	11
0.32433	18
0.32800	19
0.33167	17
0.33533	16
0.33900	15
0.34267	13
0.34633	7
0.35000	-1
0.35367	-7
0.35733	-10
0.36100	-11
0.36467	-10
0.36833	-6
0.37200	-3
0.37567	-4
0.37933	-6
0.38300	-9
0.38667	-14
0.39033	-15
0.39400	-14
0.39767	-14
0.40133	-13
0.40500	-9
0.40867	-5
0.41233	-3
0.41600	-3
0.41967	-3
0.42333	-4
0.42700	-6
0.43067	-8
0.43433	-10
0.43800	-12
0.44167	-13
0.44533	-13
0.44900	-11
0.45267	-9
0.45633	-9
0.46000	-9
0.46367	-11
0.46733	-10
0.47100	-3
0.47467	7
0.47833	16
0.48200	22
0.48567	22
0.48933	16
0.49300	9
0.49667	1
0.50033	-3
0.50400	-4
0.50767	-1
0.51133	8
0.51500	19
0.51867	24
0.52233	23
0.52600	20
0.52967	21
0.53333	21
0.53700	18
0.54067	12
0.54433	7
0.54800	5
0.55167	5
0.55533	5
0.55900	3
0.56267	2
0.56633	2
0.57000	3
0.57367	6
0.57733	7
0.58100	7
0.58467	9
0.58833	12
0.59200	15
0.59567	15
0.59933	14
0.60300	15
0.60667	18
0.61033	22
0.61400	26
0.61767	29
0.62133	31
0.62500	30
0.62867	27
0.63233	20
0.63600	14
0.63967	8
0.64333	3
0.64700	-0
0.65067	0
0.65433	5
0.65800	12
0.66167	19
0.66533	22
0.66900	23
0.67267	23
0.67633	24
0.68000	25
0.68367	21
0.68733	15
0.69100	10
0.69467	6
0.69833	3
0.70200	-1
0.70567	-4
0.70933	-8
0.71300	-11
0.71667	-12
0.72033	-9
0.72400	-4
0.72767	2
0.73133	7
0.73500	10
0.73867	13
0.74233	17
0.74600	17
0.74967	14
0.75333	9
0.75700	2
0.76067	-3
0.76433	0
0.76800	7
0.77167	11
0.77533	15
0.77900	18
0.78267	19
0.78633	17
0.79000	14
0.79367	12
0.79733	8
0.80100	5
0.80467	7
0.80833	12
0.81200	15
0.81567	13
0.81933	7
0.82300	4
0.82667	3
0.83033	4
0.83400	6
0.83767	7
0.84133	6
0.84500	6
0.84867	10
0.85233	12
0.85600	12
0.85967	10
0.86333	8
0.86700	8
0.87067	11
0.87433	15
0.87800	17
0.88167	15
0.88533	10
0.88900	6
0.89267	8
0.89633	12
0.90000	17
0.90367	20
0.90733	19
0.91100	18
0.91467	17
0.91833	17
0.92200	14
0.92567	10
0.92933	8
0.93300	9
0.93667	10
0.94033	12
0.94400	15
0.94767	15
0.95133	12
0.95500	9
0.95867	8
0.96233	8
0.96600	9
0.96967	7
0.97333	5
0.97700	4
0.98067	3
0.98433	3
0.98800	4
0.99167	5
0.99533	4
0.99900	4
1.00267	6
1.00633	8
1.01000	10
1.01367	9
1.01733	9
1.02100	10
1.02467	14
1.02833	22
1.03200	28
1.03567	31
1.03933	30
1.04300	26
1.04667	20
1.05033	13
1.05400	6
1.05767	2
1.06133	5
1.06500	10
1.06867	13
1.07233	15
1.07600	16
1.07967	17
1.08333	17
1.08700	16
1.09067	13
1.09433	10
1.09800	6
1.10167	5
1.10533	4
1.10900	2
1.11267	1
1.11633	-1
1.12000	-5
1.12367	-9
1.12733	-10
1.13100	-7
1.13467	-0
1.13833	3
1.14200	1
1.14567	-4
1.14933	-5
1.15300	-3
1.15667	-2
1.16033	-2
1.16400	-0
1.16767	-1
1.17133	-5
1.17500	-6
1.17867	-3
1.18233	2
1.18600	6
1.18967	7
1.19333	5
1.19700	1
1.20067	-2
1.20433	-6
1.20800	-9
1.21167	-9
1.21533	-8
1.21900	-8
1.22267	-4
1.22633	1
1.23000	6
1.23367	11
1.23733	16
1.24100	21
1.24467	23
1.24833	22
1.25200	19
1.25567	16
1.25933	14
1.26300	12
1.26667	12
1.27033	13
1.27400	11
1.27767	7
1.28133	6
1.28500	6
1.28867	3
1.29233	-2
1.29600	-7
1.29967	-14
1.30333	-16
1.30700	-12
1.31067	-3
1.31433	6
1.31800	9
1.32167	11
1.32533	11
1.32900	6
1.33267	2
1.33633	-0
1.34000	1
1.34367	3
1.34733	3
1.35100	5
1.35467	6
1.35833	8
1.36200	10
1.36567	11
1.36933	10
1.37300	8
1.37667	6
1.38033	5
1.38400	5
1.38767	3
1.39133	-2
1.39500	-7
1.39867	-12
1.40233	-13
1.40600	-11
1.40967	-8
1.41333	-7
1.41700	-7
1.42067	-9
1.42433	-15
1.42800	-20
1.43167	-19
1.43533	-11
1.43900	-0
1.44267	4
1.44633	64
1.45000	290
1.45367	681
1.45733	1143
1.46100	1578
1.46467	1937
1.46833	2186
1.47200	2290
1.47567	2220
1.47933	1988
1.48300	1657
1.48667	1302
1.49033	979
1.49400	716
1.49767	515
1.50133	365
1.50500	255
1.50867	178
1.51233	126
1.51600	95
1.51967	77
1.52333	65
1.52700	56
1.53067	55
1.53433	92
1.53800	224
1.54167	500
1.54533	897
1.54900	1329
1.55267	1713
1.55633	2005
1.56000	2181
1.56367	2204
1.56733	2056
1.57100	1765
1.57467	1401
1.57833	1045
1.58200	746
1.58567	521
1.58933	357
1.59300	239
1.59667	155
1.60033	97
1.60400	62
1.60767	43
1.61133	30
1.61500	20
1.61867	12
1.62233	1
1.62600	-11
1.62967	-20
1.63333	-24
1.63700	-24
1.64067	-23
1.64433	-22
1.64800	-21
1.65167	-21
1.65533	-23
1.65900	-25
1.66267	-26
1.66633	-25
1.67000	-24
1.67367	-24
1.67733	-23
1.68100	-22
1.68467	-24
1.68833	-26
1.69200	-30
1.69567	-32
1.69933	-33
1.70300	-35
1.70667	-34
1.71033	-33
1.71400	-31
1.71767	-30
1.72133	-32
1.72500	-35
1.72867	-37
1.73233	-40
1.73600	-42
1.73967	-42
1.74333	-38
1.74700	-32
1.75067	-30
1.75433	-29
1.75800	-26
1.76167	-21
1.76533	-17
1.76900	-16
1.77267	-16
1.77633	-20
1.78000	-23
1.78367	-26
1.78733	-28
1.79100	-29
1.79467	-29
1.79833	-27
1.80200	-25
1.80567	-25
1.80933	-24
1.81300	-22
1.81667	-19
1.82033	-19
1.82400	-22
1.82767	-27
1.83133	-29
1.83500	-29
1.83867	-29
1.84233	-28
1.84600	-28
1.84967	-28
1.85333	-28
1.85700	-27
1.86067	-25
1.86433	-25
1.86800	-29
1.87167	-35
1.87533	-40
1.87900	-44
1.88267	-48
1.88633	-50
1.89000	-51
1.89367	-51
1.89733	-49
1.90100	-46
1.90467	-45
1.90833	-41
1.91200	-39
1.91567	-36
1.91933	-33
1.92300	-30
1.92667	-30
1.93033	-30
1.93400	-27
1.93767	-22
1.94133	-16
1.94500	3
1.94867	106
1.95233	693
1.95600	3449
1.95967	13120
1.96333	38910
1.96700	92330
1.97067	179366
1.97433	292906
1.97800	414281
1.98167	521943
1.98533	598114
1.98900	631468
1.99267	618147
1.99633	563211
2.00000	479764
2.00367	384803
2.00733	293452
2.01100	215224
2.01467	153626
2.01833	107942
2.02200	75440
2.02567	52947
2.02933	37642
2.03300	27312
2.03667	20344
2.04033	15612
2.04400	12357
2.04767	10076
2.05133	8444
2.05500	7248
2.05867	6347
2.06233	5649
2.06600	5090
2.06967	4636
2.07333	4259
2.07700	3940
2.08067	3665
2.08433	3429
2.08800	3223
2.09167	3041
2.09533	2880
2.09900	2734
2.10267	2601
2.10633	2479
2.11000	2367
2.11367	2263
2.11733	2166
2.12100	2077
2.12467	1993
2.12833	1915
2.13200	1845
2.13567	1779
2.13933	1714
2.14300	1653
2.14667	1595
2.15033	1538
2.15400	1486
2.15767	1441
2.16133	1398
2.16500	1355
2.16867	1313
2.17233	1274
2.17600	1238
2.17967	1204
2.18333	1173
2.18700	1147
2.19067	1125
2.19433	1105
2.19800	1082
2.20167	1053
2.20533	1019
2.20900	990
2.21267	966
2.21633	944
2.22000	922
2.22367	906
2.22733	892
2.23100	877
2.23467	858
2.23833	838
2.24200	819
2.24567	799
2.24933	778
2.25300	759
2.25667	741
2.26033	726
2.26400	709
2.26767	692
2.27133	678
2.27500	665
2.27867	651
2.28233	639
2.28600	628
2.28967	616
2.29333	601
2.29700	583
2.30067	566
2.30433	555
2.30800	551
2.31167	549
2.31533	549
2.31900	547
2.32267	539
2.32633	531
2.33000	522
2.33367	511
2.33733	500
2.34100	488
2.34467	478
2.34833	470
2.35200	461
2.35567	453
2.35933	447
2.36300	444
2.36667	438
2.37033	432
2.37400	422
2.37767	411
2.38133	400
2.38500	392
2.38867	388
2.39233	390
2.39600	393
2.39967	395
2.40333	395
2.40700	391
2.41067	386
2.41433	382
2.41800	379
2.42167	376
2.42533	374
2.42900	369
2.43267	363
2.43633	355
2.44000	344
2.44367	334
2.44733	328
2.45100	327
2.45467	325
2.45833	320
2.46200	312
2.46567	306
2.46933	302
2.47300	298
2.47667	293
2.48033	288
2.48400	284
2.48767	283
2.49133	283
2.49500	284
2.49867	284
2.50233	284
2.50600	283
2.50967	278
2.51333	273
2.51700	267
2.52067	264
2.52433	262
2.52800	264
2.53167	268
2.53533	267
2.53900	264
2.54267	259
2.54633	253
2.55000	247
2.55367	242
2.55733	236
2.56100	226
2.56467	216
2.56833	207
2.57200	199
2.57567	193
2.57933	190
2.58300	189
2.58667	191
2.59033	192
2.59400	198
2.59767	204
2.60133	211
2.60500	216
2.60867	218
2.61233	217
2.61600	214
2.61967	210
2.62333	203
2.62700	197
2.63067	190
2.63433	185
2.63800	177
2.64167	169
2.64533	163
2.64900	162
2.65267	165
2.65633	166
2.66000	167
2.66367	170
2.66733	174
2.67100	178
2.67467	179
2.67833	178
2.68200	177
2.68567	175
2.68933	170
2.69300	165
2.69667	160
2.70033	158
2.70400	156
2.70767	157
2.71133	158
2.71500	159
2.71867	160
2.72233	160
2.72600	163
2.72967	167
2.73333	173
2.73700	176
2.74067	175
2.74433	170
2.74800	164
2.75167	160
2.75533	157
2.75900	154
2.76267	152
2.76633	153
2.77000	151
2.77367	147
2.77733	143
2.78100	138
2.78467	133
2.78833	128
2.79200	125
2.79567	125
2.79933	126
2.80300	128
2.80667	127
2.81033	126
2.81400	124
2.81767	122
2.82133	118
2.82500	114
2.82867	110
2.83233	108
2.83600	111
2.83967	117
2.84333	121
2.84700	125
2.85067	129
2.85433	132
2.85800	134
2.86167	133
2.86533	132
2.86900	130
2.87267	127
2.87633	124
2.88000	122
2.88367	118
2.88733	114
2.89100	110
2.89467	109
2.89833	112
2.90200	116
2.90567	117
2.90933	118
2.91300	119
2.91667	122
2.92033	123
2.92400	120
2.92767	117
2.93133	117
2.93500	117
2.93867	117
2.94233	117
2.94600	114
2.94967	109
2.95333	103
2.95700	97
2.96067	94
2.96433	93
2.96800	95
2.97167	98
2.97533	102
2.97900	107
2.98267	111
2.98633	116
2.99000	118
2.99367	114
2.99733	107
3.00100	100
3.00467	96
3.00833	92
3.01200	90
3.01567	91
3.01933	91
3.02300	91
3.02667	94
3.03033	96
3.03400	97
3.03767	100
3.04133	103
3.04500	104
3.04867	102
3.05233	99
3.05600	96
3.05967	95
3.06333	95
3.06700	95
3.07067	94
3.07433	90
3.07800	84
3.08167	74
3.08533	63
3.08900	58
3.09267	57
3.09633	57
3.10000	59
3.10367	59
3.10733	60
3.11100	64
3.11467	72
3.11833	81
3.12200	89
3.12567	95
3.12933	97
3.13300	98
3.13667	99
3.14033	99
3.14400	98
3.14767	98
3.15133	101
3.15500	106
3.15867	104
3.16233	98
3.16600	94
3.16967	92
3.17333	91
3.17700	90
3.18067	87
3.18433	86
3.18800	86
3.19167	87
3.19533	89
3.19900	90
3.20267	88
3.20633	88
3.21000	87
3.21367	87
3.21733	86
3.22100	83
3.22467	77
3.22833	73
3.23200	76
3.23567	81
3.23933	84
3.24300	83
3.24667	81
3.25033	79
3.25400	76
3.25767	73
3.26133	73
3.26500	74
3.26867	74
3.27233	72
3.27600	71
3.27967	71
3.28333	73
3.28700	76
3.29067	80
3.29433	83
3.29800	85
3.30167	83
3.30533	81
3.30900	77
3.31267	73
3.31633	72
3.32000	73
3.32367	75
3.32733	77
3.33100	78
3.33467	79
3.33833	81
3.34200	82
3.34567	80
3.34933	79
3.35300	80
3.35667	81
3.36033	82
3.36400	79
3.36767	74
3.37133	70
3.37500	68
3.37867	67
3.38233	67
3.38600	66
3.38967	59
3.39333	53
3.39700	52
3.40067	49
3.40433	43
3.40800	42
3.41167	44
3.41533	46
3.41900	51
3.42267	57
3.42633	61
3.43000	61
3.43367	58
3.43733	55
3.44100	54
3.44467	56
3.44833	61
3.45200	66
3.45567	73
3.45933	79
3.46300	82
3.46667	82
3.47033	80
3.47400	76
3.47767	73
3.48133	68
3.48500	62
3.48867	56
3.49233	52
3.49600	48
3.49967	44
3.50333	43
3.50700	43
3.51067	43
3.51433	43
3.51800	43
3.52167	45
3.52533	48
3.52900	55
3.53267	62
3.53633	67
3.54000	68
3.54367	67
3.54733	66
3.55100	66
3.55467	70
3.55833	71
3.56200	64
3.56567	54
3.56933	45
3.57300	37
3.57667	29
3.58033	24
3.58400	22
3.58767	24
3.59133	29
3.59500	33
3.59867	35
3.60233	35
3.60600	34
3.60967	33
3.61333	33
3.61700	35
3.62067	39
3.62433	43
3.62800	46
3.63167	50
3.63533	54
3.63900	56
3.64267	57
3.64633	55
3.65000	52
3.65367	48
3.65733	44
3.66100	41
3.66467	37
3.66833	32
3.67200	30
3.67567	32
3.67933	31
3.68300	29
3.68667	31
3.69033	32
3.69400	35
3.69767	40
3.70133	44
3.70500	46
3.70867	48
3.71233	52
3.71600	58
3.71967	59
3.72333	55
3.72700	48
3.73067	39
3.73433	30
3.73800	24
3.74167	21
3.74533	21
3.74900	23
3.75267	27
3.75633	36
3.76000	45
3.76367	51
3.76733	50
3.77100	44
3.77467	37
3.77833	30
3.78200	25
3.78567	21
3.78933	24
3.79300	33
3.79667	44
3.80033	52
3.80400	54
3.80767	53
3.81133	50
3.81500	44
3.81867	39
3.82233	34
3.82600	27
3.82967	20
3.83333	17
3.83700	15
3.84067	14
3.84433	18
3.84800	23
3.85167	27
3.85533	32
3.85900	35
3.86267	34
3.86633	30
3.87000	30
3.87367	31
3.87733	32
3.88100	33
3.88467	33
3.88833	34
3.89200	35
3.89567	33
3.89933	31
3.90300	30
3.90667	28
3.91033	26
3.91400	22
3.91767	16
3.92133	13
3.92500	14
3.92867	18
3.93233	24
3.93600	29
3.93967	31
3.94333	32
3.94700	32
3.95067	30
3.95433	23
3.95800	17
3.96167	14
3.96533	11
3.96900	8
3.97267	5
3.97633	6
3.98000	10
3.98367	14
3.98733	17
3.99100	23
3.99467	29
3.99833	32

[Chromatogram (Ch2)]
Interval(msec)	220
# of Points	1091
Start Time(min)	0.002
End Time(min)	3.998
R.Time (min)	Intensity
0.00167	0
0.00533	0
0.00900	1
0.01267	1
0.01633	1
0.02000	1
0.02367	2
0.02733	2
0.03100	2
0.03467	2
0.03833	2
0.04200	2
0.04567	2
0.04933	2
0.05300	2
0.05667	1
0.06033	1
0.06400	1
0.06767	1
0.07133	1
0.07500	1
0.07867	1
0.08233	1
0.08600	1
0.08967	1
0.09333	1
0.09700	1
0.10067	1
0.10433	1
0.10800	1
0.11167	1
0.11533	1
0.11900	1
0.12267	1
0.12633	1
0.13000	1
0.13367	1
0.13733	1
0.14100	1
0.14467	1
0.14833	1
0.15200	1
0.15567	1
0.15933	1
0.16300	1
0.16667	1
0.17033	1
0.17400	1
0.17767	1
0.18133	1
0.18500	1
0.18867	1
0.19233	0
0.19600	0
0.19967	-0
0.20333	-0
0.20700	-0
0.21067	-0
0.21433	-1
0.21800	-0
0.22167	-0
0.22533	-0
0.22900	-0
0.23267	-0
0.23633	-0
0.24000	0
0.24367	1
0.24733	1
0.25100	1
0.25467	2
0.25833	2
0.26200	2
0.26567	2
0.26933	2
0.27300	2
0.27667	2
0.28033	1
0.28400	1
0.28767	1
0.29133	1
0.29500	0
0.29867	-0
0.30233	-0
0.30600	-0
0.30967	-0
0.31333	-0
0.31700	0
0.32067	0
0.32433	0
0.32800	0
0.33167	1
0.33533	1
0.33900	1
0.34267	1
0.34633	1
0.35000	0
0.35367	0
0.35733	0
0.36100	0
0.36467	1
0.36833	1
0.37200	0
0.37567	0
0.37933	0
0.38300	0
0.38667	0
0.39033	0
0.39400	0
0.39767	0
0.40133	0
0.40500	0
0.40867	0
0.41233	0
0.41600	0
0.41967	0
0.42333	1
0.42700	1
0.43067	1
0.43433	1
0.43800	1
0.44167	1
0.44533	1
0.44900	2
0.45267	2
0.45633	2
0.46000	1
0.46367	1
0.46733	1
0.47100	1
0.47467	1
0.47833	1
0.48200	1
0.48567	1
0.48933	1
0.49300	1
0.49667	1
0.50033	1
0.50400	1
0.50767	1
0.51133	1
0.51500	1
0.51867	1
0.52233	0
0.52600	0
0.52967	-0
0.53333	-0
0.53700	-0
0.54067	-0
0.54433	-1
0.54800	-1
0.55167	-1
0.55533	-1
0.55900	-1
0.56267	-1
0.56633	-1
0.57000	-1
0.57367	-1
0.57733	-1
0.58100	-0
0.58467	-0
0.58833	-0
0.59200	-0
0.59567	-0
0.59933	-0
0.60300	-0
0.60667	0
0.61033	0
0.61400	0
0.61767	0
0.62133	-0
0.62500	-0
0.62867	-1
0.63233	-1
0.63600	-1
0.63967	-1
0.64333	-1
0.64700	-1
0.65067	-0
0.65433	-0
0.65800	-1
0.66167	-1
0.66533	-1
0.66900	-1
0.67267	-1
0.67633	-1
0.68000	-1
0.68367	-1
0.68733	-1
0.69100	-0
0.69467	-0
0.69833	0
0.70200	0
0.70567	0
0.70933	0
0.71300	-0
0.71667	-0
0.72033	-0
0.72400	-0
0.72767	-0
0.73133	0
0.73500	0
0.73867	0
0.74233	0
0.74600	0
0.74967	0
0.75333	0
0.75700	0
0.76067	0
0.76433	-0
0.76800	-0
0.77167	-1
0.77533	-1
0.77900	-1
0.78267	-1
0.78633	-0
0.79000	-0
0.79367	0
0.79733	0
0.80100	0
0.80467	0
0.80833	1
0.81200	1
0.81567	1
0.81933	1
0.82300	1
0.82667	1
0.83033	1
0.83400	0
0.83767	0
0.84133	0
0.84500	0
0.84867	0
0.85233	0
0.85600	-0
0.85967	-0
0.86333	-0
0.86700	-1
0.87067	-1
0.87433	-1
0.87800	-1
0.88167	-0
0.88533	-1
0.88900	-1
0.89267	-1
0.89633	-1
0.90000	-1
0.90367	-1
0.90733	-1
0.91100	-1
0.91467	-1
0.91833	-1
0.92200	-1
0.92567	-2
0.92933	-2
0.93300	-2
0.93667	-2
0.94033	-2
0.94400	-2
0.94767	-2
0.95133	-2
0.95500	-2
0.95867	-2
0.96233	-2
0.96600	-2
0.96967	-2
0.97333	-1
0.97700	-1
0.98067	-1
0.98433	-1
0.98800	-1
0.99167	-1
0.99533	-1
0.99900	-1
1.00267	-1
1.00633	-1
1.01000	-1
1.01367	-1
1.01733	-1
1.02100	-1
1.02467	-1
1.02833	-1
1.03200	-1
1.03567	-2
1.03933	-2
1.04300	-2
1.04667	-2
1.05033	-2
1.05400	-2
1.05767	-2
1.06133	-2
1.06500	-2
1.06867	-1
1.07233	-1
1.07600	-1
1.07967	-1
1.08333	-0
1.08700	-0
1.09067	0
1.09433	0
1.09800	0
1.10167	1
1.10533	1
1.10900	1
1.11267	1
1.11633	2
1.12000	2
1.12367	2
1.12733	1
1.13100	1
1.13467	1
1.13833	1
1.14200	1
1.14567	0
1.14933	0
1.15300	-0
1.15667	-1
1.16033	-1
1.16400	-2
1.16767	-2
1.17133	-3
1.17500	-3
1.17867	-3
1.18233	-3
1.18600	-3
1.18967	-2
1.19333	-2
1.19700	-2
1.20067	-1
1.20433	-1
1.20800	-1
1.21167	-1
1.21533	-1
1.21900	-1
1.22267	-1
1.22633	-1
1.23000	-1
1.23367	-1
1.23733	-1
1.24100	-1
1.24467	-1
1.24833	-0
1.25200	-0
1.25567	-0
1.25933	-1
1.26300	-1
1.26667	-1
1.27033	-1
1.27400	-1
1.27767	-0
1.28133	0
1.28500	0
1.28867	0
1.29233	0
1.29600	0
1.29967	0
1.30333	0
1.30700	0
1.31067	0
1.31433	0
1.31800	-0
1.32167	-0
1.32533	-1
1.32900	-1
1.33267	-1
1.33633	-1
1.34000	-1
1.34367	-1
1.34733	-1
1.35100	-1
1.35467	-1
1.35833	-1
1.36200	-1
1.36567	-0
1.36933	-0
1.37300	-0
1.37667	-0
1.38033	-0
1.38400	-0
1.38767	-0
1.39133	-0
1.39500	-0
1.39867	-0
1.40233	-0
1.40600	-0
1.40967	-0
1.41333	-1
1.41700	-1
1.42067	-1
1.42433	-1
1.42800	-1
1.43167	-1
1.43533	-1
1.43900	-1
1.44267	-2
1.44633	-2
1.45000	-2
1.45367	-2
1.45733	-2
1.46100	-2
1.46467	-2
1.46833	-2
1.47200	-2
1.47567	-2
1.47933	-1
1.48300	-1
1.48667	-1
1.49033	-1
1.49400	-0
1.49767	-0
1.50133	-1
1.50500	-1
1.50867	-1
1.51233	-2
1.51600	-2
1.51967	-2
1.52333	-2
1.52700	-3
1.53067	-3
1.53433	-3
1.53800	-3
1.54167	-3
1.54533	-3
1.54900	-3
1.55267	-3
1.55633	-3
1.56000	-3
1.56367	-3
1.56733	-2
1.57100	-2
1.57467	-2
1.57833	-1
1.58200	-1
1.58567	-1
1.58933	-2
1.59300	-2
1.59667	-3
1.60033	-4
1.60400	-5
1.60767	-6
1.61133	-8
1.61500	-10
1.61867	-12
1.62233	-15
1.62600	-18
1.62967	-20
1.63333	-23
1.63700	-26
1.64067	-29
1.64433	-33
1.64800	-36
1.65167	-39
1.65533	-43
1.65900	-46
1.66267	-50
1.66633	-53
1.67000	-57
1.67367	-62
1.67733	-66
1.68100	-71
1.68467	-75
1.68833	-79
1.69200	-82
1.69567	-84
1.69933	-87
1.70300	-89
1.70667	-90
1.71033	-91
1.71400	-92
1.71767	-93
1.72133	-94
1.72500	-94
1.72867	-95
1.73233	-95
1.73600	-95
1.73967	-96
1.74333	-96
1.74700	-96
1.75067	-96
1.75433	-95
1.75800	-95
1.76167	-95
1.76533	-95
1.76900	-96
1.77267	-96
1.77633	-97
1.78000	-98
1.78367	-99
1.78733	-100
1.79100	-100
1.79467	-100
1.79833	-100
1.80200	-100
1.80567	-100
1.80933	-100
1.81300	-100
1.81667	-100
1.82033	-100
1.82400	-100
1.82767	-100
1.83133	-100
1.83500	-100
1.83867	-100
1.84233	-100
1.84600	-100
1.84967	-100
1.85333	-100
1.85700	-100
1.86067	-99
1.86433	-99
1.86800	-99
1.87167	-98
1.87533	-98
1.87900	-98
1.88267	-97
1.88633	-97
1.89000	-97
1.89367	-97
1.89733	-97
1.90100	-97
1.90467	-97
1.90833	-97
1.91200	-97
1.91567	-97
1.91933	-97
1.92300	-97
1.92667	-97
1.93033	-97
1.93400	-97
1.93767	-96
1.94133	-96
1.94500	-96
1.94867	-95
1.95233	-95
1.95600	-96
1.95967	-96
1.96333	-96
1.96700	-96
1.97067	-96
1.97433	-96
1.97800	-95
1.98167	-95
1.98533	-95
1.98900	-95
1.99267	-95
1.99633	-95
2.00000	-94
2.00367	-94
2.00733	-93
2.01100	-93
2.01467	-92
2.01833	-92
2.02200	-92
2.02567	-91
2.02933	-91
2.03300	-91
2.03667	-90
2.04033	-90
2.04400	-90
2.04767	-89
2.05133	-89
2.05500	-88
2.05867	-88
2.06233	-88
2.06600	-87
2.06967	-87
2.07333	-86
2.07700	-86
2.08067	-86
2.08433	-87
2.08800	-87
2.09167	-87
2.09533	-87
2.09900	-86
2.10267	-86
2.10633	-85
2.11000	-84
2.11367	-83
2.11733	-83
2.12100	-83
2.12467	-84
2.12833	-84
2.13200	-84
2.13567	-84
2.13933	-83
2.14300	-83
2.14667	-82
2.15033	-82
2.15400	-81
2.15767	-81
2.16133	-80
2.16500	-80
2.16867	-80
2.17233	-80
2.17600	-80
2.17967	-80
2.18333	-79
2.18700	-78
2.19067	-78
2.19433	-77
2.19800	-77
2.20167	-76
2.20533	-76
2.20900	-75
2.21267	-74
2.21633	-74
2.22000	-73
2.22367	-73
2.22733	-73
2.23100	-73
2.23467	-73
2.23833	-73
2.24200	-73
2.24567	-72
2.24933	-72
2.25300	-72
2.25667	-72
2.26033	-72
2.26400	-72
2.26767	-72
2.27133	-71
2.27500	-71
2.27867	-70
2.28233	-70
2.28600	-69
2.28967	-69
2.29333	-69
2.29700	-69
2.30067	-69
2.30433	-69
2.30800	-70
2.31167	-70
2.31533	-70
2.31900	-69
2.32267	-69
2.32633	-70
2.33000	-70
2.33367	-69
2.33733	-69
2.34100	-68
2.34467	-67
2.34833	-65
2.35200	-64
2.35567	-63
2.35933	-62
2.36300	-61
2.36667	-59
2.37033	-58
2.37400	-56
2.37767	-54
2.38133	-51
2.38500	-48
2.38867	-44
2.39233	-40
2.39600	-36
2.39967	-31
2.40333	-27
2.40700	-22
2.41067	-18
2.41433	-14
2.41800	-11
2.42167	-8
2.42533	-5
2.42900	-3
2.43267	-1
2.43633	1
2.44000	3
2.44367	4
2.44733	5
2.45100	6
2.45467	8
2.45833	9
2.46200	10
2.46567	11
2.46933	12
2.47300	13
2.47667	14
2.48033	15
2.48400	16
2.48767	16
2.49133	17
2.49500	17
2.49867	16
2.50233	16
2.50600	17
2.50967	17
2.51333	17
2.51700	18
2.52067	18
2.52433	18
2.52800	17
2.53167	17
2.53533	17
2.53900	17
2.54267	16
2.54633	16
2.55000	15
2.55367	15
2.55733	14
2.56100	14
2.56467	13
2.56833	12
2.57200	12
2.57567	12
2.57933	12
2.58300	12
2.58667	13
2.59033	13
2.59400	14
2.59767	15
2.60133	16
2.60500	17
2.60867	17
2.61233	18
2.61600	18
2.61967	19
2.62333	19
2.62700	19
2.63067	19
2.63433	20
2.63800	20
2.64167	20
2.64533	21
2.64900	21
2.65267	22
2.65633	22
2.66000	22
2.66367	23
2.66733	23
2.67100	24
2.67467	24
2.67833	24
2.68200	24
2.68567	25
2.68933	25
2.69300	26
2.69667	26
2.70033	26
2.70400	26
2.70767	26
2.71133	26
2.71500	25
2.71867	25
2.72233	26
2.72600	26
2.72967	26
2.73333	27
2.73700	27
2.74067	28
2.74433	28
2.74800	29
2.75167	29
2.75533	30
2.75900	30
2.76267	30
2.76633	30
2.77000	30
2.77367	30
2.77733	30
2.78100	30
2.78467	30
2.78833	30
2.79200	30
2.79567	30
2.79933	30
2.80300	30
2.80667	30
2.81033	30
2.81400	30
2.81767	30
2.82133	30
2.82500	29
2.82867	29
2.83233	29
2.83600	29
2.83967	29
2.84333	29
2.84700	29
2.85067	29
2.85433	29
2.85800	27
2.86167	24
2.86533	18
2.86900	10
2.87267	-2
2.87633	-19
2.88000	-41
2.88367	-68
2.88733	-101
2.89100	-139
2.89467	-183
2.89833	-231
2.90200	-284
2.90567	-341
2.90933	-401
2.91300	-464
2.91667	-528
2.92033	-594
2.92400	-659
2.92767	-723
2.93133	-785
2.93500	-844
2.93867	-900
2.94233	-955
2.94600	-1010
2.94967	-1063
2.95333	-1103
2.95700	-1122
2.96067	-1117
2.96433	-1087
2.96800	-1036
2.97167	-969
2.97533	-893
2.97900	-812
2.98267	-729
2.98633	-649
2.99000	-573
2.99367	-502
2.99733	-437
3.00100	-379
3.00467	-327
3.00833	-280
3.01200	-239
3.01567	-204
3.01933	-172
3.02300	-145
3.02667	-122
3.03033	-102
3.03400	-84
3.03767	-69
3.04133	-56
3.04500	-46
3.04867	-36
3.05233	-29
3.05600	-22
3.05967	-16
3.06333	-12
3.06700	-7
3.07067	-4
3.07433	-1
3.07800	2
3.08167	4
3.08533	6
3.08900	8
3.09267	10
3.09633	11
3.10000	12
3.10367	13
3.10733	14
3.11100	15
3.11467	16
3.11833	17
3.12200	17
3.12567	18
3.12933	18
3.13300	18
3.13667	19
3.14033	19
3.14400	20
3.14767	20
3.15133	21
3.15500	22
3.15867	23
3.16233	23
3.16600	24
3.16967	24
3.17333	25
3.17700	26
3.18067	26
3.18433	27
3.18800	27
3.19167	27
3.19533	28
3.19900	28
3.20267	28
3.20633	29
3.21000	29
3.21367	29
3.21733	29
3.22100	29
3.22467	29
3.22833	29
3.23200	29
3.23567	29
3.23933	29
3.24300	30
3.24667	30
3.25033	30
3.25400	30
3.25767	30
3.26133	30
3.26500	30
3.26867	30
3.27233	30
3.27600	30
3.27967	30
3.28333	30
3.28700	30
3.29067	30
3.29433	30
3.29800	30
3.30167	30
3.30533	30
3.30900	30
3.31267	30
3.31633	30
3.32000	30
3.32367	30
3.32733	30
3.33100	31
3.33467	31
3.33833	30
3.34200	30
3.34567	30
3.34933	30
3.35300	30
3.35667	30
3.36033	30
3.36400	30
3.36767	30
3.37133	30
3.37500	30
3.37867	30
3.38233	30
3.38600	30
3.38967	30
3.39333	30
3.39700	30
3.40067	30
3.40433	30
3.40800	29
3.41167	29
3.41533	30
3.41900	30
3.42267	30
3.42633	30
3.43000	30
3.43367	30
3.43733	30
3.44100	30
3.44467	30
3.44833	30
3.45200	30
3.45567	30
3.45933	30
3.46300	30
3.46667	30
3.47033	30
3.47400	30
3.47767	30
3.48133	30
3.48500	30
3.48867	30
3.49233	30
3.49600	30
3.49967	30
3.50333	30
3.50700	30
3.51067	30
3.51433	30
3.51800	30
3.52167	30
3.52533	30
3.52900	30
3.53267	30
3.53633	30
3.54000	30
3.54367	30
3.54733	30
3.55100	30
3.55467	30
3.55833	30
3.56200	30
3.56567	30
3.56933	30
3.57300	30
3.57667	31
3.58033	31
3.58400	31
3.58767	31
3.59133	31
3.59500	31
3.59867	31
3.60233	31
3.60600	31
3.60967	31
3.61333	31
3.61700	31
3.62067	31
3.62433	31
3.62800	31
3.63167	31
3.63533	31
3.63900	31
3.64267	31
3.64633	31
3.65000	31
3.65367	31
3.65733	31
3.66100	31
3.66467	31
3.66833	31
3.67200	31
3.67567	30
3.67933	30
3.68300	30
3.68667	30
3.69033	30
3.69400	30
3.69767	30
3.70133	30
3.70500	30
3.70867	30
3.71233	30
3.71600	30
3.71967	30
3.72333	30
3.72700	30
3.73067	30
3.73433	30
3.73800	30
3.74167	30
3.74533	30
3.74900	30
3.75267	30
3.75633	30
3.76000	30
3.76367	30
3.76733	30
3.77100	30
3.77467	30
3.77833	30
3.78200	30
3.78567	30
3.78933	30
3.79300	30
3.79667	31
3.80033	31
3.80400	30
3.80767	30
3.81133	30
3.81500	30
3.81867	30
3.82233	30
3.82600	30
3.82967	30
3.83333	30
3.83700	30
3.84067	30
3.84433	30
3.84800	30
3.85167	30
3.85533	30
3.85900	30
3.86267	30
3.86633	30
3.87000	30
3.87367	30
3.87733	30
3.88100	30
3.88467	30
3.88833	29
3.89200	29
3.89567	29
3.89933	30
3.90300	30
3.90667	30
3.91033	30
3.91400	30
3.91767	30
3.92133	30
3.92500	30
3.92867	30
3.93233	30
3.93600	30
3.93967	30
3.94333	30
3.94700	30
3.95067	30
3.95433	30
3.95800	30
3.96167	30
3.96533	30
3.96900	30
3.97267	30
3.97633	30
3.98000	30
3.98367	30
3.98733	30
3.99100	30
3.99467	30
3.99833	30

[Chromatogram (Ch3)]
Interval(msec)	220
# of Points	1091
Start Time(min)	0.002
End Time(min)	3.998
R.Time (min)	Intensity
0.00167	1
0.00533	4
0.00900	4
0.01267	3
0.01633	3
0.02000	0
0.02367	-1
0.02733	0
0.03100	2
0.03467	1
0.03833	1
0.04200	2
0.04567	2
0.04933	2
0.05300	2
0.05667	2
0.06033	4
0.06400	3
0.06767	2
0.07133	2
0.07500	1
0.07867	0
0.08233	0
0.08600	-1
0.08967	-3
0.09333	-2
0.09700	-0
0.10067	1
0.10433	3
0.10800	6
0.11167	9
0.11533	8
0.11900	7
0.12267	4
0.12633	3
0.13000	3
0.13367	3
0.13733	2
0.14100	4
0.14467	3
0.14833	2
0.15200	4
0.15567	4
0.15933	2
0.16300	1
0.16667	1
0.17033	3
0.17400	2
0.17767	2
0.18133	3
0.18500	2
0.18867	2
0.19233	2
0.19600	2
0.19967	2
0.20333	2
0.20700	4
0.21067	6
0.21433	4
0.21800	1
0.22167	-0
0.22533	-2
0.22900	-4
0.23267	-2
0.23633	2
0.24000	3
0.24367	4
0.24733	6
0.25100	6
0.25467	5
0.25833	3
0.26200	2
0.26567	1
0.26933	-0
0.27300	0
0.27667	0
0.28033	-1
0.28400	-3
0.28767	-2
0.29133	2
0.29500	3
0.29867	3
0.30233	3
0.30600	-1
0.30967	-3
0.31333	-2
0.31700	-0
0.32067	1
0.32433	3
0.32800	3
0.33167	2
0.33533	-0
0.33900	1
0.34267	3
0.34633	3
0.35000	0
0.35367	2
0.35733	6
0.36100	7
0.36467	7
0.36833	6
0.37200	7
0.37567	4
0.37933	1
0.38300	1
0.38667	4
0.39033	5
0.39400	2
0.39767	-2
0.40133	-5
0.40500	-7
0.40867	-5
0.41233	-3
0.41600	-2
0.41967	-1
0.42333	-3
0.42700	-5
0.43067	-5
0.43433	-2
0.43800	-0
0.44167	-1
0.44533	-1
0.44900	-1
0.45267	-0
0.45633	-0
0.46000	-0
0.46367	-1
0.46733	-3
0.47100	-5
0.47467	-7
0.47833	-7
0.48200	-4
0.48567	-0
0.48933	-1
0.49300	-2
0.49667	-5
0.50033	-9
0.50400	-10
0.50767	-6
0.51133	-5
0.51500	-7
0.51867	-8
0.52233	-7
0.52600	-5
0.52967	-1
0.53333	4
0.53700	4
0.54067	3
0.54433	3
0.54800	3
0.55167	1
0.55533	3
0.55900	5
0.56267	6
0.56633	4
0.57000	3
0.57367	5
0.57733	5
0.58100	6
0.58467	5
0.58833	5
0.59200	5
0.59567	4
0.59933	4
0.60300	4
0.60667	4
0.61033	6
0.61400	7
0.61767	7
0.62133	4
0.62500	-1
0.62867	0
0.63233	4
0.63600	3
0.63967	3
0.64333	3
0.64700	5
0.65067	6
0.65433	6
0.65800	5
0.66167	6
0.66533	7
0.66900	6
0.67267	6
0.67633	5
0.68000	4
0.68367	3
0.68733	5
0.69100	6
0.69467	3
0.69833	-0
0.70200	-1
0.70567	-2
0.70933	-4
0.71300	-4
0.71667	0
0.72033	2
0.72400	3
0.72767	4
0.73133	2
0.73500	-0
0.73867	-1
0.74233	-1
0.74600	2
0.74967	1
0.75333	0
0.75700	1
0.76067	3
0.76433	2
0.76800	1
0.77167	-1
0.77533	-1
0.77900	-0
0.78267	2
0.78633	4
0.79000	6
0.79367	8
0.79733	10
0.80100	12
0.80467	13
0.80833	10
0.81200	6
0.81567	4
0.81933	4
0.82300	3
0.82667	1
0.83033	-1
0.83400	-1
0.83767	-2
0.84133	-1
0.84500	1
0.84867	2
0.85233	2
0.85600	4
0.85967	4
0.86333	2
0.86700	2
0.87067	3
0.87433	3
0.87800	3
0.88167	4
0.88533	6
0.88900	5
0.89267	2
0.89633	0
0.90000	1
0.90367	3
0.90733	4
0.91100	4
0.91467	5
0.91833	4
0.92200	4
0.92567	5
0.92933	7
0.93300	9
0.93667	9
0.94033	9
0.94400	9
0.94767	6
0.95133	4
0.95500	3
0.95867	5
0.96233	8
0.96600	7
0.96967	6
0.97333	6
0.97700	5
0.98067	4
0.98433	5
0.98800	8
0.99167	12
0.99533	15
0.99900	15
1.00267	11
1.00633	7
1.01000	5
1.01367	5
1.01733	5
1.02100	4
1.02467	3
1.02833	2
1.03200	3
1.03567	4
1.03933	5
1.04300	4
1.04667	4
1.05033	4
1.05400	2
1.05767	2
1.06133	2
1.06500	4
1.06867	5
1.07233	4
1.07600	5
1.07967	9
1.08333	10
1.08700	8
1.09067	7
1.09433	6
1.09800	5
1.10167	4
1.10533	5
1.10900	5
1.11267	5
1.11633	5
1.12000	3
1.12367	4
1.12733	5
1.13100	6
1.13467	5
1.13833	6
1.14200	9
1.14567	10
1.14933	9
1.15300	7
1.15667	8
1.16033	7
1.16400	5
1.16767	6
1.17133	9
1.17500	11
1.17867	11
1.18233	7
1.18600	3
1.18967	1
1.19333	0
1.19700	1
1.20067	2
1.20433	2
1.20800	1
1.21167	2
1.21533	6
1.21900	10
1.22267	11
1.22633	10
1.23000	8
1.23367	9
1.23733	12
1.24100	11
1.24467	10
1.24833	13
1.25200	15
1.25567	13
1.25933	10
1.26300	8
1.26667	9
1.27033	8
1.27400	6
1.27767	6
1.28133	6
1.28500	8
1.28867	11
1.29233	12
1.29600	11
1.29967	11
1.30333	12
1.30700	11
1.31067	9
1.31433	7
1.31800	5
1.32167	2
1.32533	2
1.32900	3
1.33267	6
1.33633	8
1.34000	11
1.34367	13
1.34733	14
1.35100	15
1.35467	16
1.35833	13
1.36200	9
1.36567	8
1.36933	9
1.37300	11
1.37667	10
1.38033	9
1.38400	9
1.38767	8
1.39133	5
1.39500	5
1.39867	6
1.40233	4
1.40600	2
1.40967	3
1.41333	7
1.41700	8
1.42067	6
1.42433	5
1.42800	8
1.43167	9
1.43533	9
1.43900	9
1.44267	9
1.44633	10
1.45000	9
1.45367	8
1.45733	6
1.46100	8
1.46467	9
1.46833	9
1.47200	9
1.47567	8
1.47933	7
1.48300	6
1.48667	5
1.49033	6
1.49400	8
1.49767	11
1.50133	10
1.50500	8
1.50867	8
1.51233	10
1.51600	11
1.51967	11
1.52333	12
1.52700	12
1.53067	10
1.53433	9
1.53800	10
1.54167	12
1.54533	14
1.54900	16
1.55267	15
1.55633	15
1.56000	13
1.56367	12
1.56733	13
1.57100	11
1.57467	8
1.57833	8
1.58200	9
1.58567	8
1.58933	8
1.59300	8
1.59667	7
1.60033	8
1.60400	8
1.60767	6
1.61133	5
1.61500	7
1.61867	9
1.62233	12
1.62600	12
1.62967	12
1.63333	13
1.63700	15
1.64067	17
1.64433	18
1.64800	15
1.65167	15
1.65533	17
1.65900	20
1.66267	20
1.66633	19
1.67000	16
1.67367	16
1.67733	17
1.68100	16
1.68467	16
1.68833	17
1.69200	17
1.69567	16
1.69933	18
1.70300	20
1.70667	21
1.71033	21
1.71400	21
1.71767	19
1.72133	18
1.72500	18
1.72867	17
1.73233	18
1.73600	19
1.73967	20
1.74333	20
1.74700	21
1.75067	23
1.75433	26
1.75800	29
1.76167	29
1.76533	26
1.76900	22
1.77267	18
1.77633	17
1.78000	19
1.78367	20
1.78733	19
1.79100	17
1.79467	15
1.79833	16
1.80200	19
1.80567	21
1.80933	21
1.81300	21
1.81667	20
1.82033	20
1.82400	21
1.82767	23
1.83133	23
1.83500	22
1.83867	21
1.84233	21
1.84600	21
1.84967	21
1.85333	22
1.85700	26
1.86067	27
1.86433	29
1.86800	32
1.87167	34
1.87533	35
1.87900	34
1.88267	32
1.88633	32
1.89000	31
1.89367	32
1.89733	32
1.90100	31
1.90467	30
1.90833	30
1.91200	32
1.91567	35
1.91933	35
1.92300	33
1.92667	32
1.93033	33
1.93400	35
1.93767	38
1.94133	37
1.94500	38
1.94867	38
1.95233	38
1.95600	37
1.95967	37
1.96333	38
1.96700	39
1.97067	39
1.97433	39
1.97800	41
1.98167	42
1.98533	41
1.98900	40
1.99267	41
1.99633	41
2.00000	43
2.00367	43
2.00733	44
2.01100	45
2.01467	45
2.01833	45
2.02200	48
2.02567	49
2.02933	51
2.03300	54
2.03667	56
2.04033	56
2.04400	57
2.04767	55
2.05133	52
2.05500	49
2.05867	47
2.06233	49
2.06600	47
2.06967	44
2.07333	41
2.07700	42
2.08067	45
2.08433	51
2.08800	58
2.09167	61
2.09533	61
2.09900	60
2.10267	60
2.10633	61
2.11000	63
2.11367	65
2.11733	66
2.12100	67
2.12467	67
2.12833	69
2.13200	72
2.13567	75
2.13933	75
2.14300	74
2.14667	75
2.15033	73
2.15400	74
2.15767	74
2.16133	74
2.16500	77
2.16867	80
2.17233	83
2.17600	82
2.17967	83
2.18333	83
2.18700	82
2.19067	81
2.19433	80
2.19800	79
2.20167	81
2.20533	85
2.20900	87
2.21267	86
2.21633	86
2.22000	87
2.22367	87
2.22733	88
2.23100	90
2.23467	91
2.23833	90
2.24200	91
2.24567	91
2.24933	93
2.25300	95
2.25667	96
2.26033	97
2.26400	98
2.26767	96
2.27133	94
2.27500	93
2.27867	92
2.28233	94
2.28600	96
2.28967	97
2.29333	98
2.29700	100
2.30067	106
2.30433	108
2.30800	108
2.31167	108
2.31533	108
2.31900	110
2.32267	110
2.32633	110
2.33000	110
2.33367	112
2.33733	114
2.34100	116
2.34467	115
2.34833	112
2.35200	110
2.35567	109
2.35933	110
2.36300	111
2.36667	112
2.37033	114
2.37400	114
2.37767	113
2.38133	113
2.38500	109
2.38867	102
2.39233	103
2.39600	106
2.39967	112
2.40333	119
2.40700	127
2.41067	135
2.41433	138
2.41800	140
2.42167	140
2.42533	139
2.42900	138
2.43267	136
2.43633	133
2.44000	138
2.44367	185
2.44733	269
2.45100	344
2.45467	396
2.45833	419
2.46200	413
2.46567	395
2.46933	375
2.47300	358
2.47667	346
2.48033	331
2.48400	311
2.48767	287
2.49133	265
2.49500	246
2.49867	233
2.50233	223
2.50600	219
2.50967	222
2.51333	229
2.51700	235
2.52067	242
2.52433	244
2.52800	240
2.53167	231
2.53533	220
2.53900	209
2.54267	197
2.54633	184
2.55000	172
2.55367	162
2.55733	154
2.56100	150
2.56467	147
2.56833	144
2.57200	139
2.57567	136
2.57933	138
2.58300	142
2.58667	147
2.59033	152
2.59400	158
2.59767	164
2.60133	171
2.60500	180
2.60867	188
2.61233	195
2.61600	202
2.61967	206
2.62333	206
2.62700	204
2.63067	201
2.63433	197
2.63800	191
2.64167	184
2.64533	174
2.64900	163
2.65267	154
2.65633	145
2.66000	134
2.66367	125
2.66733	119
2.67100	115
2.67467	113
2.67833	108
2.68200	104
2.68567	98
2.68933	93
2.69300	91
2.69667	89
2.70033	86
2.70400	86
2.70767	89
2.71133	91
2.71500	90
2.71867	89
2.72233	89
2.72600	88
2.72967	85
2.73333	83
2.73700	84
2.74067	86
2.74433	89
2.74800	92
2.75167	93
2.75533	91
2.75900	90
2.76267	89
2.76633	89
2.77000	90
2.77367	88
2.77733	89
2.78100	97
2.78467	104
2.78833	108
2.79200	112
2.79567	115
2.79933	119
2.80300	121
2.80667	123
2.81033	124
2.81400	125
2.81767	126
2.82133	127
2.82500	129
2.82867	133
2.83233	141
2.83600	151
2.83967	174
2.84333	220
2.84700	306
2.85067	450
2.85433	672
2.85800	983
2.86167	1380
2.86533	1848
2.86900	2353
2.87267	2856
2.87633	3317
2.88000	3692
2.88367	3955
2.88733	4091
2.89100	4106
2.89467	4015
2.89833	3840
2.90200	3605
2.90567	3328
2.90933	3030
2.91300	2731
2.91667	2443
2.92033	2172
2.92400	1921
2.92767	1690
2.93133	1483
2.93500	1300
2.93867	1137
2.94233	995
2.94600	871
2.94967	763
2.95333	671
2.95700	590
2.96067	518
2.96433	455
2.96800	403
2.97167	357
2.97533	317
2.97900	282
2.98267	252
2.98633	228
2.99000	206
2.99367	187
2.99733	171
3.00100	159
3.00467	147
3.00833	139
3.01200	132
3.01567	127
3.01933	121
3.02300	116
3.02667	112
3.03033	108
3.03400	106
3.03767	105
3.04133	105
3.04500	105
3.04867	102
3.05233	98
3.05600	95
3.05967	94
3.06333	96
3.06700	96
3.07067	97
3.07433	98
3.07800	96
3.08167	97
3.08533	97
3.08900	98
3.09267	99
3.09633	99
3.10000	99
3.10367	100
3.10733	103
3.11100	106
3.11467	109
3.11833	110
3.12200	110
3.12567	109
3.12933	111
3.13300	114
3.13667	114
3.14033	112
3.14400	110
3.14767	110
3.15133	112
3.15500	113
3.15867	114
3.16233	116
3.16600	118
3.16967	118
3.17333	120
3.17700	120
3.18067	112
3.18433	103
3.18800	105
3.19167	129
3.19533	180
3.19900	250
3.20267	328
3.20633	406
3.21000	481
3.21367	556
3.21733	628
3.22100	694
3.22467	756
3.22833	810
3.23200	856
3.23567	894
3.23933	924
3.24300	951
3.24667	972
3.25033	989
3.25400	1002
3.25767	1011
3.26133	1018
3.26500	1020
3.26867	1021
3.27233	1023
3.27600	1025
3.27967	1023
3.28333	1021
3.28700	1025
3.29067	1027
3.29433	1026
3.29800	1023
3.30167	1017
3.30533	1011
3.30900	1005
3.31267	1000
3.31633	996
3.32000	994
3.32367	990
3.32733	986
3.33100	981
3.33467	977
3.33833	973
3.34200	966
3.34567	962
3.34933	958
3.35300	953
3.35667	947
3.36033	943
3.36400	938
3.36767	932
3.37133	926
3.37500	921
3.37867	916
3.38233	911
3.38600	908
3.38967	906
3.39333	903
3.39700	898
3.40067	890
3.40433	883
3.40800	877
3.41167	873
3.41533	870
3.41900	868
3.42267	867
3.42633	865
3.43000	863
3.43367	860
3.43733	857
3.44100	854
3.44467	850
3.44833	845
3.45200	841
3.45567	837
3.45933	836
3.46300	834
3.46667	833
3.47033	832
3.47400	830
3.47767	828
3.48133	828
3.48500	827
3.48867	824
3.49233	820
3.49600	817
3.49967	813
3.50333	811
3.50700	809
3.51067	807
3.51433	807
3.51800	806
3.52167	803
3.52533	801
3.52900	800
3.53267	797
3.53633	794
3.54000	791
3.54367	792
3.54733	792
3.55100	790
3.55467	788
3.55833	785
3.56200	783
3.56567	781
3.56933	780
3.57300	779
3.57667	778
3.58033	776
3.58400	775
3.58767	772
3.59133	769
3.59500	768
3.59867	767
3.60233	767
3.60600	766
3.60967	763
3.61333	761
3.61700	760
3.62067	758
3.62433	755
3.62800	751
3.63167	750
3.63533	749
3.63900	746
3.64267	746
3.64633	745
3.65000	744
3.65367	744
3.65733	744
3.66100	743
3.66467	742
3.66833	740
3.67200	738
3.67567	736
3.67933	736
3.68300	736
3.68667	735
3.69033	735
3.69400	732
3.69767	729
3.70133	728
3.70500	725
3.70867	722
3.71233	718
3.71600	716
3.71967	716
3.72333	716
3.72700	715
3.73067	713
3.73433	711
3.73800	707
3.74167	703
3.74533	700
3.74900	696
3.75267	694
3.75633	693
3.76000	692
3.76367	689
3.76733	686
3.77100	682
3.77467	680
3.77833	679
3.78200	676
3.78567	675
3.78933	674
3.79300	672
3.79667	668
3.80033	664
3.80400	662
3.80767	660
3.81133	660
3.81500	659
3.81867	657
3.82233	656
3.82600	656
3.82967	653
3.83333	652
3.83700	651
3.84067	648
3.84433	647
3.84800	647
3.85167	648
3.85533	646
3.85900	640
3.86267	635
3.86633	633
3.87000	634
3.87367	635
3.87733	636
3.88100	636
3.88467	632
3.88833	629
3.89200	626
3.89567	624
3.89933	624
3.90300	622
3.90667	620
3.91033	618
3.91400	616
3.91767	615
3.92133	615
3.92500	613
3.92867	610
3.93233	608
3.93600	606
3.93967	606
3.94333	608
3.94700	607
3.95067	606
3.95433	602
3.95800	600
3.96167	598
3.96533	597
3.96900	591
3.97267	587
3.97633	586
3.98000	586
3.98367	587
3.98733	589
3.99100	588
3.99467	585
3.99833	579

[Status Trace (Column Oven Temperature)]
Interval(msec)	1000
# of Points	240
Start Time(min)	0.002
End Time(min)	3.985
Intensity Units	
Intensity Multiplier	1
R.Time (min)	Intensity
0.00167	35.08
0.01833	35.07
0.03500	35.07
0.05167	35.06
0.06833	35.06
0.08500	35.05
0.10167	35.05
0.11833	35.06
0.13500	35.06
0.15167	35.05
0.16833	35.04
0.18500	35.05
0.20167	35.05
0.21833	35.05
0.23500	35.04
0.25167	35.03
0.26833	35.02
0.28500	35.01
0.30167	35.01
0.31833	35.02
0.33500	35.01
0.35167	35.01
0.36833	35.01
0.38500	35.02
0.40167	35.01
0.41833	35.01
0.43500	35.00
0.45167	35.00
0.46833	35.00
0.48500	35.00
0.50167	34.99
0.51833	35.00
0.53500	35.00
0.55167	35.00
0.56833	35.01
0.58500	35.01
0.60167	35.01
0.61833	35.00
0.63500	35.01
0.65167	35.00
0.66833	35.01
0.68500	35.01
0.70167	35.01
0.71833	35.00
0.73500	34.99
0.75167	34.99
0.76833	35.00
0.78500	35.00
0.80167	34.99
0.81833	34.99
0.83500	34.98
0.85167	34.98
0.86833	34.98
0.88500	34.98
0.90167	34.98
0.91833	34.99
0.93500	34.99
0.95167	34.99
0.96833	34.99
0.98500	35.00
1.00167	35.00
1.01833	35.00
1.03500	35.00
1.05167	34.99
1.06833	35.00
1.08500	35.00
1.10167	35.00
1.11833	34.99
1.13500	34.98
1.15167	35.00
1.16833	35.01
1.18500	35.01
1.20167	35.02
1.21833	35.02
1.23500	35.01
1.25167	35.01
1.26833	35.00
1.28500	34.99
1.30167	34.99
1.31833	35.00
1.33500	34.99
1.35167	34.99
1.36833	34.98
1.38500	34.98
1.40167	34.98
1.41833	34.98
1.43500	34.99
1.45167	34.99
1.46833	34.99
1.48500	34.99
1.50167	35.00
1.51833	35.00
1.53500	35.00
1.55167	35.00
1.56833	35.00
1.58500	35.00
1.60167	35.04
1.61833	35.13
1.63500	35.30
1.65167	35.52
1.66833	35.83
1.68500	36.19
1.70167	36.55
1.71833	36.89
1.73500	37.23
1.75167	37.54
1.76833	37.87
1.78500	38.22
1.80167	38.55
1.81833	38.88
1.83500	39.22
1.85167	39.54
1.86833	39.88
1.88500	40.20
1.90167	40.54
1.91833	40.87
1.93500	41.20
1.95167	41.52
1.96833	41.85
1.98500	42.19
2.00167	42.51
2.01833	42.85
2.03500	43.17
2.05167	43.49
2.06833	43.81
2.08500	44.16
2.10167	44.46
2.11833	44.79
2.13500	45.11
2.15167	45.43
2.16833	45.77
2.18500	46.09
2.20167	46.42
2.21833	46.74
2.23500	47.07
2.25167	47.38
2.26833	47.71
2.28500	48.03
2.30167	48.38
2.31833	48.70
2.33500	49.04
2.35167	49.33
2.36833	49.59
2.38500	49.72
2.40167	49.74
2.41833	49.73
2.43500	49.73
2.45167	49.74
2.46833	49.74
2.48500	49.75
2.50167	49.76
2.51833	49.77
2.53500	49.78
2.55167	49.80
2.56833	49.82
2.58500	49.82
2.60167	49.83
2.61833	49.84
2.63500	49.84
2.65167	49.85
2.66833	49.86
2.68500	49.85
2.70167	49.86
2.71833	49.89
2.73500	49.89
2.75167	49.88
2.76833	49.87
2.78500	49.88
2.80167	49.90
2.81833	49.90
2.83500	49.90
2.85167	49.91
2.86833	49.93
2.88500	49.96
2.90167	49.98
2.91833	50.00
2.93500	50.00
2.95167	50.01
2.96833	50.02
2.98500	50.03
3.00167	50.05
3.01833	50.05
3.03500	50.05
3.05167	50.07
3.06833	50.07
3.08500	50.08
3.10167	50.09
3.11833	50.10
3.13500	50.12
3.15167	50.11
3.16833	50.10
3.18500	50.08
3.20167	50.06
3.21833	50.05
3.23500	50.04
3.25167	50.03
3.26833	50.03
3.28500	50.03
3.30167	50.02
3.31833	50.02
3.33500	50.01
3.35167	50.02
3.36833	50.03
3.38500	50.03
3.40167	50.03
3.41833	50.03
3.43500	50.03
3.45167	50.04
3.46833	50.05
3.48500	50.05
3.50167	50.06
3.51833	50.06
3.53500	50.06
3.55167	50.06
3.56833	50.06
3.58500	50.06
3.60167	50.06
3.61833	50.07
3.63500	50.07
3.65167	50.06
3.66833	50.07
3.68500	50.06
3.70167	50.06
3.71833	50.07
3.73500	50.07
3.75167	50.08
3.76833	50.08
3.78500	50.08
3.80167	50.08
3.81833	50.08
3.83500	50.08
3.85167	50.08
3.86833	50.08
3.88500	50.07
3.90167	50.08
3.91833	50.07
3.93500	50.07
3.95167	50.07
3.96833	50.08
3.98500	50.07

[Status Trace (Injection Unit Temperature)]
Interval(msec)	1000
# of Points	240
Start Time(min)	0.002
End Time(min)	3.985
Intensity Units	
Intensity Multiplier	1
R.Time (min)	Intensity
0.00167	99.98
0.01833	99.97
0.03500	99.98
0.05167	99.98
0.06833	99.98
0.08500	99.98
0.10167	99.97
0.11833	99.98
0.13500	99.98
0.15167	99.98
0.16833	99.98
0.18500	99.98
0.20167	99.98
0.21833	99.97
0.23500	99.98
0.25167	99.97
0.26833	99.97
0.28500	99.97
0.30167	99.98
0.31833	99.98
0.33500	99.98
0.35167	99.98
0.36833	99.98
0.38500	99.98
0.40167	99.98
0.41833	99.98
0.43500	99.97
0.45167	99.98
0.46833	99.98
0.48500	99.98
0.50167	99.98
0.51833	99.98
0.53500	99.98
0.55167	99.98
0.56833	99.98
0.58500	99.98
0.60167	99.98
0.61833	99.98
0.63500	99.98
0.65167	99.98
0.66833	99.98
0.68500	99.98
0.70167	99.98
0.71833	99.98
0.73500	99.98
0.75167	99.99
0.76833	99.99
0.78500	99.99
0.80167	99.99
0.81833	99.98
0.83500	99.98
0.85167	99.98
0.86833	99.99
0.88500	99.99
0.90167	99.99
0.91833	99.99
0.93500	99.99
0.95167	99.99
0.96833	99.99
0.98500	99.98
1.00167	99.99
1.01833	99.98
1.03500	99.99
1.05167	99.99
1.06833	99.98
1.08500	99.99
1.10167	99.99
1.11833	99.98
1.13500	99.98
1.15167	99.99
1.16833	99.99
1.18500	99.98
1.20167	99.98
1.21833	99.99
1.23500	99.98
1.25167	99.99
1.26833	99.99
1.28500	99.98
1.30167	99.98
1.31833	99.98
1.33500	99.98
1.35167	99.98
1.36833	99.98
1.38500	99.98
1.40167	99.98
1.41833	99.98
1.43500	99.98
1.45167	99.98
1.46833	99.98
1.48500	99.98
1.50167	99.98
1.51833	99.98
1.53500	99.98
1.55167	99.98
1.56833	99.98
1.58500	99.98
1.60167	99.98
1.61833	99.98
1.63500	99.98
1.65167	99.98
1.66833	99.98
1.68500	99.98
1.70167	99.97
1.71833	99.98
1.73500	99.98
1.75167	99.98
1.76833	99.98
1.78500	99.98
1.80167	99.98
1.81833	99.97
1.83500	99.98
1.85167	99.98
1.86833	99.98
1.88500	99.98
1.90167	99.97
1.91833	99.98
1.93500	99.98
1.95167	99.97
1.96833	99.98
1.98500	99.97
2.00167	99.97
2.01833	99.97
2.03500	99.97
2.05167	99.97
2.06833	99.97
2.08500	99.97
2.10167	99.97
2.11833	99.97
2.13500	99.97
2.15167	99.97
2.16833	99.97
2.18500	99.97
2.20167	99.96
2.21833	99.96
2.23500	99.97
2.25167	99.96
2.26833	99.96
2.28500	99.96
2.30167	99.96
2.31833	99.96
2.33500	99.96
2.35167	99.96
2.36833	99.96
2.38500	99.96
2.40167	99.96
2.41833	99.95
2.43500	99.96
2.45167	99.96
2.46833	99.96
2.48500	99.96
2.50167	99.96
2.51833	99.96
2.53500	99.96
2.55167	99.96
2.56833	99.96
2.58500	99.96
2.60167	99.96
2.61833	99.96
2.63500	99.96
2.65167	99.97
2.66833	99.97
2.68500	99.97
2.70167	99.97
2.71833	99.97
2.73500	99.97
2.75167	99.98
2.76833	99.98
2.78500	99.98
2.80167	99.98
2.81833	99.99
2.83500	99.99
2.85167	99.99
2.86833	99.99
2.88500	99.99
2.90167	100.00
2.91833	100.00
2.93500	100.00
2.95167	100.00
2.96833	100.00
2.98500	100.01
3.00167	100.01
3.01833	100.01
3.03500	100.01
3.05167	100.01
3.06833	100.01
3.08500	100.01
3.10167	100.02
3.11833	100.02
3.13500	100.01
3.15167	100.01
3.16833	100.02
3.18500	100.01
3.20167	100.02
3.21833	100.02
3.23500	100.02
3.25167	100.02
3.26833	100.02
3.28500	100.02
3.30167	100.02
3.31833	100.03
3.33500	100.03
3.35167	100.03
3.36833	100.03
3.38500	100.03
3.40167	100.03
3.41833	100.03
3.43500	100.03
3.45167	100.03
3.46833	100.04
3.48500	100.04
3.50167	100.04
3.51833	100.04
3.53500	100.04
3.55167	100.04
3.56833	100.04
3.58500	100.04
3.60167	100.04
3.61833	100.04
3.63500	100.04
3.65167	100.04
3.66833	100.04
3.68500	100.04
3.70167	100.04
3.71833	100.04
3.73500	100.04
3.75167	100.04
3.76833	100.04
3.78500	100.05
3.80167	100.05
3.81833	100.04
3.83500	100.04
3.85167	100.05
3.86833	100.04
3.88500	100.05
3.90167	100.05
3.91833	100.05
3.93500	100.04
3.95167	100.05
3.96833	100.05
3.98500	100.05

[Status Trace (Carrier Gas Pressure)]
Interval(msec)	1000
# of Points	240
Start Time(min)	0.002
End Time(min)	3.985
Intensity Units	
Intensity Multiplier	1
R.Time (min)	Intensity
0.00167	58.00
0.01833	56.44
0.03500	56.20
0.05167	58.39
0.06833	59.91
0.08500	58.36
0.10167	57.97
0.11833	58.00
0.13500	58.01
0.15167	58.01
0.16833	58.00
0.18500	58.00
0.20167	58.00
0.21833	58.00
0.23500	58.00
0.25167	58.00
0.26833	58.00
0.28500	58.00
0.30167	58.00
0.31833	58.00
0.33500	58.00
0.35167	58.00
0.36833	58.00
0.38500	58.00
0.40167	58.00
0.41833	58.00
0.43500	58.00
0.45167	58.00
0.46833	58.00
0.48500	58.00
0.50167	58.00
0.51833	58.00
0.53500	58.00
0.55167	58.00
0.56833	58.00
0.58500	58.00
0.60167	58.00
0.61833	58.00
0.63500	58.00
0.65167	58.00
0.66833	58.00
0.68500	58.00
0.70167	58.00
0.71833	58.00
0.73500	58.00
0.75167	58.00
0.76833	58.00
0.78500	58.00
0.80167	58.00
0.81833	58.00
0.83500	58.00
0.85167	58.00
0.86833	58.00
0.88500	58.00
0.90167	58.00
0.91833	58.00
0.93500	58.00
0.95167	58.00
0.96833	58.00
0.98500	58.00
1.00167	58.00
1.01833	58.00
1.03500	58.00
1.05167	58.00
1.06833	58.00
1.08500	58.00
1.10167	58.00
1.11833	58.00
1.13500	58.00
1.15167	58.00
1.16833	58.00
1.18500	58.00
1.20167	58.00
1.21833	58.00
1.23500	58.00
1.25167	58.00
1.26833	58.00
1.28500	58.00
1.30167	58.00
1.31833	58.00
1.33500	58.00
1.35167	58.00
1.36833	58.00
1.38500	58.00
1.40167	58.00
1.41833	58.00
1.43500	58.00
1.45167	58.00
1.46833	58.00
1.48500	58.00
1.50167	58.00
1.51833	58.00
1.53500	58.00
1.55167	58.00
1.56833	58.00
1.58500	58.00
1.60167	58.00
1.61833	58.00
1.63500	58.00
1.65167	58.00
1.66833	58.01
1.68500	58.01
1.70167	58.00
1.71833	58.00
1.73500	58.00
1.75167	58.00
1.76833	58.00
1.78500	58.00
1.80167	58.00
1.81833	58.00
1.83500	58.00
1.85167	58.00
1.86833	58.00
1.88500	58.00
1.90167	58.00
1.91833	58.00
1.93500	58.00
1.95167	58.00
1.96833	58.00
1.98500	58.00
2.00167	58.00
2.01833	58.00
2.03500	58.00
2.05167	58.00
2.06833	58.00
2.08500	58.00
2.10167	58.00
2.11833	58.00
2.13500	58.00
2.15167	58.00
2.16833	58.00
2.18500	58.00
2.20167	58.00
2.21833	58.00
2.23500	58.00
2.25167	58.00
2.26833	58.00
2.28500	58.00
2.30167	58.00
2.31833	58.00
2.33500	58.00
2.35167	58.00
2.36833	58.00
2.38500	57.99
2.40167	57.99
2.41833	58.00
2.43500	58.00
2.45167	58.00
2.46833	58.00
2.48500	58.00
2.50167	58.00
2.51833	58.00
2.53500	57.99
2.55167	58.00
2.56833	58.00
2.58500	58.00
2.60167	58.00
2.61833	58.00
2.63500	58.00
2.65167	58.00
2.66833	58.00
2.68500	58.00
2.70167	58.00
2.71833	58.00
2.73500	58.00
2.75167	58.00
2.76833	58.00
2.78500	58.00
2.80167	58.00
2.81833	58.00
2.83500	58.00
2.85167	58.00
2.86833	58.00
2.88500	58.00
2.90167	58.00
2.91833	58.00
2.93500	58.00
2.95167	58.00
2.96833	58.00
2.98500	58.00
3.00167	58.00
3.01833	58.00
3.03500	58.00
3.05167	58.00
3.06833	58.00
3.08500	58.00
3.10167	58.00
3.11833	58.00
3.13500	58.00
3.15167	58.00
3.16833	58.00
3.18500	58.00
3.20167	58.00
3.21833	58.00
3.23500	58.00
3.25167	58.00
3.26833	58.00
3.28500	58.00
3.30167	58.00
3.31833	58.00
3.33500	58.00
3.35167	58.00
3.36833	58.00
3.38500	58.00
3.40167	58.00
3.41833	58.00
3.43500	58.00
3.45167	58.00
3.46833	58.00
3.48500	58.00
3.50167	58.00
3.51833	58.00
3.53500	58.00
3.55167	58.00
3.56833	58.00
3.58500	58.00
3.60167	58.00
3.61833	58.00
3.63500	58.00
3.65167	58.00
3.66833	58.00
3.68500	58.00
3.70167	58.00
3.71833	58.00
3.73500	58.00
3.75167	58.00
3.76833	58.00
3.78500	58.00
3.80167	58.00
3.81833	58.00
3.83500	58.00
3.85167	58.00
3.86833	58.00
3.88500	58.00
3.90167	58.00
3.91833	58.00
3.93500	58.00
3.95167	58.00
3.96833	58.00
3.98500	58.00

[Status Trace (Carrier Gas Flow)]
Interval(msec)	1000
# of Points	240
Start Time(min)	0.002
End Time(min)	3.985
Intensity Units	
Intensity Multiplier	1
R.Time (min)	Intensity
0.00167	34.51
0.01833	34.30
0.03500	34.54
0.05167	34.54
0.06833	34.50
0.08500	34.51
0.10167	34.51
0.11833	34.52
0.13500	34.52
0.15167	34.51
0.16833	34.52
0.18500	34.52
0.20167	34.51
0.21833	34.52
0.23500	34.52
0.25167	34.52
0.26833	34.51
0.28500	34.52
0.30167	34.52
0.31833	34.52
0.33500	34.52
0.35167	34.52
0.36833	34.52
0.38500	34.52
0.40167	34.52
0.41833	34.51
0.43500	34.52
0.45167	34.52
0.46833	34.52
0.48500	34.51
0.50167	34.52
0.51833	34.52
0.53500	34.52
0.55167	34.52
0.56833	34.52
0.58500	34.52
0.60167	34.51
0.61833	34.52
0.63500	34.52
0.65167	34.52
0.66833	34.51
0.68500	34.52
0.70167	34.52
0.71833	34.52
0.73500	34.52
0.75167	34.52
0.76833	34.51
0.78500	34.52
0.80167	34.52
0.81833	34.52
0.83500	34.52
0.85167	34.51
0.86833	34.52
0.88500	34.52
0.90167	34.51
0.91833	34.52
0.93500	34.52
0.95167	34.52
0.96833	34.52
0.98500	34.52
1.00167	34.52
1.01833	34.52
1.03500	34.52
1.05167	34.52
1.06833	34.52
1.08500	34.52
1.10167	34.51
1.11833	34.51
1.13500	34.52
1.15167	34.51
1.16833	34.51
1.18500	34.52
1.20167	34.53
1.21833	34.52
1.23500	34.51
1.25167	34.52
1.26833	34.52
1.28500	34.52
1.30167	34.52
1.31833	34.51
1.33500	34.52
1.35167	34.52
1.36833	34.52
1.38500	34.52
1.40167	34.52
1.41833	34.52
1.43500	34.52
1.45167	34.52
1.46833	34.52
1.48500	34.52
1.50167	34.52
1.51833	34.51
1.53500	34.52
1.55167	34.52
1.56833	34.52
1.58500	34.52
1.60167	34.52
1.61833	34.52
1.63500	34.52
1.65167	34.52
1.66833	34.52
1.68500	34.52
1.70167	34.51
1.71833	34.52
1.73500	34.52
1.75167	34.52
1.76833	34.52
1.78500	34.52
1.80167	34.52
1.81833	34.51
1.83500	34.52
1.85167	34.52
1.86833	34.52
1.88500	34.52
1.90167	34.52
1.91833	34.52
1.93500	34.52
1.95167	34.52
1.96833	34.52
1.98500	34.52
2.00167	34.52
2.01833	34.52
2.03500	34.52
2.05167	34.52
2.06833	34.52
2.08500	34.51
2.10167	34.52
2.11833	34.51
2.13500	34.51
2.15167	34.52
2.16833	34.52
2.18500	34.52
2.20167	34.52
2.21833	34.52
2.23500	34.52
2.25167	34.52
2.26833	34.52
2.28500	34.52
2.30167	34.51
2.31833	34.51
2.33500	34.51
2.35167	34.52
2.36833	34.51
2.38500	34.52
2.40167	34.52
2.41833	34.52
2.43500	34.52
2.45167	34.52
2.46833	34.52
2.48500	34.52
2.50167	34.52
2.51833	34.52
2.53500	34.52
2.55167	34.52
2.56833	34.52
2.58500	34.52
2.60167	34.52
2.61833	34.51
2.63500	34.52
2.65167	34.51
2.66833	34.52
2.68500	34.52
2.70167	34.53
2.71833	34.52
2.73500	34.52
2.75167	34.52
2.76833	34.52
2.78500	34.52
2.80167	34.52
2.81833	34.52
2.83500	34.51
2.85167	34.52
2.86833	34.52
2.88500	34.52
2.90167	34.52
2.91833	34.52
2.93500	34.52
2.95167	34.52
2.96833	34.52
2.98500	34.52
3.00167	34.51
3.01833	34.52
3.03500	34.52
3.05167	34.52
3.06833	34.52
3.08500	34.53
3.10167	34.52
3.11833	34.52
3.13500	34.52
3.15167	34.52
3.16833	34.52
3.18500	34.52
3.20167	34.53
3.21833	34.51
3.23500	34.52
3.25167	34.52
3.26833	34.53
3.28500	34.52
3.30167	34.51
3.31833	34.52
3.33500	34.52
3.35167	34.51
3.36833	34.52
3.38500	34.52
3.40167	34.52
3.41833	34.52
3.43500	34.52
3.45167	34.51
3.46833	34.52
3.48500	34.52
3.50167	34.52
3.51833	34.51
3.53500	34.52
3.55167	34.51
3.56833	34.52
3.58500	34.51
3.60167	34.52
3.61833	34.52
3.63500	34.52
3.65167	34.52
3.66833	34.52
3.68500	34.51
3.70167	34.52
3.71833	34.52
3.73500	34.52
3.75167	34.52
3.76833	34.52
3.78500	34.52
3.80167	34.52
3.81833	34.52
3.83500	34.52
3.85167	34.51
3.86833	34.51
3.88500	34.52
3.90167	34.51
3.91833	34.52
3.93500	34.52
3.95167	34.52
3.96833	34.52
3.98500	34.52

[Status Trace (Column Flow)]
Interval(msec)	1000
# of Points	240
Start Time(min)	0.002
End Time(min)	3.985
Intensity Units	
Intensity Multiplier	1
R.Time (min)	Intensity
0.00167	5.51
0.01833	5.33
0.03500	5.30
0.05167	5.56
0.06833	5.74
0.08500	5.56
0.10167	5.51
0.11833	5.51
0.13500	5.51
0.15167	5.51
0.16833	5.51
0.18500	5.51
0.20167	5.51
0.21833	5.51
0.23500	5.51
0.25167	5.51
0.26833	5.51
0.28500	5.51
0.30167	5.51
0.31833	5.51
0.33500	5.51
0.35167	5.51
0.36833	5.51
0.38500	5.51
0.40167	5.51
0.41833	5.51
0.43500	5.51
0.45167	5.51
0.46833	5.51
0.48500	5.51
0.50167	5.51
0.51833	5.51
0.53500	5.51
0.55167	5.51
0.56833	5.51
0.58500	5.51
0.60167	5.51
0.61833	5.51
0.63500	5.51
0.65167	5.51
0.66833	5.51
0.68500	5.51
0.70167	5.51
0.71833	5.51
0.73500	5.51
0.75167	5.51
0.76833	5.51
0.78500	5.51
0.80167	5.51
0.81833	5.51
0.83500	5.51
0.85167	5.51
0.86833	5.52
0.88500	5.51
0.90167	5.51
0.91833	5.51
0.93500	5.51
0.95167	5.51
0.96833	5.51
0.98500	5.51
1.00167	5.51
1.01833	5.51
1.03500	5.51
1.05167	5.51
1.06833	5.51
1.08500	5.51
1.10167	5.51
1.11833	5.51
1.13500	5.51
1.15167	5.51
1.16833	5.51
1.18500	5.51
1.20167	5.51
1.21833	5.51
1.23500	5.51
1.25167	5.51
1.26833	5.51
1.28500	5.51
1.30167	5.51
1.31833	5.51
1.33500	5.51
1.35167	5.51
1.36833	5.51
1.38500	5.51
1.40167	5.51
1.41833	5.51
1.43500	5.51
1.45167	5.51
1.46833	5.51
1.48500	5.51
1.50167	5.51
1.51833	5.51
1.53500	5.51
1.55167	5.51
1.56833	5.51
1.58500	5.51
1.60167	5.51
1.61833	5.51
1.63500	5.51
1.65167	5.50
1.66833	5.49
1.68500	5.48
1.70167	5.47
1.71833	5.46
1.73500	5.44
1.75167	5.44
1.76833	5.43
1.78500	5.41
1.80167	5.41
1.81833	5.39
1.83500	5.38
1.85167	5.38
1.86833	5.36
1.88500	5.35
1.90167	5.35
1.91833	5.33
1.93500	5.32
1.95167	5.32
1.96833	5.30
1.98500	5.29
2.00167	5.29
2.01833	5.28
2.03500	5.27
2.05167	5.26
2.06833	5.25
2.08500	5.24
2.10167	5.23
2.11833	5.22
2.13500	5.21
2.15167	5.20
2.16833	5.19
2.18500	5.18
2.20167	5.17
2.21833	5.16
2.23500	5.15
2.25167	5.15
2.26833	5.14
2.28500	5.13
2.30167	5.12
2.31833	5.11
2.33500	5.10
2.35167	5.09
2.36833	5.08
2.38500	5.08
2.40167	5.08
2.41833	5.08
2.43500	5.08
2.45167	5.08
2.46833	5.08
2.48500	5.08
2.50167	5.08
2.51833	5.08
2.53500	5.08
2.55167	5.08
2.56833	5.08
2.58500	5.08
2.60167	5.08
2.61833	5.08
2.63500	5.08
2.65167	5.08
2.66833	5.08
2.68500	5.08
2.70167	5.08
2.71833	5.08
2.73500	5.07
2.75167	5.07
2.76833	5.08
2.78500	5.08
2.80167	5.07
2.81833	5.07
2.83500	5.07
2.85167	5.07
2.86833	5.07
2.88500	5.07
2.90167	5.07
2.91833	5.07
2.93500	5.07
2.95167	5.07
2.96833	5.07
2.98500	5.07
3.00167	5.07
3.01833	5.07
3.03500	5.07
3.05167	5.07
3.06833	5.07
3.08500	5.07
3.10167	5.07
3.11833	5.07
3.13500	5.07
3.15167	5.07
3.16833	5.07
3.18500	5.07
3.20167	5.07
3.21833	5.07
3.23500	5.07
3.25167	5.07
3.26833	5.07
3.28500	5.07
3.30167	5.07
3.31833	5.07
3.33500	5.07
3.35167	5.07
3.36833	5.07
3.38500	5.07
3.40167	5.07
3.41833	5.07
3.43500	5.07
3.45167	5.07
3.46833	5.07
3.48500	5.07
3.50167	5.07
3.51833	5.07
3.53500	5.07
3.55167	5.07
3.56833	5.07
3.58500	5.07
3.60167	5.07
3.61833	5.07
3.63500	5.07
3.65167	5.07
3.66833	5.07
3.68500	5.07
3.70167	5.07
3.71833	5.07
3.73500	5.07
3.75167	5.07
3.76833	5.07
3.78500	5.07
3.80167	5.07
3.81833	5.07
3.83500	5.07
3.85167	5.07
3.86833	5.07
3.88500	5.07
3.90167	5.07
3.91833	5.07
3.93500	5.07
3.95167	5.07
3.96833	5.07
3.98500	5.07

[Status Trace (Linear Velocity)]
Interval(msec)	1000
# of Points	240
Start Time(min)	0.002
End Time(min)	3.985
Intensity Units	
Intensity Multiplier	1
R.Time (min)	Intensity
0.00167	39.01
0.01833	37.98
0.03500	37.83
0.05167	39.26
0.06833	40.26
0.08500	39.25
0.10167	38.99
0.11833	39.01
0.13500	39.02
0.15167	39.01
0.16833	39.01
0.18500	39.01
0.20167	39.01
0.21833	39.01
0.23500	39.01
0.25167	39.01
0.26833	39.01
0.28500	39.01
0.30167	39.01
0.31833	39.01
0.33500	39.02
0.35167	39.01
0.36833	39.01
0.38500	39.01
0.40167	39.01
0.41833	39.01
0.43500	39.01
0.45167	39.02
0.46833	39.02
0.48500	39.02
0.50167	39.02
0.51833	39.02
0.53500	39.01
0.55167	39.02
0.56833	39.01
0.58500	39.01
0.60167	39.01
0.61833	39.01
0.63500	39.01
0.65167	39.01
0.66833	39.01
0.68500	39.01
0.70167	39.01
0.71833	39.02
0.73500	39.02
0.75167	39.02
0.76833	39.02
0.78500	39.01
0.80167	39.02
0.81833	39.02
0.83500	39.02
0.85167	39.02
0.86833	39.02
0.88500	39.02
0.90167	39.02
0.91833	39.02
0.93500	39.02
0.95167	39.02
0.96833	39.02
0.98500	39.02
1.00167	39.02
1.01833	39.02
1.03500	39.02
1.05167	39.02
1.06833	39.01
1.08500	39.02
1.10167	39.02
1.11833	39.02
1.13500	39.02
1.15167	39.02
1.16833	39.01
1.18500	39.01
1.20167	39.01
1.21833	39.01
1.23500	39.01
1.25167	39.01
1.26833	39.02
1.28500	39.02
1.30167	39.02
1.31833	39.02
1.33500	39.02
1.35167	39.02
1.36833	39.02
1.38500	39.02
1.40167	39.02
1.41833	39.02
1.43500	39.02
1.45167	39.02
1.46833	39.02
1.48500	39.02
1.50167	39.02
1.51833	39.02
1.53500	39.01
1.55167	39.01
1.56833	39.01
1.58500	39.01
1.60167	39.01
1.61833	39.00
1.63500	38.99
1.65167	38.97
1.66833	38.94
1.68500	38.90
1.70167	38.87
1.71833	38.83
1.73500	38.80
1.75167	38.78
1.76833	38.74
1.78500	38.71
1.80167	38.68
1.81833	38.65
1.83500	38.61
1.85167	38.59
1.86833	38.55
1.88500	38.52
1.90167	38.49
1.91833	38.46
1.93500	38.43
1.95167	38.40
1.96833	38.37
1.98500	38.34
2.00167	38.31
2.01833	38.28
2.03500	38.25
2.05167	38.22
2.06833	38.19
2.08500	38.16
2.10167	38.13
2.11833	38.10
2.13500	38.07
2.15167	38.04
2.16833	38.01
2.18500	37.98
2.20167	37.95
2.21833	37.92
2.23500	37.89
2.25167	37.87
2.26833	37.83
2.28500	37.81
2.30167	37.78
2.31833	37.75
2.33500	37.72
2.35167	37.69
2.36833	37.67
2.38500	37.65
2.40167	37.65
2.41833	37.65
2.43500	37.65
2.45167	37.65
2.46833	37.65
2.48500	37.65
2.50167	37.65
2.51833	37.65
2.53500	37.65
2.55167	37.65
2.56833	37.65
2.58500	37.65
2.60167	37.65
2.61833	37.65
2.63500	37.64
2.65167	37.64
2.66833	37.64
2.68500	37.64
2.70167	37.64
2.71833	37.64
2.73500	37.64
2.75167	37.64
2.76833	37.64
2.78500	37.64
2.80167	37.64
2.81833	37.64
2.83500	37.64
2.85167	37.64
2.86833	37.64
2.88500	37.64
2.90167	37.63
2.91833	37.63
2.93500	37.63
2.95167	37.63
2.96833	37.63
2.98500	37.63
3.00167	37.63
3.01833	37.63
3.03500	37.63
3.05167	37.63
3.06833	37.62
3.08500	37.62
3.10167	37.62
3.11833	37.62
3.13500	37.62
3.15167	37.62
3.16833	37.62
3.18500	37.62
3.20167	37.62
3.21833	37.63
3.23500	37.63
3.25167	37.63
3.26833	37.63
3.28500	37.63
3.30167	37.63
3.31833	37.63
3.33500	37.63
3.35167	37.63
3.36833	37.63
3.38500	37.63
3.40167	37.63
3.41833	37.63
3.43500	37.63
3.45167	37.63
3.46833	37.63
3.48500	37.63
3.50167	37.63
3.51833	37.63
3.53500	37.63
3.55167	37.63
3.56833	37.63
3.58500	37.63
3.60167	37.63
3.61833	37.63
3.63500	37.62
3.65167	37.63
3.66833	37.63
3.68500	37.63
3.70167	37.63
3.71833	37.62
3.73500	37.62
3.75167	37.62
3.76833	37.62
3.78500	37.62
3.80167	37.62
3.81833	37.62
3.83500	37.62
3.85167	37.62
3.86833	37.62
3.88500	37.62
3.90167	37.62
3.91833	37.62
3.93500	37.62
3.95167	37.62
3.96833	37.62
3.98500	37.62

