[Header]
Application Name	LabSolutions
Version	5.110
Data File Name	C:\Users\User\Desktop\Junior\UIC Prairie Sampling\2023\8.18.23\081823_029.gcd
Output Date	8/31/2023
Output Time	12:48:08 PM

[File Information]
Type	Data File
Generated	8/30/2023 7:13:08 PM
Generated by	System Administrator
Modified	8/30/2023 7:19:27 PM
Modified by	System Administrator

[Sample Information]
Operator Name	System Administrator
Acquired	8/30/2023 7:15:27 PM
Sample Type	0:Unknown
Level	0
Sample Name	029
Sample ID	029
ISTD Amount1	1
ISTD Amount2	1
ISTD Amount3	1
ISTD Amount4	1
ISTD Amount5	1
ISTD Amount6	1
ISTD Amount7	1
ISTD Amount8	1
ISTD Amount9	1
ISTD Amount10	1
ISTD Amount11	1
ISTD Amount12	1
ISTD Amount13	1
ISTD Amount14	1
ISTD Amount15	1
ISTD Amount16	1
ISTD Amount17	1
ISTD Amount18	1
ISTD Amount19	1
ISTD Amount20	1
ISTD Amount21	1
ISTD Amount22	1
ISTD Amount23	1
ISTD Amount24	1
ISTD Amount25	1
ISTD Amount26	1
ISTD Amount27	1
ISTD Amount28	1
ISTD Amount29	1
ISTD Amount30	1
ISTD Amount31	1
ISTD Amount32	1
Sample Amount	1
Dilution Factor	1
Vial#	28
Injection Volume	1
Injection Count	1
Bar Code	

[Original Files]
Data File	C:\Users\User\Desktop\Junior\UIC Prairie Sampling\8.18.23\081823_029.gcd
Method File	C:\LabSolutions\Data\GHG_4min_2022\ghg3_togas_w_acet_4 min_new_int.gcm
Batch File	C:\LabSolutions\Data\BATCH FILES\081823.gcb
Report Format File	c:\LabSolutions\System\DEFAULT.lsr

[File Description]


[Configuration]
Instrument Name	C0B7VH3-Instrument1
Instrument #	1
Line #	1
# of Detectors	3
Detector ID	DET#1	DET#2	DET#3
Detector Name	FID	PTCD	ECD
# of Channels	1	1	1

[Peak Table(Ch1)]
# of Peaks	3
Peak#	R.Time	I.Time	F.Time	Area	Height	A/H	Conc.	Mark	ID#	Name	k'	Plate #	Plate Ht.	Tailing	Resolution	Sep.Factor	Area Ratio	Height Ratio	Conc. %	Norm Conc.
1	1.472	1.435	1.527	3386	1736	1.951	0.000	   	1	CO	0.000	10153	14.773	1.323	0.000	0.000	0	0	0.000	0.000
2	1.564	1.527	1.615	4204	2190	1.920	20.493	 V 	2	CH4	0.062	11894	12.611	1.090	1.583	0.000	0	0	7.241	7.241
3	1.989	1.945	2.491	1362277	653327	2.085	262.536	   	3	CO2	0.351	17524	8.560	1.296	7.243	5.640	0	0	92.759	92.759

[Peak Table(Ch2)]
# of Peaks	0

[Peak Table(Ch3)]
# of Peaks	5
Peak#	R.Time	I.Time	F.Time	Area	Height	A/H	Conc.	Mark	ID#	Name	k'	Plate #	Plate Ht.	Tailing	Resolution	Sep.Factor	Area Ratio	Height Ratio	Conc. %	Norm Conc.
1	2.458	2.323	2.506	1009	328	3.075	0.000	   			0.000	12253	12.242	0.000	0.000	0.000	0	0	0.000	0.000
2	2.524	2.506	2.568	388	147	2.641	0.000	 V 			0.027	4379	34.252	0.000	0.547	0.000	0	0	0.000	0.000
3	2.627	2.568	2.722	492	115	4.261	0.000	 V 			0.069	8356	17.950	0.000	0.768	2.556	0	0	0.000	0.000
4	2.891	2.755	3.023	14503	3980	3.644	0.215	   	1	N2O	0.176	14043	10.681	1.462	2.484	2.565	0	0	100.000	100.000
5	3.170	3.096	3.995	26261	982	26.744	0.000	   	2	SF6	0.289	287	522.162	6.137	0.659	1.644	0	0	0.000	0.000

[Compound Results(Ch1)]
# of IDs	6
ID#	Name	R.Time	Area	Height	Conc.	Curve	3rd	2nd	1st	Constant	Area Ratio	Height Ratio	Conc. %	Norm Conc.
1	CO	1.472	3386	1736	0.000	Linear	0.000000e+00	0.000000e+00	0.000000e+00	0.000000e+00	0	0	0.000	0.000
2	CH4	1.564	4204	2190	20.493	Linear	0.000000e+00	0.000000e+00	2.051179e+002	0.000000e+00	0	0	7.241	7.241
3	CO2	1.989	1362277	653327	262.536	Linear	0.000000e+00	0.000000e+00	5.188919e+003	0.000000e+00	0	0	92.759	92.759
4	Ethylene	0.000	0	0	0.000	Linear	0.000000e+00	0.000000e+00	0.000000e+00	0.000000e+00	0	0	0.000	0.000
5	Acetylene	0.000	0	0	0.000	Linear	0.000000e+00	0.000000e+00	0.000000e+00	0.000000e+00	0	0	0.000	0.000
6	Ethane	0.000	0	0	0.000	Linear	0.000000e+00	0.000000e+00	0.000000e+00	0.000000e+00	0	0	0.000	0.000

[Compound Results(Ch2)]
# of IDs	5
ID#	Name	R.Time	Area	Height	Conc.	Curve	3rd	2nd	1st	Constant	Area Ratio	Height Ratio	Conc. %	Norm Conc.
1	Hydrogen	0.000	0	0	0.000	Linear	0.000000e+00	0.000000e+00	0.000000e+00	0.000000e+00	0	0	0.000	0.000
2	Oxygen	0.000	0	0	0.000	Linear	0.000000e+00	0.000000e+00	0.000000e+00	0.000000e+00	0	0	0.000	0.000
3	Nitrogen	0.000	0	0	0.000	Linear	0.000000e+00	0.000000e+00	0.000000e+00	0.000000e+00	0	0	0.000	0.000
4	Methane	0.000	0	0	0.000	Linear	0.000000e+00	0.000000e+00	0.000000e+00	0.000000e+00	0	0	0.000	0.000
5	Carbon Monoxide	0.000	0	0	0.000	Linear	0.000000e+00	0.000000e+00	0.000000e+00	0.000000e+00	0	0	0.000	0.000

[Compound Results(Ch3)]
# of IDs	2
ID#	Name	R.Time	Area	Height	Conc.	Curve	3rd	2nd	1st	Constant	Area Ratio	Height Ratio	Conc. %	Norm Conc.
1	N2O	2.891	14503	3980	0.215	Linear	0.000000e+00	0.000000e+00	6.759880e+004	0.000000e+00	0	0	100.000	100.000
2	SF6	3.170	26261	982	0.000	Linear	0.000000e+00	0.000000e+00	0.000000e+00	0.000000e+00	0	0	0.000	0.000

[Group Results(Ch1)]
# of Groups	0

[Group Results(Ch2)]
# of Groups	0

[Group Results(Ch3)]
# of Groups	0

[Chromatogram (Ch1)]
Interval(msec)	220
# of Points	1091
Start Time(min)	0.002
End Time(min)	3.998
R.Time (min)	Intensity
0.00167	-16
0.00533	-12
0.00900	-9
0.01267	-4
0.01633	4
0.02000	12
0.02367	15
0.02733	17
0.03100	16
0.03467	14
0.03833	13
0.04200	11
0.04567	10
0.04933	10
0.05300	11
0.05667	7
0.06033	2
0.06400	-1
0.06767	-0
0.07133	3
0.07500	6
0.07867	8
0.08233	10
0.08600	10
0.08967	8
0.09333	7
0.09700	8
0.10067	8
0.10433	4
0.10800	0
0.11167	-4
0.11533	-6
0.11900	-4
0.12267	-6
0.12633	-11
0.13000	-19
0.13367	-26
0.13733	-29
0.14100	-28
0.14467	-24
0.14833	-20
0.15200	-18
0.15567	-18
0.15933	-15
0.16300	-13
0.16667	-12
0.17033	-15
0.17400	-18
0.17767	-20
0.18133	-20
0.18500	-20
0.18867	-19
0.19233	-16
0.19600	-13
0.19967	-10
0.20333	-8
0.20700	-7
0.21067	-5
0.21433	-3
0.21800	-2
0.22167	0
0.22533	5
0.22900	10
0.23267	11
0.23633	10
0.24000	6
0.24367	1
0.24733	-4
0.25100	-5
0.25467	-4
0.25833	-1
0.26200	4
0.26567	7
0.26933	6
0.27300	2
0.27667	-0
0.28033	-1
0.28400	-0
0.28767	3
0.29133	6
0.29500	6
0.29867	-0
0.30233	-9
0.30600	-16
0.30967	-21
0.31333	-25
0.31700	-29
0.32067	-31
0.32433	-29
0.32800	-27
0.33167	-25
0.33533	-22
0.33900	-17
0.34267	-12
0.34633	-11
0.35000	-12
0.35367	-17
0.35733	-22
0.36100	-23
0.36467	-20
0.36833	-9
0.37200	5
0.37567	16
0.37933	22
0.38300	22
0.38667	18
0.39033	10
0.39400	2
0.39767	-7
0.40133	-13
0.40500	-16
0.40867	-18
0.41233	-17
0.41600	-17
0.41967	-18
0.42333	-19
0.42700	-21
0.43067	-22
0.43433	-23
0.43800	-24
0.44167	-24
0.44533	-19
0.44900	-15
0.45267	-14
0.45633	-14
0.46000	-16
0.46367	-17
0.46733	-14
0.47100	-11
0.47467	-8
0.47833	-4
0.48200	-1
0.48567	1
0.48933	1
0.49300	1
0.49667	1
0.50033	-0
0.50400	-3
0.50767	-3
0.51133	-1
0.51500	2
0.51867	6
0.52233	11
0.52600	14
0.52967	17
0.53333	21
0.53700	25
0.54067	29
0.54433	31
0.54800	32
0.55167	32
0.55533	34
0.55900	41
0.56267	52
0.56633	66
0.57000	77
0.57367	80
0.57733	81
0.58100	81
0.58467	81
0.58833	80
0.59200	81
0.59567	82
0.59933	81
0.60300	77
0.60667	71
0.61033	69
0.61400	69
0.61767	75
0.62133	82
0.62500	86
0.62867	84
0.63233	74
0.63600	62
0.63967	47
0.64333	36
0.64700	32
0.65067	34
0.65433	37
0.65800	35
0.66167	34
0.66533	34
0.66900	33
0.67267	31
0.67633	30
0.68000	26
0.68367	22
0.68733	20
0.69100	19
0.69467	19
0.69833	17
0.70200	12
0.70567	6
0.70933	1
0.71300	1
0.71667	5
0.72033	9
0.72400	11
0.72767	11
0.73133	9
0.73500	7
0.73867	6
0.74233	4
0.74600	3
0.74967	1
0.75333	-3
0.75700	-8
0.76067	-11
0.76433	-14
0.76800	-18
0.77167	-23
0.77533	-25
0.77900	-22
0.78267	-16
0.78633	-8
0.79000	-4
0.79367	-5
0.79733	-11
0.80100	-19
0.80467	-28
0.80833	-31
0.81200	-29
0.81567	-26
0.81933	-22
0.82300	-19
0.82667	-21
0.83033	-26
0.83400	-26
0.83767	-21
0.84133	-13
0.84500	-7
0.84867	-4
0.85233	-2
0.85600	-1
0.85967	-1
0.86333	-4
0.86700	-9
0.87067	-13
0.87433	-13
0.87800	-10
0.88167	-9
0.88533	-7
0.88900	-8
0.89267	-10
0.89633	-7
0.90000	1
0.90367	8
0.90733	9
0.91100	2
0.91467	-3
0.91833	-5
0.92200	-6
0.92567	-6
0.92933	-2
0.93300	4
0.93667	7
0.94033	8
0.94400	7
0.94767	6
0.95133	5
0.95500	3
0.95867	-1
0.96233	-5
0.96600	-7
0.96967	-9
0.97333	-10
0.97700	-11
0.98067	-12
0.98433	-13
0.98800	-16
0.99167	-19
0.99533	-19
0.99900	-18
1.00267	-15
1.00633	-12
1.01000	-11
1.01367	-12
1.01733	-9
1.02100	1
1.02467	11
1.02833	15
1.03200	15
1.03567	13
1.03933	11
1.04300	11
1.04667	11
1.05033	8
1.05400	2
1.05767	-6
1.06133	-15
1.06500	-27
1.06867	-36
1.07233	-42
1.07600	-44
1.07967	-41
1.08333	-32
1.08700	-23
1.09067	-19
1.09433	-18
1.09800	-16
1.10167	-12
1.10533	-12
1.10900	-16
1.11267	-21
1.11633	-24
1.12000	-25
1.12367	-24
1.12733	-28
1.13100	-28
1.13467	-26
1.13833	-24
1.14200	-23
1.14567	-21
1.14933	-19
1.15300	-11
1.15667	-6
1.16033	-5
1.16400	-5
1.16767	-7
1.17133	-11
1.17500	-17
1.17867	-17
1.18233	-13
1.18600	-10
1.18967	-8
1.19333	-5
1.19700	-1
1.20067	4
1.20433	8
1.20800	8
1.21167	5
1.21533	1
1.21900	-7
1.22267	-17
1.22633	-26
1.23000	-30
1.23367	-29
1.23733	-25
1.24100	-20
1.24467	-19
1.24833	-23
1.25200	-27
1.25567	-25
1.25933	-20
1.26300	-15
1.26667	-13
1.27033	-8
1.27400	-2
1.27767	3
1.28133	5
1.28500	8
1.28867	11
1.29233	8
1.29600	1
1.29967	-6
1.30333	-10
1.30700	-13
1.31067	-11
1.31433	-8
1.31800	-9
1.32167	-12
1.32533	-13
1.32900	-10
1.33267	-9
1.33633	-12
1.34000	-16
1.34367	-15
1.34733	-10
1.35100	-7
1.35467	-7
1.35833	-9
1.36200	-13
1.36567	-16
1.36933	-20
1.37300	-25
1.37667	-32
1.38033	-33
1.38400	-25
1.38767	-11
1.39133	2
1.39500	13
1.39867	18
1.40233	15
1.40600	8
1.40967	1
1.41333	-5
1.41700	-11
1.42067	-18
1.42433	-25
1.42800	-27
1.43167	-22
1.43533	-10
1.43900	5
1.44267	3
1.44633	25
1.45000	169
1.45367	452
1.45733	799
1.46100	1135
1.46467	1420
1.46833	1631
1.47200	1732
1.47567	1695
1.47933	1527
1.48300	1274
1.48667	996
1.49033	744
1.49400	540
1.49767	384
1.50133	268
1.50500	185
1.50867	126
1.51233	87
1.51600	61
1.51967	44
1.52333	32
1.52700	24
1.53067	26
1.53433	66
1.53800	201
1.54167	478
1.54533	876
1.54900	1310
1.55267	1700
1.55633	1998
1.56000	2175
1.56367	2202
1.56733	2060
1.57100	1772
1.57467	1410
1.57833	1050
1.58200	742
1.58567	501
1.58933	326
1.59300	207
1.59667	128
1.60033	77
1.60400	49
1.60767	35
1.61133	27
1.61500	22
1.61867	19
1.62233	21
1.62600	20
1.62967	16
1.63333	8
1.63700	-1
1.64067	-8
1.64433	-12
1.64800	-13
1.65167	-17
1.65533	-22
1.65900	-27
1.66267	-31
1.66633	-34
1.67000	-34
1.67367	-34
1.67733	-33
1.68100	-32
1.68467	-32
1.68833	-32
1.69200	-29
1.69567	-24
1.69933	-19
1.70300	-17
1.70667	-18
1.71033	-18
1.71400	-18
1.71767	-17
1.72133	-15
1.72500	-11
1.72867	-8
1.73233	-9
1.73600	-14
1.73967	-18
1.74333	-21
1.74700	-24
1.75067	-27
1.75433	-31
1.75800	-32
1.76167	-32
1.76533	-31
1.76900	-30
1.77267	-28
1.77633	-27
1.78000	-23
1.78367	-20
1.78733	-17
1.79100	-16
1.79467	-17
1.79833	-19
1.80200	-20
1.80567	-19
1.80933	-17
1.81300	-14
1.81667	-8
1.82033	2
1.82400	11
1.82767	14
1.83133	14
1.83500	11
1.83867	1
1.84233	-14
1.84600	-29
1.84967	-39
1.85333	-45
1.85700	-46
1.86067	-46
1.86433	-45
1.86800	-47
1.87167	-49
1.87533	-52
1.87900	-52
1.88267	-47
1.88633	-40
1.89000	-30
1.89367	-18
1.89733	-8
1.90100	-1
1.90467	4
1.90833	5
1.91200	2
1.91567	-1
1.91933	-3
1.92300	-8
1.92667	-8
1.93033	-4
1.93400	-1
1.93767	-3
1.94133	-3
1.94500	10
1.94867	110
1.95233	715
1.95600	3543
1.95967	13468
1.96333	40067
1.96700	95296
1.97067	185110
1.97433	302174
1.97800	427694
1.98167	539393
1.98533	618622
1.98900	653361
1.99267	639796
1.99633	583261
2.00000	497201
2.00367	399090
2.00733	304555
2.01100	223489
2.01467	159571
2.01833	112117
2.02200	78333
2.02567	54942
2.02933	39025
2.03300	28280
2.03667	21030
2.04033	16109
2.04400	12728
2.04767	10363
2.05133	8672
2.05500	7433
2.05867	6502
2.06233	5781
2.06600	5208
2.06967	4742
2.07333	4360
2.07700	4043
2.08067	3776
2.08433	3544
2.08800	3337
2.09167	3147
2.09533	2972
2.09900	2814
2.10267	2674
2.10633	2549
2.11000	2435
2.11367	2328
2.11733	2225
2.12100	2130
2.12467	2045
2.12833	1969
2.13200	1897
2.13567	1826
2.13933	1761
2.14300	1705
2.14667	1655
2.15033	1607
2.15400	1555
2.15767	1499
2.16133	1440
2.16500	1386
2.16867	1340
2.17233	1302
2.17600	1267
2.17967	1234
2.18333	1201
2.18700	1169
2.19067	1139
2.19433	1110
2.19800	1081
2.20167	1055
2.20533	1031
2.20900	1011
2.21267	991
2.21633	970
2.22000	948
2.22367	926
2.22733	907
2.23100	886
2.23467	863
2.23833	838
2.24200	815
2.24567	797
2.24933	782
2.25300	771
2.25667	760
2.26033	747
2.26400	733
2.26767	719
2.27133	706
2.27500	691
2.27867	677
2.28233	665
2.28600	658
2.28967	650
2.29333	639
2.29700	628
2.30067	617
2.30433	606
2.30800	596
2.31167	585
2.31533	574
2.31900	563
2.32267	555
2.32633	549
2.33000	544
2.33367	540
2.33733	537
2.34100	527
2.34467	511
2.34833	497
2.35200	488
2.35567	485
2.35933	481
2.36300	475
2.36667	471
2.37033	463
2.37400	457
2.37767	454
2.38133	448
2.38500	440
2.38867	431
2.39233	424
2.39600	419
2.39967	414
2.40333	411
2.40700	406
2.41067	399
2.41433	392
2.41800	384
2.42167	377
2.42533	374
2.42900	370
2.43267	363
2.43633	356
2.44000	351
2.44367	346
2.44733	345
2.45100	345
2.45467	341
2.45833	337
2.46200	332
2.46567	327
2.46933	321
2.47300	315
2.47667	311
2.48033	311
2.48400	311
2.48767	310
2.49133	309
2.49500	306
2.49867	305
2.50233	304
2.50600	302
2.50967	300
2.51333	298
2.51700	293
2.52067	287
2.52433	280
2.52800	272
2.53167	264
2.53533	257
2.53900	250
2.54267	245
2.54633	241
2.55000	238
2.55367	237
2.55733	238
2.56100	237
2.56467	236
2.56833	234
2.57200	232
2.57567	227
2.57933	222
2.58300	220
2.58667	222
2.59033	226
2.59400	228
2.59767	225
2.60133	219
2.60500	212
2.60867	204
2.61233	198
2.61600	197
2.61967	201
2.62333	204
2.62700	205
2.63067	204
2.63433	203
2.63800	201
2.64167	198
2.64533	196
2.64900	193
2.65267	194
2.65633	197
2.66000	199
2.66367	198
2.66733	193
2.67100	184
2.67467	173
2.67833	165
2.68200	165
2.68567	171
2.68933	176
2.69300	176
2.69667	171
2.70033	163
2.70400	157
2.70767	151
2.71133	147
2.71500	150
2.71867	156
2.72233	161
2.72600	163
2.72967	159
2.73333	153
2.73700	149
2.74067	147
2.74433	148
2.74800	148
2.75167	149
2.75533	150
2.75900	150
2.76267	147
2.76633	142
2.77000	138
2.77367	136
2.77733	131
2.78100	128
2.78467	131
2.78833	138
2.79200	145
2.79567	151
2.79933	154
2.80300	152
2.80667	145
2.81033	134
2.81400	123
2.81767	114
2.82133	107
2.82500	106
2.82867	107
2.83233	111
2.83600	114
2.83967	116
2.84333	119
2.84700	121
2.85067	123
2.85433	124
2.85800	122
2.86167	118
2.86533	113
2.86900	110
2.87267	109
2.87633	107
2.88000	108
2.88367	111
2.88733	116
2.89100	119
2.89467	118
2.89833	117
2.90200	117
2.90567	114
2.90933	110
2.91300	107
2.91667	106
2.92033	110
2.92400	118
2.92767	125
2.93133	130
2.93500	130
2.93867	125
2.94233	118
2.94600	113
2.94967	109
2.95333	106
2.95700	104
2.96067	104
2.96433	106
2.96800	106
2.97167	105
2.97533	103
2.97900	104
2.98267	108
2.98633	112
2.99000	114
2.99367	115
2.99733	116
3.00100	116
3.00467	115
3.00833	113
3.01200	110
3.01567	105
3.01933	99
3.02300	97
3.02667	96
3.03033	92
3.03400	89
3.03767	87
3.04133	87
3.04500	87
3.04867	87
3.05233	88
3.05600	89
3.05967	92
3.06333	93
3.06700	91
3.07067	89
3.07433	89
3.07800	91
3.08167	90
3.08533	87
3.08900	86
3.09267	88
3.09633	89
3.10000	89
3.10367	88
3.10733	87
3.11100	87
3.11467	87
3.11833	88
3.12200	88
3.12567	85
3.12933	81
3.13300	79
3.13667	81
3.14033	87
3.14400	90
3.14767	90
3.15133	87
3.15500	84
3.15867	77
3.16233	68
3.16600	63
3.16967	63
3.17333	68
3.17700	72
3.18067	72
3.18433	69
3.18800	67
3.19167	69
3.19533	73
3.19900	73
3.20267	65
3.20633	53
3.21000	47
3.21367	47
3.21733	51
3.22100	55
3.22467	59
3.22833	63
3.23200	67
3.23567	65
3.23933	61
3.24300	61
3.24667	69
3.25033	77
3.25400	85
3.25767	88
3.26133	85
3.26500	78
3.26867	70
3.27233	63
3.27600	58
3.27967	58
3.28333	62
3.28700	66
3.29067	70
3.29433	76
3.29800	77
3.30167	73
3.30533	68
3.30900	64
3.31267	60
3.31633	59
3.32000	61
3.32367	65
3.32733	67
3.33100	68
3.33467	68
3.33833	67
3.34200	63
3.34567	59
3.34933	58
3.35300	58
3.35667	60
3.36033	61
3.36400	60
3.36767	56
3.37133	51
3.37500	47
3.37867	45
3.38233	44
3.38600	42
3.38967	40
3.39333	41
3.39700	44
3.40067	45
3.40433	45
3.40800	47
3.41167	48
3.41533	49
3.41900	50
3.42267	48
3.42633	46
3.43000	44
3.43367	40
3.43733	36
3.44100	32
3.44467	31
3.44833	33
3.45200	36
3.45567	42
3.45933	49
3.46300	54
3.46667	57
3.47033	58
3.47400	59
3.47767	59
3.48133	57
3.48500	53
3.48867	48
3.49233	43
3.49600	42
3.49967	41
3.50333	41
3.50700	40
3.51067	41
3.51433	45
3.51800	49
3.52167	54
3.52533	60
3.52900	63
3.53267	63
3.53633	62
3.54000	57
3.54367	52
3.54733	47
3.55100	45
3.55467	44
3.55833	43
3.56200	43
3.56567	42
3.56933	42
3.57300	46
3.57667	53
3.58033	61
3.58400	71
3.58767	79
3.59133	84
3.59500	81
3.59867	72
3.60233	61
3.60600	50
3.60967	40
3.61333	35
3.61700	34
3.62067	35
3.62433	32
3.62800	26
3.63167	20
3.63533	17
3.63900	15
3.64267	14
3.64633	13
3.65000	14
3.65367	19
3.65733	25
3.66100	27
3.66467	28
3.66833	30
3.67200	33
3.67567	35
3.67933	32
3.68300	30
3.68667	30
3.69033	29
3.69400	31
3.69767	36
3.70133	42
3.70500	44
3.70867	42
3.71233	37
3.71600	32
3.71967	27
3.72333	25
3.72700	22
3.73067	22
3.73433	23
3.73800	23
3.74167	20
3.74533	18
3.74900	18
3.75267	20
3.75633	20
3.76000	20
3.76367	21
3.76733	22
3.77100	22
3.77467	21
3.77833	19
3.78200	19
3.78567	20
3.78933	21
3.79300	22
3.79667	22
3.80033	22
3.80400	23
3.80767	25
3.81133	26
3.81500	26
3.81867	26
3.82233	25
3.82600	25
3.82967	29
3.83333	32
3.83700	33
3.84067	33
3.84433	34
3.84800	36
3.85167	36
3.85533	35
3.85900	37
3.86267	38
3.86633	35
3.87000	27
3.87367	16
3.87733	8
3.88100	5
3.88467	6
3.88833	7
3.89200	6
3.89567	4
3.89933	3
3.90300	3
3.90667	4
3.91033	5
3.91400	6
3.91767	8
3.92133	11
3.92500	15
3.92867	18
3.93233	24
3.93600	31
3.93967	37
3.94333	41
3.94700	40
3.95067	34
3.95433	28
3.95800	24
3.96167	20
3.96533	18
3.96900	18
3.97267	19
3.97633	25
3.98000	30
3.98367	31
3.98733	30
3.99100	28
3.99467	25
3.99833	21

[Chromatogram (Ch2)]
Interval(msec)	220
# of Points	1091
Start Time(min)	0.002
End Time(min)	3.998
R.Time (min)	Intensity
0.00167	-0
0.00533	-1
0.00900	-1
0.01267	-1
0.01633	-1
0.02000	-1
0.02367	-1
0.02733	-2
0.03100	-2
0.03467	-2
0.03833	-2
0.04200	-2
0.04567	-2
0.04933	-1
0.05300	-1
0.05667	-1
0.06033	-1
0.06400	-1
0.06767	-1
0.07133	-0
0.07500	-0
0.07867	-0
0.08233	0
0.08600	0
0.08967	0
0.09333	0
0.09700	0
0.10067	1
0.10433	1
0.10800	1
0.11167	1
0.11533	0
0.11900	0
0.12267	0
0.12633	-0
0.13000	-0
0.13367	-0
0.13733	-0
0.14100	-1
0.14467	-1
0.14833	-1
0.15200	-1
0.15567	-1
0.15933	-1
0.16300	-1
0.16667	-1
0.17033	-1
0.17400	-0
0.17767	-0
0.18133	-0
0.18500	-0
0.18867	-0
0.19233	-0
0.19600	0
0.19967	0
0.20333	0
0.20700	0
0.21067	1
0.21433	1
0.21800	1
0.22167	1
0.22533	1
0.22900	1
0.23267	1
0.23633	1
0.24000	1
0.24367	1
0.24733	1
0.25100	1
0.25467	1
0.25833	1
0.26200	1
0.26567	1
0.26933	0
0.27300	0
0.27667	0
0.28033	0
0.28400	-0
0.28767	-0
0.29133	-0
0.29500	-1
0.29867	-1
0.30233	-1
0.30600	-0
0.30967	-0
0.31333	-0
0.31700	0
0.32067	0
0.32433	0
0.32800	0
0.33167	0
0.33533	0
0.33900	0
0.34267	-0
0.34633	-0
0.35000	-0
0.35367	-0
0.35733	-0
0.36100	-0
0.36467	-0
0.36833	-0
0.37200	-0
0.37567	-0
0.37933	-0
0.38300	-0
0.38667	-1
0.39033	-1
0.39400	-2
0.39767	-2
0.40133	-2
0.40500	-3
0.40867	-3
0.41233	-3
0.41600	-3
0.41967	-2
0.42333	-2
0.42700	-1
0.43067	-1
0.43433	-1
0.43800	-0
0.44167	0
0.44533	0
0.44900	1
0.45267	1
0.45633	1
0.46000	1
0.46367	1
0.46733	1
0.47100	1
0.47467	1
0.47833	1
0.48200	1
0.48567	1
0.48933	1
0.49300	0
0.49667	-0
0.50033	-1
0.50400	-1
0.50767	-2
0.51133	-2
0.51500	-2
0.51867	-1
0.52233	-1
0.52600	-1
0.52967	-2
0.53333	-2
0.53700	-2
0.54067	-2
0.54433	-2
0.54800	-2
0.55167	-2
0.55533	-1
0.55900	-1
0.56267	-1
0.56633	-1
0.57000	-1
0.57367	-1
0.57733	-1
0.58100	-1
0.58467	-1
0.58833	-1
0.59200	-1
0.59567	-1
0.59933	-1
0.60300	-1
0.60667	-1
0.61033	-1
0.61400	-1
0.61767	-1
0.62133	-1
0.62500	-0
0.62867	-0
0.63233	-0
0.63600	-1
0.63967	-1
0.64333	-1
0.64700	-2
0.65067	-2
0.65433	-2
0.65800	-2
0.66167	-2
0.66533	-2
0.66900	-1
0.67267	-1
0.67633	-1
0.68000	-1
0.68367	-1
0.68733	-1
0.69100	-1
0.69467	-1
0.69833	-1
0.70200	-1
0.70567	-2
0.70933	-2
0.71300	-2
0.71667	-2
0.72033	-2
0.72400	-2
0.72767	-2
0.73133	-2
0.73500	-2
0.73867	-2
0.74233	-2
0.74600	-2
0.74967	-2
0.75333	-2
0.75700	-2
0.76067	-2
0.76433	-2
0.76800	-2
0.77167	-2
0.77533	-2
0.77900	-2
0.78267	-2
0.78633	-1
0.79000	-1
0.79367	-1
0.79733	-0
0.80100	-0
0.80467	0
0.80833	1
0.81200	1
0.81567	1
0.81933	1
0.82300	1
0.82667	1
0.83033	1
0.83400	1
0.83767	1
0.84133	1
0.84500	1
0.84867	1
0.85233	1
0.85600	0
0.85967	0
0.86333	-0
0.86700	0
0.87067	0
0.87433	0
0.87800	-0
0.88167	-0
0.88533	-0
0.88900	-0
0.89267	-0
0.89633	0
0.90000	0
0.90367	0
0.90733	1
0.91100	1
0.91467	1
0.91833	1
0.92200	1
0.92567	1
0.92933	1
0.93300	1
0.93667	1
0.94033	1
0.94400	1
0.94767	1
0.95133	1
0.95500	0
0.95867	0
0.96233	0
0.96600	0
0.96967	0
0.97333	0
0.97700	0
0.98067	0
0.98433	0
0.98800	0
0.99167	0
0.99533	0
0.99900	-0
1.00267	-0
1.00633	-0
1.01000	-1
1.01367	-1
1.01733	-1
1.02100	-1
1.02467	-1
1.02833	-1
1.03200	-2
1.03567	-2
1.03933	-2
1.04300	-2
1.04667	-2
1.05033	-2
1.05400	-2
1.05767	-2
1.06133	-2
1.06500	-2
1.06867	-2
1.07233	-2
1.07600	-2
1.07967	-1
1.08333	-1
1.08700	-1
1.09067	-1
1.09433	-1
1.09800	-1
1.10167	-1
1.10533	-1
1.10900	-2
1.11267	-2
1.11633	-2
1.12000	-2
1.12367	-2
1.12733	-2
1.13100	-2
1.13467	-2
1.13833	-2
1.14200	-2
1.14567	-2
1.14933	-1
1.15300	-1
1.15667	-1
1.16033	-1
1.16400	-1
1.16767	-1
1.17133	-1
1.17500	-1
1.17867	-1
1.18233	-1
1.18600	-1
1.18967	-1
1.19333	-1
1.19700	-1
1.20067	-2
1.20433	-2
1.20800	-2
1.21167	-2
1.21533	-3
1.21900	-3
1.22267	-3
1.22633	-4
1.23000	-4
1.23367	-4
1.23733	-4
1.24100	-3
1.24467	-3
1.24833	-3
1.25200	-3
1.25567	-3
1.25933	-3
1.26300	-2
1.26667	-2
1.27033	-2
1.27400	-2
1.27767	-2
1.28133	-3
1.28500	-3
1.28867	-3
1.29233	-4
1.29600	-4
1.29967	-4
1.30333	-4
1.30700	-4
1.31067	-4
1.31433	-4
1.31800	-3
1.32167	-3
1.32533	-3
1.32900	-2
1.33267	-2
1.33633	-2
1.34000	-2
1.34367	-2
1.34733	-2
1.35100	-2
1.35467	-2
1.35833	-2
1.36200	-2
1.36567	-2
1.36933	-2
1.37300	-2
1.37667	-3
1.38033	-3
1.38400	-3
1.38767	-3
1.39133	-3
1.39500	-3
1.39867	-3
1.40233	-3
1.40600	-3
1.40967	-3
1.41333	-3
1.41700	-3
1.42067	-3
1.42433	-2
1.42800	-2
1.43167	-2
1.43533	-2
1.43900	-2
1.44267	-2
1.44633	-2
1.45000	-2
1.45367	-2
1.45733	-2
1.46100	-3
1.46467	-3
1.46833	-3
1.47200	-4
1.47567	-4
1.47933	-5
1.48300	-5
1.48667	-5
1.49033	-4
1.49400	-4
1.49767	-4
1.50133	-4
1.50500	-4
1.50867	-4
1.51233	-4
1.51600	-4
1.51967	-4
1.52333	-4
1.52700	-3
1.53067	-3
1.53433	-3
1.53800	-3
1.54167	-3
1.54533	-2
1.54900	-2
1.55267	-2
1.55633	-2
1.56000	-2
1.56367	-2
1.56733	-2
1.57100	-2
1.57467	-2
1.57833	-2
1.58200	-2
1.58567	-3
1.58933	-3
1.59300	-4
1.59667	-4
1.60033	-5
1.60400	-7
1.60767	-8
1.61133	-10
1.61500	-12
1.61867	-14
1.62233	-16
1.62600	-19
1.62967	-22
1.63333	-26
1.63700	-29
1.64067	-33
1.64433	-36
1.64800	-39
1.65167	-42
1.65533	-45
1.65900	-48
1.66267	-51
1.66633	-55
1.67000	-59
1.67367	-64
1.67733	-69
1.68100	-73
1.68467	-78
1.68833	-81
1.69200	-85
1.69567	-87
1.69933	-89
1.70300	-91
1.70667	-92
1.71033	-93
1.71400	-94
1.71767	-94
1.72133	-94
1.72500	-95
1.72867	-95
1.73233	-96
1.73600	-97
1.73967	-98
1.74333	-99
1.74700	-100
1.75067	-100
1.75433	-100
1.75800	-100
1.76167	-99
1.76533	-98
1.76900	-98
1.77267	-97
1.77633	-96
1.78000	-95
1.78367	-94
1.78733	-95
1.79100	-95
1.79467	-97
1.79833	-98
1.80200	-98
1.80567	-99
1.80933	-100
1.81300	-100
1.81667	-100
1.82033	-100
1.82400	-100
1.82767	-100
1.83133	-100
1.83500	-100
1.83867	-101
1.84233	-100
1.84600	-100
1.84967	-100
1.85333	-100
1.85700	-100
1.86067	-99
1.86433	-99
1.86800	-99
1.87167	-99
1.87533	-99
1.87900	-99
1.88267	-99
1.88633	-99
1.89000	-99
1.89367	-99
1.89733	-100
1.90100	-100
1.90467	-100
1.90833	-100
1.91200	-100
1.91567	-100
1.91933	-99
1.92300	-98
1.92667	-98
1.93033	-97
1.93400	-97
1.93767	-97
1.94133	-96
1.94500	-96
1.94867	-96
1.95233	-95
1.95600	-95
1.95967	-95
1.96333	-94
1.96700	-93
1.97067	-93
1.97433	-93
1.97800	-93
1.98167	-93
1.98533	-93
1.98900	-93
1.99267	-93
1.99633	-93
2.00000	-93
2.00367	-93
2.00733	-92
2.01100	-92
2.01467	-92
2.01833	-91
2.02200	-92
2.02567	-92
2.02933	-92
2.03300	-92
2.03667	-92
2.04033	-91
2.04400	-91
2.04767	-90
2.05133	-90
2.05500	-89
2.05867	-89
2.06233	-88
2.06600	-88
2.06967	-88
2.07333	-88
2.07700	-88
2.08067	-88
2.08433	-88
2.08800	-88
2.09167	-87
2.09533	-86
2.09900	-86
2.10267	-85
2.10633	-85
2.11000	-85
2.11367	-85
2.11733	-85
2.12100	-85
2.12467	-85
2.12833	-84
2.13200	-84
2.13567	-84
2.13933	-83
2.14300	-83
2.14667	-83
2.15033	-82
2.15400	-82
2.15767	-81
2.16133	-80
2.16500	-80
2.16867	-80
2.17233	-79
2.17600	-79
2.17967	-79
2.18333	-79
2.18700	-79
2.19067	-79
2.19433	-79
2.19800	-78
2.20167	-77
2.20533	-77
2.20900	-77
2.21267	-77
2.21633	-77
2.22000	-76
2.22367	-76
2.22733	-76
2.23100	-76
2.23467	-76
2.23833	-76
2.24200	-76
2.24567	-76
2.24933	-76
2.25300	-76
2.25667	-75
2.26033	-75
2.26400	-74
2.26767	-74
2.27133	-73
2.27500	-73
2.27867	-72
2.28233	-72
2.28600	-71
2.28967	-71
2.29333	-71
2.29700	-70
2.30067	-70
2.30433	-70
2.30800	-70
2.31167	-70
2.31533	-69
2.31900	-69
2.32267	-70
2.32633	-70
2.33000	-70
2.33367	-69
2.33733	-69
2.34100	-68
2.34467	-67
2.34833	-66
2.35200	-64
2.35567	-63
2.35933	-62
2.36300	-60
2.36667	-58
2.37033	-56
2.37400	-53
2.37767	-50
2.38133	-47
2.38500	-43
2.38867	-39
2.39233	-35
2.39600	-31
2.39967	-27
2.40333	-23
2.40700	-19
2.41067	-16
2.41433	-13
2.41800	-10
2.42167	-8
2.42533	-7
2.42900	-5
2.43267	-4
2.43633	-2
2.44000	-1
2.44367	1
2.44733	2
2.45100	4
2.45467	5
2.45833	6
2.46200	7
2.46567	9
2.46933	10
2.47300	11
2.47667	12
2.48033	13
2.48400	13
2.48767	14
2.49133	14
2.49500	14
2.49867	15
2.50233	15
2.50600	16
2.50967	16
2.51333	17
2.51700	18
2.52067	18
2.52433	18
2.52800	18
2.53167	18
2.53533	17
2.53900	17
2.54267	16
2.54633	15
2.55000	15
2.55367	14
2.55733	13
2.56100	12
2.56467	11
2.56833	11
2.57200	10
2.57567	10
2.57933	11
2.58300	11
2.58667	12
2.59033	13
2.59400	14
2.59767	15
2.60133	16
2.60500	16
2.60867	17
2.61233	17
2.61600	17
2.61967	18
2.62333	18
2.62700	19
2.63067	19
2.63433	18
2.63800	18
2.64167	18
2.64533	18
2.64900	18
2.65267	19
2.65633	19
2.66000	19
2.66367	20
2.66733	20
2.67100	20
2.67467	21
2.67833	21
2.68200	22
2.68567	22
2.68933	22
2.69300	23
2.69667	23
2.70033	24
2.70400	24
2.70767	25
2.71133	25
2.71500	26
2.71867	26
2.72233	26
2.72600	26
2.72967	26
2.73333	26
2.73700	26
2.74067	26
2.74433	26
2.74800	26
2.75167	26
2.75533	26
2.75900	26
2.76267	26
2.76633	27
2.77000	27
2.77367	28
2.77733	28
2.78100	28
2.78467	29
2.78833	29
2.79200	29
2.79567	29
2.79933	29
2.80300	29
2.80667	28
2.81033	28
2.81400	28
2.81767	28
2.82133	28
2.82500	28
2.82867	27
2.83233	27
2.83600	27
2.83967	27
2.84333	27
2.84700	26
2.85067	26
2.85433	25
2.85800	23
2.86167	20
2.86533	14
2.86900	6
2.87267	-7
2.87633	-24
2.88000	-45
2.88367	-73
2.88733	-106
2.89100	-144
2.89467	-187
2.89833	-236
2.90200	-289
2.90567	-345
2.90933	-405
2.91300	-467
2.91667	-532
2.92033	-597
2.92400	-662
2.92767	-726
2.93133	-788
2.93500	-846
2.93867	-902
2.94233	-956
2.94600	-1012
2.94967	-1064
2.95333	-1103
2.95700	-1122
2.96067	-1115
2.96433	-1084
2.96800	-1032
2.97167	-965
2.97533	-888
2.97900	-807
2.98267	-725
2.98633	-645
2.99000	-569
2.99367	-499
2.99733	-435
3.00100	-376
3.00467	-324
3.00833	-278
3.01200	-238
3.01567	-202
3.01933	-171
3.02300	-145
3.02667	-121
3.03033	-102
3.03400	-85
3.03767	-70
3.04133	-57
3.04500	-47
3.04867	-38
3.05233	-30
3.05600	-23
3.05967	-17
3.06333	-12
3.06700	-8
3.07067	-4
3.07433	-1
3.07800	2
3.08167	4
3.08533	6
3.08900	8
3.09267	9
3.09633	11
3.10000	12
3.10367	13
3.10733	13
3.11100	14
3.11467	15
3.11833	15
3.12200	16
3.12567	16
3.12933	17
3.13300	17
3.13667	18
3.14033	18
3.14400	19
3.14767	19
3.15133	19
3.15500	20
3.15867	20
3.16233	20
3.16600	20
3.16967	21
3.17333	21
3.17700	21
3.18067	21
3.18433	22
3.18800	22
3.19167	22
3.19533	22
3.19900	22
3.20267	22
3.20633	22
3.21000	22
3.21367	23
3.21733	23
3.22100	23
3.22467	23
3.22833	24
3.23200	24
3.23567	24
3.23933	24
3.24300	24
3.24667	24
3.25033	24
3.25400	24
3.25767	24
3.26133	25
3.26500	25
3.26867	25
3.27233	26
3.27600	26
3.27967	27
3.28333	27
3.28700	27
3.29067	28
3.29433	28
3.29800	28
3.30167	28
3.30533	28
3.30900	28
3.31267	28
3.31633	28
3.32000	28
3.32367	29
3.32733	29
3.33100	29
3.33467	29
3.33833	28
3.34200	28
3.34567	28
3.34933	28
3.35300	28
3.35667	29
3.36033	29
3.36400	29
3.36767	29
3.37133	29
3.37500	29
3.37867	29
3.38233	30
3.38600	30
3.38967	30
3.39333	30
3.39700	30
3.40067	30
3.40433	30
3.40800	30
3.41167	30
3.41533	30
3.41900	30
3.42267	30
3.42633	30
3.43000	30
3.43367	30
3.43733	30
3.44100	30
3.44467	30
3.44833	29
3.45200	29
3.45567	29
3.45933	29
3.46300	29
3.46667	29
3.47033	29
3.47400	29
3.47767	29
3.48133	29
3.48500	29
3.48867	29
3.49233	29
3.49600	29
3.49967	29
3.50333	29
3.50700	29
3.51067	29
3.51433	29
3.51800	29
3.52167	29
3.52533	29
3.52900	30
3.53267	30
3.53633	29
3.54000	29
3.54367	29
3.54733	29
3.55100	29
3.55467	29
3.55833	28
3.56200	28
3.56567	28
3.56933	29
3.57300	29
3.57667	29
3.58033	29
3.58400	29
3.58767	29
3.59133	28
3.59500	28
3.59867	28
3.60233	29
3.60600	29
3.60967	29
3.61333	29
3.61700	29
3.62067	29
3.62433	29
3.62800	29
3.63167	29
3.63533	29
3.63900	29
3.64267	29
3.64633	29
3.65000	29
3.65367	29
3.65733	29
3.66100	29
3.66467	29
3.66833	30
3.67200	30
3.67567	30
3.67933	30
3.68300	30
3.68667	31
3.69033	31
3.69400	30
3.69767	30
3.70133	30
3.70500	30
3.70867	30
3.71233	30
3.71600	30
3.71967	30
3.72333	30
3.72700	30
3.73067	30
3.73433	30
3.73800	30
3.74167	29
3.74533	30
3.74900	30
3.75267	29
3.75633	29
3.76000	29
3.76367	29
3.76733	29
3.77100	29
3.77467	28
3.77833	28
3.78200	28
3.78567	28
3.78933	28
3.79300	28
3.79667	28
3.80033	28
3.80400	28
3.80767	29
3.81133	29
3.81500	29
3.81867	29
3.82233	29
3.82600	29
3.82967	29
3.83333	29
3.83700	29
3.84067	29
3.84433	30
3.84800	30
3.85167	30
3.85533	30
3.85900	30
3.86267	30
3.86633	30
3.87000	29
3.87367	29
3.87733	30
3.88100	30
3.88467	30
3.88833	30
3.89200	30
3.89567	30
3.89933	30
3.90300	30
3.90667	30
3.91033	31
3.91400	30
3.91767	30
3.92133	30
3.92500	30
3.92867	30
3.93233	29
3.93600	29
3.93967	29
3.94333	29
3.94700	30
3.95067	30
3.95433	30
3.95800	30
3.96167	30
3.96533	30
3.96900	30
3.97267	30
3.97633	30
3.98000	30
3.98367	30
3.98733	30
3.99100	30
3.99467	30
3.99833	30

[Chromatogram (Ch3)]
Interval(msec)	220
# of Points	1091
Start Time(min)	0.002
End Time(min)	3.998
R.Time (min)	Intensity
0.00167	-0
0.00533	-1
0.00900	-2
0.01267	-0
0.01633	2
0.02000	3
0.02367	4
0.02733	9
0.03100	11
0.03467	10
0.03833	9
0.04200	11
0.04567	9
0.04933	8
0.05300	9
0.05667	9
0.06033	8
0.06400	8
0.06767	9
0.07133	9
0.07500	8
0.07867	10
0.08233	11
0.08600	9
0.08967	9
0.09333	10
0.09700	7
0.10067	6
0.10433	6
0.10800	7
0.11167	7
0.11533	7
0.11900	7
0.12267	6
0.12633	7
0.13000	9
0.13367	12
0.13733	12
0.14100	11
0.14467	11
0.14833	9
0.15200	7
0.15567	8
0.15933	7
0.16300	7
0.16667	10
0.17033	10
0.17400	9
0.17767	7
0.18133	6
0.18500	6
0.18867	5
0.19233	7
0.19600	11
0.19967	11
0.20333	10
0.20700	8
0.21067	5
0.21433	1
0.21800	0
0.22167	0
0.22533	-0
0.22900	0
0.23267	6
0.23633	9
0.24000	9
0.24367	12
0.24733	14
0.25100	13
0.25467	11
0.25833	11
0.26200	10
0.26567	9
0.26933	11
0.27300	11
0.27667	12
0.28033	11
0.28400	9
0.28767	8
0.29133	8
0.29500	8
0.29867	11
0.30233	13
0.30600	15
0.30967	14
0.31333	13
0.31700	14
0.32067	14
0.32433	14
0.32800	14
0.33167	12
0.33533	8
0.33900	7
0.34267	8
0.34633	7
0.35000	8
0.35367	9
0.35733	10
0.36100	11
0.36467	12
0.36833	11
0.37200	13
0.37567	14
0.37933	13
0.38300	12
0.38667	13
0.39033	11
0.39400	10
0.39767	8
0.40133	9
0.40500	10
0.40867	9
0.41233	7
0.41600	6
0.41967	5
0.42333	8
0.42700	10
0.43067	9
0.43433	9
0.43800	11
0.44167	11
0.44533	9
0.44900	10
0.45267	8
0.45633	5
0.46000	4
0.46367	3
0.46733	1
0.47100	1
0.47467	1
0.47833	0
0.48200	0
0.48567	2
0.48933	2
0.49300	4
0.49667	8
0.50033	10
0.50400	10
0.50767	8
0.51133	9
0.51500	9
0.51867	7
0.52233	5
0.52600	2
0.52967	0
0.53333	1
0.53700	3
0.54067	5
0.54433	8
0.54800	10
0.55167	9
0.55533	9
0.55900	11
0.56267	12
0.56633	11
0.57000	9
0.57367	7
0.57733	7
0.58100	7
0.58467	8
0.58833	9
0.59200	11
0.59567	10
0.59933	11
0.60300	11
0.60667	9
0.61033	6
0.61400	6
0.61767	5
0.62133	7
0.62500	9
0.62867	10
0.63233	10
0.63600	11
0.63967	14
0.64333	17
0.64700	17
0.65067	13
0.65433	12
0.65800	14
0.66167	16
0.66533	17
0.66900	15
0.67267	16
0.67633	17
0.68000	16
0.68367	16
0.68733	15
0.69100	14
0.69467	12
0.69833	12
0.70200	13
0.70567	13
0.70933	9
0.71300	10
0.71667	12
0.72033	14
0.72400	14
0.72767	16
0.73133	18
0.73500	18
0.73867	16
0.74233	13
0.74600	14
0.74967	15
0.75333	14
0.75700	14
0.76067	17
0.76433	18
0.76800	18
0.77167	16
0.77533	16
0.77900	16
0.78267	14
0.78633	12
0.79000	14
0.79367	17
0.79733	19
0.80100	18
0.80467	15
0.80833	13
0.81200	12
0.81567	11
0.81933	13
0.82300	16
0.82667	18
0.83033	16
0.83400	14
0.83767	12
0.84133	10
0.84500	11
0.84867	13
0.85233	14
0.85600	15
0.85967	14
0.86333	13
0.86700	13
0.87067	13
0.87433	12
0.87800	10
0.88167	11
0.88533	12
0.88900	13
0.89267	12
0.89633	10
0.90000	10
0.90367	12
0.90733	15
0.91100	18
0.91467	18
0.91833	17
0.92200	15
0.92567	13
0.92933	12
0.93300	11
0.93667	8
0.94033	6
0.94400	5
0.94767	5
0.95133	8
0.95500	8
0.95867	8
0.96233	7
0.96600	7
0.96967	4
0.97333	2
0.97700	2
0.98067	2
0.98433	4
0.98800	7
0.99167	7
0.99533	7
0.99900	7
1.00267	6
1.00633	6
1.01000	4
1.01367	3
1.01733	1
1.02100	2
1.02467	2
1.02833	2
1.03200	3
1.03567	6
1.03933	7
1.04300	7
1.04667	7
1.05033	8
1.05400	7
1.05767	8
1.06133	11
1.06500	9
1.06867	9
1.07233	12
1.07600	11
1.07967	10
1.08333	11
1.08700	10
1.09067	12
1.09433	13
1.09800	13
1.10167	12
1.10533	11
1.10900	8
1.11267	8
1.11633	6
1.12000	4
1.12367	4
1.12733	5
1.13100	5
1.13467	6
1.13833	9
1.14200	9
1.14567	7
1.14933	9
1.15300	12
1.15667	14
1.16033	13
1.16400	10
1.16767	9
1.17133	7
1.17500	7
1.17867	5
1.18233	4
1.18600	3
1.18967	4
1.19333	3
1.19700	3
1.20067	3
1.20433	4
1.20800	3
1.21167	4
1.21533	6
1.21900	4
1.22267	0
1.22633	-2
1.23000	-0
1.23367	5
1.23733	9
1.24100	9
1.24467	7
1.24833	6
1.25200	6
1.25567	7
1.25933	10
1.26300	12
1.26667	11
1.27033	10
1.27400	10
1.27767	10
1.28133	9
1.28500	9
1.28867	8
1.29233	8
1.29600	8
1.29967	8
1.30333	6
1.30700	5
1.31067	4
1.31433	4
1.31800	3
1.32167	5
1.32533	7
1.32900	9
1.33267	9
1.33633	11
1.34000	14
1.34367	13
1.34733	9
1.35100	9
1.35467	12
1.35833	11
1.36200	9
1.36567	10
1.36933	12
1.37300	13
1.37667	13
1.38033	15
1.38400	15
1.38767	13
1.39133	12
1.39500	10
1.39867	9
1.40233	9
1.40600	10
1.40967	13
1.41333	14
1.41700	13
1.42067	11
1.42433	10
1.42800	10
1.43167	10
1.43533	12
1.43900	15
1.44267	17
1.44633	15
1.45000	13
1.45367	11
1.45733	9
1.46100	8
1.46467	9
1.46833	11
1.47200	14
1.47567	14
1.47933	15
1.48300	17
1.48667	17
1.49033	14
1.49400	14
1.49767	15
1.50133	13
1.50500	9
1.50867	10
1.51233	12
1.51600	14
1.51967	20
1.52333	22
1.52700	21
1.53067	20
1.53433	19
1.53800	17
1.54167	15
1.54533	16
1.54900	17
1.55267	15
1.55633	13
1.56000	14
1.56367	16
1.56733	16
1.57100	14
1.57467	12
1.57833	11
1.58200	10
1.58567	9
1.58933	9
1.59300	8
1.59667	7
1.60033	8
1.60400	10
1.60767	9
1.61133	8
1.61500	11
1.61867	15
1.62233	15
1.62600	12
1.62967	10
1.63333	11
1.63700	12
1.64067	15
1.64433	16
1.64800	19
1.65167	21
1.65533	21
1.65900	21
1.66267	21
1.66633	21
1.67000	23
1.67367	21
1.67733	19
1.68100	20
1.68467	22
1.68833	24
1.69200	26
1.69567	25
1.69933	20
1.70300	18
1.70667	16
1.71033	13
1.71400	12
1.71767	13
1.72133	14
1.72500	14
1.72867	15
1.73233	13
1.73600	11
1.73967	10
1.74333	8
1.74700	8
1.75067	11
1.75433	14
1.75800	16
1.76167	18
1.76533	18
1.76900	18
1.77267	17
1.77633	17
1.78000	19
1.78367	20
1.78733	18
1.79100	18
1.79467	20
1.79833	21
1.80200	20
1.80567	18
1.80933	19
1.81300	19
1.81667	20
1.82033	21
1.82400	24
1.82767	26
1.83133	27
1.83500	27
1.83867	27
1.84233	27
1.84600	27
1.84967	28
1.85333	25
1.85700	23
1.86067	25
1.86433	26
1.86800	28
1.87167	30
1.87533	35
1.87900	37
1.88267	38
1.88633	36
1.89000	31
1.89367	27
1.89733	26
1.90100	27
1.90467	29
1.90833	30
1.91200	29
1.91567	28
1.91933	29
1.92300	32
1.92667	35
1.93033	39
1.93400	40
1.93767	39
1.94133	38
1.94500	35
1.94867	33
1.95233	33
1.95600	33
1.95967	35
1.96333	36
1.96700	36
1.97067	34
1.97433	35
1.97800	36
1.98167	38
1.98533	40
1.98900	42
1.99267	40
1.99633	39
2.00000	38
2.00367	38
2.00733	39
2.01100	40
2.01467	41
2.01833	42
2.02200	43
2.02567	46
2.02933	49
2.03300	51
2.03667	53
2.04033	53
2.04400	53
2.04767	51
2.05133	52
2.05500	52
2.05867	52
2.06233	51
2.06600	52
2.06967	56
2.07333	57
2.07700	58
2.08067	59
2.08433	59
2.08800	58
2.09167	59
2.09533	60
2.09900	61
2.10267	62
2.10633	63
2.11000	61
2.11367	60
2.11733	59
2.12100	59
2.12467	61
2.12833	64
2.13200	67
2.13567	69
2.13933	71
2.14300	73
2.14667	72
2.15033	72
2.15400	72
2.15767	75
2.16133	79
2.16500	81
2.16867	79
2.17233	77
2.17600	77
2.17967	78
2.18333	77
2.18700	75
2.19067	77
2.19433	79
2.19800	82
2.20167	82
2.20533	82
2.20900	82
2.21267	85
2.21633	87
2.22000	87
2.22367	88
2.22733	89
2.23100	88
2.23467	84
2.23833	81
2.24200	82
2.24567	86
2.24933	91
2.25300	97
2.25667	99
2.26033	101
2.26400	103
2.26767	106
2.27133	105
2.27500	105
2.27867	105
2.28233	104
2.28600	104
2.28967	104
2.29333	104
2.29700	103
2.30067	103
2.30433	102
2.30800	102
2.31167	100
2.31533	98
2.31900	98
2.32267	102
2.32633	107
2.33000	111
2.33367	111
2.33733	109
2.34100	109
2.34467	109
2.34833	111
2.35200	113
2.35567	113
2.35933	112
2.36300	110
2.36667	108
2.37033	107
2.37400	109
2.37767	111
2.38133	109
2.38500	106
2.38867	101
2.39233	99
2.39600	103
2.39967	110
2.40333	118
2.40700	124
2.41067	131
2.41433	133
2.41800	136
2.42167	135
2.42533	132
2.42900	131
2.43267	131
2.43633	130
2.44000	133
2.44367	179
2.44733	264
2.45100	338
2.45467	389
2.45833	411
2.46200	402
2.46567	381
2.46933	360
2.47300	346
2.47667	334
2.48033	319
2.48400	296
2.48767	270
2.49133	245
2.49500	225
2.49867	210
2.50233	201
2.50600	200
2.50967	203
2.51333	207
2.51700	212
2.52067	219
2.52433	220
2.52800	215
2.53167	206
2.53533	194
2.53900	181
2.54267	168
2.54633	155
2.55000	144
2.55367	133
2.55733	126
2.56100	119
2.56467	113
2.56833	112
2.57200	113
2.57567	114
2.57933	113
2.58300	115
2.58667	118
2.59033	121
2.59400	127
2.59767	136
2.60133	146
2.60500	156
2.60867	162
2.61233	166
2.61600	168
2.61967	172
2.62333	173
2.62700	173
2.63067	169
2.63433	164
2.63800	158
2.64167	149
2.64533	139
2.64900	130
2.65267	119
2.65633	105
2.66000	94
2.66367	86
2.66733	81
2.67100	76
2.67467	72
2.67833	67
2.68200	63
2.68567	61
2.68933	62
2.69300	62
2.69667	58
2.70033	53
2.70400	50
2.70767	48
2.71133	47
2.71500	46
2.71867	46
2.72233	44
2.72600	43
2.72967	42
2.73333	42
2.73700	42
2.74067	42
2.74433	40
2.74800	39
2.75167	40
2.75533	44
2.75900	48
2.76267	51
2.76633	55
2.77000	59
2.77367	62
2.77733	65
2.78100	67
2.78467	69
2.78833	70
2.79200	73
2.79567	76
2.79933	80
2.80300	83
2.80667	84
2.81033	87
2.81400	92
2.81767	95
2.82133	96
2.82500	97
2.82867	99
2.83233	102
2.83600	112
2.83967	134
2.84333	179
2.84700	264
2.85067	408
2.85433	629
2.85800	937
2.86167	1331
2.86533	1793
2.86900	2293
2.87267	2793
2.87633	3250
2.88000	3624
2.88367	3888
2.88733	4030
2.89100	4052
2.89467	3966
2.89833	3791
2.90200	3552
2.90567	3279
2.90933	2987
2.91300	2692
2.91667	2403
2.92033	2132
2.92400	1883
2.92767	1656
2.93133	1451
2.93500	1268
2.93867	1107
2.94233	966
2.94600	844
2.94967	739
2.95333	645
2.95700	562
2.96067	489
2.96433	430
2.96800	377
2.97167	330
2.97533	292
2.97900	260
2.98267	233
2.98633	208
2.99000	188
2.99367	169
2.99733	154
3.00100	142
3.00467	129
3.00833	118
3.01200	112
3.01567	107
3.01933	103
3.02300	99
3.02667	97
3.03033	92
3.03400	87
3.03767	81
3.04133	78
3.04500	81
3.04867	83
3.05233	84
3.05600	83
3.05967	84
3.06333	85
3.06700	83
3.07067	80
3.07433	80
3.07800	82
3.08167	83
3.08533	83
3.08900	72
3.09267	53
3.09633	46
3.10000	80
3.10367	150
3.10733	240
3.11100	338
3.11467	435
3.11833	532
3.12200	624
3.12567	708
3.12933	782
3.13300	844
3.13667	897
3.14033	938
3.14400	971
3.14767	998
3.15133	1018
3.15500	1034
3.15867	1048
3.16233	1060
3.16600	1068
3.16967	1075
3.17333	1076
3.17700	1076
3.18067	1076
3.18433	1078
3.18800	1079
3.19167	1078
3.19533	1074
3.19900	1069
3.20267	1067
3.20633	1067
3.21000	1065
3.21367	1065
3.21733	1066
3.22100	1064
3.22467	1062
3.22833	1062
3.23200	1061
3.23567	1060
3.23933	1058
3.24300	1057
3.24667	1054
3.25033	1049
3.25400	1046
3.25767	1043
3.26133	1039
3.26500	1036
3.26867	1033
3.27233	1028
3.27600	1022
3.27967	1019
3.28333	1017
3.28700	1016
3.29067	1013
3.29433	1008
3.29800	1000
3.30167	994
3.30533	989
3.30900	985
3.31267	981
3.31633	975
3.32000	968
3.32367	964
3.32733	958
3.33100	953
3.33467	950
3.33833	945
3.34200	939
3.34567	934
3.34933	930
3.35300	925
3.35667	920
3.36033	915
3.36400	911
3.36767	906
3.37133	904
3.37500	900
3.37867	896
3.38233	892
3.38600	889
3.38967	888
3.39333	887
3.39700	887
3.40067	882
3.40433	878
3.40800	877
3.41167	875
3.41533	871
3.41900	867
3.42267	863
3.42633	861
3.43000	860
3.43367	858
3.43733	856
3.44100	855
3.44467	857
3.44833	858
3.45200	859
3.45567	862
3.45933	861
3.46300	858
3.46667	855
3.47033	855
3.47400	855
3.47767	853
3.48133	851
3.48500	850
3.48867	850
3.49233	850
3.49600	846
3.49967	845
3.50333	845
3.50700	845
3.51067	846
3.51433	848
3.51800	849
3.52167	850
3.52533	851
3.52900	851
3.53267	852
3.53633	854
3.54000	856
3.54367	859
3.54733	860
3.55100	860
3.55467	862
3.55833	863
3.56200	864
3.56567	865
3.56933	866
3.57300	866
3.57667	867
3.58033	867
3.58400	868
3.58767	869
3.59133	870
3.59500	869
3.59867	867
3.60233	866
3.60600	864
3.60967	863
3.61333	860
3.61700	857
3.62067	852
3.62433	849
3.62800	846
3.63167	839
3.63533	834
3.63900	828
3.64267	822
3.64633	818
3.65000	816
3.65367	811
3.65733	809
3.66100	808
3.66467	805
3.66833	799
3.67200	792
3.67567	785
3.67933	779
3.68300	774
3.68667	770
3.69033	767
3.69400	763
3.69767	760
3.70133	756
3.70500	751
3.70867	747
3.71233	743
3.71600	739
3.71967	736
3.72333	733
3.72700	731
3.73067	729
3.73433	726
3.73800	724
3.74167	721
3.74533	719
3.74900	716
3.75267	709
3.75633	706
3.76000	703
3.76367	703
3.76733	702
3.77100	701
3.77467	699
3.77833	698
3.78200	697
3.78567	695
3.78933	693
3.79300	690
3.79667	688
3.80033	688
3.80400	687
3.80767	686
3.81133	685
3.81500	683
3.81867	683
3.82233	681
3.82600	680
3.82967	680
3.83333	677
3.83700	675
3.84067	674
3.84433	673
3.84800	670
3.85167	667
3.85533	666
3.85900	665
3.86267	664
3.86633	662
3.87000	661
3.87367	661
3.87733	658
3.88100	657
3.88467	656
3.88833	656
3.89200	655
3.89567	653
3.89933	653
3.90300	651
3.90667	647
3.91033	646
3.91400	646
3.91767	648
3.92133	646
3.92500	643
3.92867	642
3.93233	639
3.93600	637
3.93967	635
3.94333	633
3.94700	630
3.95067	630
3.95433	630
3.95800	631
3.96167	631
3.96533	631
3.96900	628
3.97267	626
3.97633	623
3.98000	622
3.98367	620
3.98733	618
3.99100	616
3.99467	615
3.99833	611

[Status Trace (Column Oven Temperature)]
Interval(msec)	1000
# of Points	240
Start Time(min)	0.011
End Time(min)	3.994
Intensity Units	
Intensity Multiplier	1
R.Time (min)	Intensity
0.01067	35.05
0.02733	35.06
0.04400	35.06
0.06067	35.05
0.07733	35.06
0.09400	35.06
0.11067	35.06
0.12733	35.06
0.14400	35.07
0.16067	35.06
0.17733	35.06
0.19400	35.06
0.21067	35.05
0.22733	35.03
0.24400	35.03
0.26067	35.02
0.27733	35.02
0.29400	35.01
0.31067	35.01
0.32733	35.00
0.34400	35.00
0.36067	34.99
0.37733	34.99
0.39400	35.01
0.41067	35.03
0.42733	35.01
0.44400	35.01
0.46067	35.01
0.47733	35.00
0.49400	35.00
0.51067	35.00
0.52733	35.00
0.54400	35.00
0.56067	34.99
0.57733	35.00
0.59400	35.00
0.61067	34.99
0.62733	34.98
0.64400	34.99
0.66067	34.99
0.67733	34.99
0.69400	35.00
0.71067	35.01
0.72733	35.01
0.74400	35.01
0.76067	35.04
0.77733	35.03
0.79400	35.03
0.81067	35.01
0.82733	35.00
0.84400	34.99
0.86067	34.99
0.87733	35.00
0.89400	35.00
0.91067	34.99
0.92733	34.98
0.94400	34.97
0.96067	34.97
0.97733	34.97
0.99400	34.97
1.01067	34.98
1.02733	34.99
1.04400	34.99
1.06067	34.99
1.07733	34.99
1.09400	34.99
1.11067	34.99
1.12733	34.99
1.14400	34.99
1.16067	34.98
1.17733	34.97
1.19400	34.98
1.21067	34.98
1.22733	34.98
1.24400	34.98
1.26067	34.99
1.27733	34.99
1.29400	35.00
1.31067	35.00
1.32733	34.99
1.34400	34.99
1.36067	34.99
1.37733	34.99
1.39400	34.99
1.41067	34.98
1.42733	34.98
1.44400	34.97
1.46067	34.97
1.47733	34.98
1.49400	34.99
1.51067	34.99
1.52733	34.98
1.54400	34.98
1.56067	34.98
1.57733	34.98
1.59400	35.00
1.61067	35.08
1.62733	35.22
1.64400	35.42
1.66067	35.67
1.67733	36.03
1.69400	36.39
1.71067	36.73
1.72733	37.08
1.74400	37.42
1.76067	37.74
1.77733	38.04
1.79400	38.39
1.81067	38.71
1.82733	39.05
1.84400	39.38
1.86067	39.71
1.87733	40.04
1.89400	40.38
1.91067	40.72
1.92733	41.03
1.94400	41.37
1.96067	41.69
1.97733	42.00
1.99400	42.34
2.01067	42.67
2.02733	43.02
2.04400	43.35
2.06067	43.65
2.07733	43.99
2.09400	44.30
2.11067	44.63
2.12733	44.96
2.14400	45.30
2.16067	45.61
2.17733	45.96
2.19400	46.27
2.21067	46.60
2.22733	46.92
2.24400	47.27
2.26067	47.60
2.27733	47.93
2.29400	48.26
2.31067	48.58
2.32733	48.92
2.34400	49.23
2.36067	49.49
2.37733	49.65
2.39400	49.69
2.41067	49.67
2.42733	49.71
2.44400	49.72
2.46067	49.72
2.47733	49.73
2.49400	49.75
2.51067	49.74
2.52733	49.77
2.54400	49.78
2.56067	49.81
2.57733	49.82
2.59400	49.81
2.61067	49.82
2.62733	49.83
2.64400	49.84
2.66067	49.85
2.67733	49.86
2.69400	49.85
2.71067	49.84
2.72733	49.86
2.74400	49.87
2.76067	49.86
2.77733	49.86
2.79400	49.87
2.81067	49.87
2.82733	49.87
2.84400	49.89
2.86067	49.91
2.87733	49.93
2.89400	49.94
2.91067	49.95
2.92733	49.96
2.94400	49.98
2.96067	50.00
2.97733	50.01
2.99400	50.02
3.01067	50.03
3.02733	50.04
3.04400	50.04
3.06067	50.04
3.07733	50.05
3.09400	50.05
3.11067	50.05
3.12733	50.06
3.14400	50.07
3.16067	50.08
3.17733	50.08
3.19400	50.08
3.21067	50.09
3.22733	50.10
3.24400	50.10
3.26067	50.10
3.27733	50.10
3.29400	50.09
3.31067	50.08
3.32733	50.08
3.34400	50.08
3.36067	50.06
3.37733	50.06
3.39400	50.05
3.41067	50.04
3.42733	50.04
3.44400	50.04
3.46067	50.03
3.47733	50.03
3.49400	50.04
3.51067	50.04
3.52733	50.05
3.54400	50.05
3.56067	50.06
3.57733	50.06
3.59400	50.06
3.61067	50.06
3.62733	50.07
3.64400	50.07
3.66067	50.07
3.67733	50.06
3.69400	50.06
3.71067	50.07
3.72733	50.06
3.74400	50.06
3.76067	50.07
3.77733	50.07
3.79400	50.08
3.81067	50.07
3.82733	50.07
3.84400	50.08
3.86067	50.08
3.87733	50.07
3.89400	50.07
3.91067	50.06
3.92733	50.07
3.94400	50.07
3.96067	50.06
3.97733	50.07
3.99400	50.06

[Status Trace (Injection Unit Temperature)]
Interval(msec)	1000
# of Points	240
Start Time(min)	0.011
End Time(min)	3.994
Intensity Units	
Intensity Multiplier	1
R.Time (min)	Intensity
0.01067	99.98
0.02733	99.98
0.04400	99.98
0.06067	99.98
0.07733	99.98
0.09400	99.98
0.11067	99.98
0.12733	99.98
0.14400	99.98
0.16067	99.98
0.17733	99.97
0.19400	99.98
0.21067	99.98
0.22733	99.98
0.24400	99.98
0.26067	99.98
0.27733	99.98
0.29400	99.98
0.31067	99.98
0.32733	99.98
0.34400	99.98
0.36067	99.98
0.37733	99.98
0.39400	99.98
0.41067	99.97
0.42733	99.97
0.44400	99.98
0.46067	99.98
0.47733	99.98
0.49400	99.97
0.51067	99.98
0.52733	99.98
0.54400	99.97
0.56067	99.98
0.57733	99.97
0.59400	99.98
0.61067	99.97
0.62733	99.98
0.64400	99.97
0.66067	99.97
0.67733	99.97
0.69400	99.97
0.71067	99.97
0.72733	99.97
0.74400	99.97
0.76067	99.97
0.77733	99.98
0.79400	99.98
0.81067	99.97
0.82733	99.98
0.84400	99.98
0.86067	99.98
0.87733	99.98
0.89400	99.97
0.91067	99.98
0.92733	99.98
0.94400	99.98
0.96067	99.98
0.97733	99.98
0.99400	99.98
1.01067	99.98
1.02733	99.98
1.04400	99.98
1.06067	99.98
1.07733	99.98
1.09400	99.98
1.11067	99.98
1.12733	99.98
1.14400	99.98
1.16067	99.98
1.17733	99.98
1.19400	99.98
1.21067	99.99
1.22733	99.98
1.24400	99.98
1.26067	99.98
1.27733	99.99
1.29400	99.98
1.31067	99.98
1.32733	99.98
1.34400	99.98
1.36067	99.98
1.37733	99.98
1.39400	99.98
1.41067	99.98
1.42733	99.98
1.44400	99.98
1.46067	99.98
1.47733	99.98
1.49400	99.98
1.51067	99.98
1.52733	99.98
1.54400	99.98
1.56067	99.98
1.57733	99.98
1.59400	99.98
1.61067	99.98
1.62733	99.98
1.64400	99.98
1.66067	99.98
1.67733	99.98
1.69400	99.98
1.71067	99.98
1.72733	99.98
1.74400	99.98
1.76067	99.98
1.77733	99.98
1.79400	99.98
1.81067	99.98
1.82733	99.97
1.84400	99.97
1.86067	99.97
1.87733	99.98
1.89400	99.97
1.91067	99.98
1.92733	99.97
1.94400	99.97
1.96067	99.97
1.97733	99.97
1.99400	99.97
2.01067	99.97
2.02733	99.97
2.04400	99.97
2.06067	99.97
2.07733	99.97
2.09400	99.96
2.11067	99.96
2.12733	99.96
2.14400	99.96
2.16067	99.96
2.17733	99.96
2.19400	99.96
2.21067	99.96
2.22733	99.96
2.24400	99.96
2.26067	99.96
2.27733	99.95
2.29400	99.95
2.31067	99.96
2.32733	99.95
2.34400	99.95
2.36067	99.96
2.37733	99.95
2.39400	99.95
2.41067	99.96
2.42733	99.95
2.44400	99.96
2.46067	99.96
2.47733	99.96
2.49400	99.96
2.51067	99.96
2.52733	99.96
2.54400	99.96
2.56067	99.96
2.57733	99.97
2.59400	99.97
2.61067	99.97
2.62733	99.97
2.64400	99.97
2.66067	99.97
2.67733	99.98
2.69400	99.98
2.71067	99.98
2.72733	99.98
2.74400	99.98
2.76067	99.98
2.77733	99.98
2.79400	99.99
2.81067	99.99
2.82733	99.99
2.84400	99.99
2.86067	99.99
2.87733	99.99
2.89400	99.99
2.91067	99.99
2.92733	100.00
2.94400	99.99
2.96067	100.00
2.97733	100.01
2.99400	100.00
3.01067	100.00
3.02733	100.00
3.04400	100.01
3.06067	100.01
3.07733	100.00
3.09400	100.01
3.11067	100.01
3.12733	100.01
3.14400	100.01
3.16067	100.01
3.17733	100.01
3.19400	100.02
3.21067	100.01
3.22733	100.02
3.24400	100.02
3.26067	100.02
3.27733	100.02
3.29400	100.02
3.31067	100.02
3.32733	100.02
3.34400	100.02
3.36067	100.02
3.37733	100.02
3.39400	100.03
3.41067	100.03
3.42733	100.02
3.44400	100.03
3.46067	100.03
3.47733	100.03
3.49400	100.03
3.51067	100.03
3.52733	100.03
3.54400	100.04
3.56067	100.03
3.57733	100.04
3.59400	100.04
3.61067	100.04
3.62733	100.04
3.64400	100.04
3.66067	100.04
3.67733	100.04
3.69400	100.04
3.71067	100.04
3.72733	100.04
3.74400	100.05
3.76067	100.04
3.77733	100.05
3.79400	100.05
3.81067	100.05
3.82733	100.05
3.84400	100.05
3.86067	100.05
3.87733	100.05
3.89400	100.05
3.91067	100.05
3.92733	100.05
3.94400	100.05
3.96067	100.05
3.97733	100.05
3.99400	100.05

[Status Trace (Carrier Gas Pressure)]
Interval(msec)	1000
# of Points	240
Start Time(min)	0.011
End Time(min)	3.994
Intensity Units	
Intensity Multiplier	1
R.Time (min)	Intensity
0.01067	58.00
0.02733	55.00
0.04400	57.39
0.06067	59.52
0.07733	59.14
0.09400	58.03
0.11067	57.99
0.12733	58.01
0.14400	58.01
0.16067	58.01
0.17733	58.00
0.19400	58.00
0.21067	58.00
0.22733	58.00
0.24400	58.00
0.26067	58.00
0.27733	58.00
0.29400	58.00
0.31067	58.00
0.32733	58.00
0.34400	58.00
0.36067	58.00
0.37733	58.00
0.39400	58.00
0.41067	58.00
0.42733	58.00
0.44400	58.00
0.46067	58.00
0.47733	58.00
0.49400	58.00
0.51067	58.00
0.52733	58.00
0.54400	58.00
0.56067	58.00
0.57733	58.00
0.59400	58.00
0.61067	58.00
0.62733	58.00
0.64400	58.00
0.66067	58.00
0.67733	58.00
0.69400	58.00
0.71067	58.00
0.72733	58.00
0.74400	58.00
0.76067	58.00
0.77733	58.00
0.79400	58.00
0.81067	58.00
0.82733	58.00
0.84400	58.00
0.86067	58.00
0.87733	58.00
0.89400	58.00
0.91067	58.00
0.92733	58.00
0.94400	58.00
0.96067	58.00
0.97733	58.00
0.99400	58.00
1.01067	58.00
1.02733	58.00
1.04400	58.00
1.06067	58.00
1.07733	58.00
1.09400	58.00
1.11067	58.00
1.12733	58.00
1.14400	58.00
1.16067	58.00
1.17733	58.00
1.19400	58.00
1.21067	58.00
1.22733	58.00
1.24400	58.00
1.26067	58.00
1.27733	58.00
1.29400	58.00
1.31067	58.00
1.32733	58.00
1.34400	58.00
1.36067	58.00
1.37733	58.00
1.39400	58.00
1.41067	58.00
1.42733	58.00
1.44400	58.00
1.46067	58.00
1.47733	58.00
1.49400	58.00
1.51067	58.00
1.52733	58.00
1.54400	58.00
1.56067	58.00
1.57733	58.00
1.59400	58.00
1.61067	58.00
1.62733	58.01
1.64400	58.01
1.66067	58.00
1.67733	58.01
1.69400	58.00
1.71067	58.00
1.72733	58.00
1.74400	58.00
1.76067	58.00
1.77733	58.00
1.79400	58.00
1.81067	58.00
1.82733	58.00
1.84400	58.00
1.86067	58.00
1.87733	58.00
1.89400	58.00
1.91067	58.00
1.92733	58.00
1.94400	58.00
1.96067	58.00
1.97733	58.00
1.99400	58.00
2.01067	58.00
2.02733	58.00
2.04400	58.00
2.06067	58.00
2.07733	58.00
2.09400	58.00
2.11067	58.00
2.12733	58.00
2.14400	58.00
2.16067	58.00
2.17733	58.00
2.19400	58.00
2.21067	58.00
2.22733	58.00
2.24400	58.00
2.26067	58.00
2.27733	58.00
2.29400	58.00
2.31067	58.00
2.32733	58.00
2.34400	58.00
2.36067	58.00
2.37733	58.00
2.39400	57.99
2.41067	57.99
2.42733	58.00
2.44400	58.00
2.46067	58.00
2.47733	58.00
2.49400	58.00
2.51067	57.99
2.52733	57.98
2.54400	58.00
2.56067	58.00
2.57733	58.00
2.59400	58.00
2.61067	58.00
2.62733	58.00
2.64400	58.00
2.66067	58.00
2.67733	58.00
2.69400	58.00
2.71067	58.00
2.72733	58.00
2.74400	58.00
2.76067	58.00
2.77733	58.00
2.79400	58.00
2.81067	58.00
2.82733	58.00
2.84400	58.00
2.86067	58.00
2.87733	58.00
2.89400	58.00
2.91067	58.00
2.92733	58.00
2.94400	58.00
2.96067	58.00
2.97733	58.00
2.99400	58.00
3.01067	58.00
3.02733	58.00
3.04400	58.00
3.06067	58.00
3.07733	58.00
3.09400	58.00
3.11067	58.00
3.12733	58.00
3.14400	58.00
3.16067	58.00
3.17733	58.00
3.19400	58.00
3.21067	58.00
3.22733	58.00
3.24400	58.00
3.26067	58.00
3.27733	58.00
3.29400	58.00
3.31067	58.00
3.32733	58.00
3.34400	58.00
3.36067	58.00
3.37733	58.00
3.39400	58.00
3.41067	58.00
3.42733	58.00
3.44400	58.00
3.46067	58.00
3.47733	58.00
3.49400	58.00
3.51067	58.00
3.52733	58.00
3.54400	58.00
3.56067	58.00
3.57733	58.00
3.59400	58.00
3.61067	58.00
3.62733	58.00
3.64400	58.00
3.66067	58.00
3.67733	58.00
3.69400	58.00
3.71067	58.00
3.72733	58.00
3.74400	58.00
3.76067	58.00
3.77733	58.00
3.79400	58.00
3.81067	58.00
3.82733	58.00
3.84400	58.00
3.86067	58.00
3.87733	58.00
3.89400	58.00
3.91067	58.00
3.92733	58.00
3.94400	58.00
3.96067	58.00
3.97733	58.00
3.99400	58.00

[Status Trace (Carrier Gas Flow)]
Interval(msec)	1000
# of Points	240
Start Time(min)	0.011
End Time(min)	3.994
Intensity Units	
Intensity Multiplier	1
R.Time (min)	Intensity
0.01067	34.52
0.02733	34.53
0.04400	34.55
0.06067	34.55
0.07733	34.50
0.09400	34.52
0.11067	34.52
0.12733	34.52
0.14400	34.52
0.16067	34.52
0.17733	34.52
0.19400	34.52
0.21067	34.52
0.22733	34.52
0.24400	34.52
0.26067	34.52
0.27733	34.52
0.29400	34.52
0.31067	34.52
0.32733	34.52
0.34400	34.52
0.36067	34.52
0.37733	34.52
0.39400	34.52
0.41067	34.52
0.42733	34.52
0.44400	34.52
0.46067	34.52
0.47733	34.52
0.49400	34.52
0.51067	34.52
0.52733	34.52
0.54400	34.52
0.56067	34.52
0.57733	34.52
0.59400	34.52
0.61067	34.53
0.62733	34.52
0.64400	34.52
0.66067	34.52
0.67733	34.52
0.69400	34.52
0.71067	34.52
0.72733	34.52
0.74400	34.52
0.76067	34.52
0.77733	34.52
0.79400	34.52
0.81067	34.51
0.82733	34.51
0.84400	34.52
0.86067	34.52
0.87733	34.52
0.89400	34.52
0.91067	34.52
0.92733	34.51
0.94400	34.52
0.96067	34.52
0.97733	34.52
0.99400	34.52
1.01067	34.52
1.02733	34.52
1.04400	34.51
1.06067	34.52
1.07733	34.52
1.09400	34.52
1.11067	34.52
1.12733	34.52
1.14400	34.52
1.16067	34.52
1.17733	34.52
1.19400	34.52
1.21067	34.52
1.22733	34.52
1.24400	34.52
1.26067	34.52
1.27733	34.52
1.29400	34.52
1.31067	34.52
1.32733	34.52
1.34400	34.51
1.36067	34.53
1.37733	34.52
1.39400	34.52
1.41067	34.52
1.42733	34.52
1.44400	34.52
1.46067	34.52
1.47733	34.52
1.49400	34.52
1.51067	34.52
1.52733	34.52
1.54400	34.52
1.56067	34.51
1.57733	34.52
1.59400	34.52
1.61067	34.52
1.62733	34.52
1.64400	34.52
1.66067	34.52
1.67733	34.52
1.69400	34.52
1.71067	34.52
1.72733	34.52
1.74400	34.52
1.76067	34.52
1.77733	34.52
1.79400	34.52
1.81067	34.52
1.82733	34.52
1.84400	34.52
1.86067	34.52
1.87733	34.52
1.89400	34.52
1.91067	34.52
1.92733	34.52
1.94400	34.53
1.96067	34.51
1.97733	34.52
1.99400	34.52
2.01067	34.52
2.02733	34.53
2.04400	34.52
2.06067	34.52
2.07733	34.53
2.09400	34.51
2.11067	34.51
2.12733	34.52
2.14400	34.52
2.16067	34.52
2.17733	34.52
2.19400	34.52
2.21067	34.52
2.22733	34.52
2.24400	34.52
2.26067	34.52
2.27733	34.51
2.29400	34.52
2.31067	34.52
2.32733	34.52
2.34400	34.52
2.36067	34.52
2.37733	34.52
2.39400	34.51
2.41067	34.52
2.42733	34.52
2.44400	34.52
2.46067	34.52
2.47733	34.51
2.49400	34.52
2.51067	34.51
2.52733	34.52
2.54400	34.52
2.56067	34.51
2.57733	34.52
2.59400	34.52
2.61067	34.52
2.62733	34.52
2.64400	34.52
2.66067	34.52
2.67733	34.52
2.69400	34.52
2.71067	34.52
2.72733	34.52
2.74400	34.52
2.76067	34.52
2.77733	34.52
2.79400	34.52
2.81067	34.51
2.82733	34.51
2.84400	34.52
2.86067	34.52
2.87733	34.51
2.89400	34.52
2.91067	34.52
2.92733	34.52
2.94400	34.52
2.96067	34.52
2.97733	34.52
2.99400	34.52
3.01067	34.52
3.02733	34.52
3.04400	34.52
3.06067	34.52
3.07733	34.52
3.09400	34.52
3.11067	34.52
3.12733	34.52
3.14400	34.52
3.16067	34.52
3.17733	34.52
3.19400	34.52
3.21067	34.52
3.22733	34.52
3.24400	34.52
3.26067	34.52
3.27733	34.52
3.29400	34.52
3.31067	34.52
3.32733	34.51
3.34400	34.52
3.36067	34.52
3.37733	34.52
3.39400	34.52
3.41067	34.52
3.42733	34.52
3.44400	34.52
3.46067	34.52
3.47733	34.52
3.49400	34.52
3.51067	34.52
3.52733	34.52
3.54400	34.51
3.56067	34.51
3.57733	34.51
3.59400	34.52
3.61067	34.52
3.62733	34.52
3.64400	34.52
3.66067	34.51
3.67733	34.52
3.69400	34.52
3.71067	34.52
3.72733	34.51
3.74400	34.52
3.76067	34.52
3.77733	34.52
3.79400	34.52
3.81067	34.52
3.82733	34.52
3.84400	34.52
3.86067	34.51
3.87733	34.53
3.89400	34.52
3.91067	34.52
3.92733	34.52
3.94400	34.51
3.96067	34.52
3.97733	34.52
3.99400	34.52

[Status Trace (Column Flow)]
Interval(msec)	1000
# of Points	240
Start Time(min)	0.011
End Time(min)	3.994
Intensity Units	
Intensity Multiplier	1
R.Time (min)	Intensity
0.01067	5.51
0.02733	5.16
0.04400	5.44
0.06067	5.69
0.07733	5.64
0.09400	5.51
0.11067	5.51
0.12733	5.51
0.14400	5.51
0.16067	5.51
0.17733	5.51
0.19400	5.51
0.21067	5.51
0.22733	5.51
0.24400	5.51
0.26067	5.51
0.27733	5.51
0.29400	5.51
0.31067	5.51
0.32733	5.51
0.34400	5.51
0.36067	5.51
0.37733	5.51
0.39400	5.51
0.41067	5.51
0.42733	5.51
0.44400	5.51
0.46067	5.51
0.47733	5.51
0.49400	5.51
0.51067	5.51
0.52733	5.51
0.54400	5.51
0.56067	5.51
0.57733	5.51
0.59400	5.51
0.61067	5.51
0.62733	5.51
0.64400	5.51
0.66067	5.51
0.67733	5.51
0.69400	5.51
0.71067	5.51
0.72733	5.51
0.74400	5.51
0.76067	5.51
0.77733	5.51
0.79400	5.51
0.81067	5.51
0.82733	5.51
0.84400	5.51
0.86067	5.51
0.87733	5.51
0.89400	5.51
0.91067	5.51
0.92733	5.51
0.94400	5.51
0.96067	5.51
0.97733	5.51
0.99400	5.51
1.01067	5.51
1.02733	5.51
1.04400	5.51
1.06067	5.51
1.07733	5.51
1.09400	5.51
1.11067	5.51
1.12733	5.51
1.14400	5.51
1.16067	5.51
1.17733	5.51
1.19400	5.51
1.21067	5.51
1.22733	5.51
1.24400	5.51
1.26067	5.51
1.27733	5.51
1.29400	5.51
1.31067	5.51
1.32733	5.51
1.34400	5.51
1.36067	5.51
1.37733	5.51
1.39400	5.51
1.41067	5.51
1.42733	5.51
1.44400	5.51
1.46067	5.51
1.47733	5.51
1.49400	5.51
1.51067	5.51
1.52733	5.51
1.54400	5.51
1.56067	5.51
1.57733	5.51
1.59400	5.51
1.61067	5.51
1.62733	5.51
1.64400	5.50
1.66067	5.49
1.67733	5.48
1.69400	5.47
1.71067	5.46
1.72733	5.45
1.74400	5.44
1.76067	5.43
1.77733	5.42
1.79400	5.41
1.81067	5.40
1.82733	5.39
1.84400	5.38
1.86067	5.37
1.87733	5.36
1.89400	5.35
1.91067	5.34
1.92733	5.33
1.94400	5.32
1.96067	5.31
1.97733	5.30
1.99400	5.29
2.01067	5.28
2.02733	5.27
2.04400	5.26
2.06067	5.25
2.07733	5.24
2.09400	5.23
2.11067	5.22
2.12733	5.21
2.14400	5.20
2.16067	5.19
2.17733	5.18
2.19400	5.18
2.21067	5.17
2.22733	5.16
2.24400	5.15
2.26067	5.14
2.27733	5.13
2.29400	5.12
2.31067	5.11
2.32733	5.10
2.34400	5.09
2.36067	5.08
2.37733	5.08
2.39400	5.08
2.41067	5.08
2.42733	5.08
2.44400	5.08
2.46067	5.08
2.47733	5.08
2.49400	5.08
2.51067	5.08
2.52733	5.08
2.54400	5.08
2.56067	5.08
2.57733	5.08
2.59400	5.08
2.61067	5.08
2.62733	5.08
2.64400	5.07
2.66067	5.07
2.67733	5.07
2.69400	5.07
2.71067	5.07
2.72733	5.07
2.74400	5.07
2.76067	5.07
2.77733	5.07
2.79400	5.07
2.81067	5.07
2.82733	5.07
2.84400	5.07
2.86067	5.07
2.87733	5.07
2.89400	5.07
2.91067	5.07
2.92733	5.07
2.94400	5.07
2.96067	5.07
2.97733	5.07
2.99400	5.07
3.01067	5.07
3.02733	5.07
3.04400	5.07
3.06067	5.07
3.07733	5.07
3.09400	5.07
3.11067	5.07
3.12733	5.07
3.14400	5.07
3.16067	5.07
3.17733	5.07
3.19400	5.07
3.21067	5.07
3.22733	5.07
3.24400	5.07
3.26067	5.07
3.27733	5.07
3.29400	5.07
3.31067	5.07
3.32733	5.07
3.34400	5.07
3.36067	5.07
3.37733	5.07
3.39400	5.07
3.41067	5.07
3.42733	5.07
3.44400	5.07
3.46067	5.07
3.47733	5.07
3.49400	5.07
3.51067	5.07
3.52733	5.07
3.54400	5.07
3.56067	5.07
3.57733	5.07
3.59400	5.07
3.61067	5.07
3.62733	5.07
3.64400	5.07
3.66067	5.07
3.67733	5.07
3.69400	5.07
3.71067	5.07
3.72733	5.07
3.74400	5.07
3.76067	5.07
3.77733	5.07
3.79400	5.07
3.81067	5.07
3.82733	5.07
3.84400	5.07
3.86067	5.07
3.87733	5.07
3.89400	5.07
3.91067	5.07
3.92733	5.07
3.94400	5.07
3.96067	5.07
3.97733	5.07
3.99400	5.07

[Status Trace (Linear Velocity)]
Interval(msec)	1000
# of Points	240
Start Time(min)	0.011
End Time(min)	3.994
Intensity Units	
Intensity Multiplier	1
R.Time (min)	Intensity
0.01067	39.01
0.02733	37.04
0.04400	38.61
0.06067	40.01
0.07733	39.76
0.09400	39.03
0.11067	39.00
0.12733	39.01
0.14400	39.01
0.16067	39.01
0.17733	39.01
0.19400	39.01
0.21067	39.01
0.22733	39.01
0.24400	39.01
0.26067	39.01
0.27733	39.01
0.29400	39.01
0.31067	39.02
0.32733	39.02
0.34400	39.01
0.36067	39.01
0.37733	39.01
0.39400	39.02
0.41067	39.01
0.42733	39.01
0.44400	39.01
0.46067	39.01
0.47733	39.01
0.49400	39.02
0.51067	39.01
0.52733	39.01
0.54400	39.01
0.56067	39.02
0.57733	39.02
0.59400	39.02
0.61067	39.01
0.62733	39.02
0.64400	39.02
0.66067	39.02
0.67733	39.02
0.69400	39.01
0.71067	39.01
0.72733	39.01
0.74400	39.01
0.76067	39.01
0.77733	39.01
0.79400	39.01
0.81067	39.01
0.82733	39.01
0.84400	39.02
0.86067	39.02
0.87733	39.01
0.89400	39.01
0.91067	39.02
0.92733	39.02
0.94400	39.02
0.96067	39.02
0.97733	39.02
0.99400	39.02
1.01067	39.02
1.02733	39.02
1.04400	39.02
1.06067	39.02
1.07733	39.02
1.09400	39.02
1.11067	39.02
1.12733	39.02
1.14400	39.02
1.16067	39.02
1.17733	39.02
1.19400	39.02
1.21067	39.02
1.22733	39.02
1.24400	39.02
1.26067	39.02
1.27733	39.02
1.29400	39.02
1.31067	39.01
1.32733	39.01
1.34400	39.02
1.36067	39.02
1.37733	39.02
1.39400	39.02
1.41067	39.02
1.42733	39.02
1.44400	39.02
1.46067	39.02
1.47733	39.02
1.49400	39.02
1.51067	39.02
1.52733	39.02
1.54400	39.02
1.56067	39.02
1.57733	39.02
1.59400	39.01
1.61067	39.01
1.62733	39.00
1.64400	38.98
1.66067	38.95
1.67733	38.92
1.69400	38.89
1.71067	38.85
1.72733	38.82
1.74400	38.79
1.76067	38.75
1.77733	38.72
1.79400	38.70
1.81067	38.66
1.82733	38.63
1.84400	38.60
1.86067	38.57
1.87733	38.54
1.89400	38.51
1.91067	38.47
1.92733	38.44
1.94400	38.42
1.96067	38.38
1.97733	38.35
1.99400	38.33
2.01067	38.29
2.02733	38.26
2.04400	38.23
2.06067	38.20
2.07733	38.17
2.09400	38.14
2.11067	38.11
2.12733	38.08
2.14400	38.05
2.16067	38.02
2.17733	37.99
2.19400	37.97
2.21067	37.93
2.22733	37.91
2.24400	37.88
2.26067	37.84
2.27733	37.81
2.29400	37.79
2.31067	37.76
2.32733	37.73
2.34400	37.70
2.36067	37.67
2.37733	37.66
2.39400	37.65
2.41067	37.66
2.42733	37.66
2.44400	37.65
2.46067	37.65
2.47733	37.65
2.49400	37.65
2.51067	37.65
2.52733	37.64
2.54400	37.65
2.56067	37.65
2.57733	37.65
2.59400	37.65
2.61067	37.65
2.62733	37.65
2.64400	37.65
2.66067	37.64
2.67733	37.64
2.69400	37.64
2.71067	37.64
2.72733	37.64
2.74400	37.64
2.76067	37.64
2.77733	37.64
2.79400	37.64
2.81067	37.64
2.82733	37.64
2.84400	37.64
2.86067	37.64
2.87733	37.64
2.89400	37.64
2.91067	37.63
2.92733	37.63
2.94400	37.63
2.96067	37.63
2.97733	37.63
2.99400	37.63
3.01067	37.63
3.02733	37.63
3.04400	37.63
3.06067	37.63
3.07733	37.63
3.09400	37.63
3.11067	37.63
3.12733	37.63
3.14400	37.62
3.16067	37.62
3.17733	37.62
3.19400	37.62
3.21067	37.62
3.22733	37.62
3.24400	37.62
3.26067	37.62
3.27733	37.62
3.29400	37.62
3.31067	37.62
3.32733	37.62
3.34400	37.62
3.36067	37.62
3.37733	37.63
3.39400	37.63
3.41067	37.63
3.42733	37.63
3.44400	37.63
3.46067	37.63
3.47733	37.63
3.49400	37.63
3.51067	37.63
3.52733	37.63
3.54400	37.63
3.56067	37.63
3.57733	37.63
3.59400	37.63
3.61067	37.63
3.62733	37.62
3.64400	37.62
3.66067	37.62
3.67733	37.62
3.69400	37.63
3.71067	37.62
3.72733	37.63
3.74400	37.62
3.76067	37.62
3.77733	37.62
3.79400	37.62
3.81067	37.62
3.82733	37.62
3.84400	37.62
3.86067	37.62
3.87733	37.62
3.89400	37.62
3.91067	37.62
3.92733	37.63
3.94400	37.62
3.96067	37.62
3.97733	37.63
3.99400	37.62

