[Header]
Application Name	LabSolutions
Version	5.110
Data File Name	C:\Users\User\Desktop\Junior\UIC Prairie Sampling\2023\8.18.23\081823_033.gcd
Output Date	8/31/2023
Output Time	12:48:08 PM

[File Information]
Type	Data File
Generated	8/30/2023 7:38:44 PM
Generated by	System Administrator
Modified	8/30/2023 7:45:01 PM
Modified by	System Administrator

[Sample Information]
Operator Name	System Administrator
Acquired	8/30/2023 7:41:01 PM
Sample Type	0:Unknown
Level	0
Sample Name	033
Sample ID	033
ISTD Amount1	1
ISTD Amount2	1
ISTD Amount3	1
ISTD Amount4	1
ISTD Amount5	1
ISTD Amount6	1
ISTD Amount7	1
ISTD Amount8	1
ISTD Amount9	1
ISTD Amount10	1
ISTD Amount11	1
ISTD Amount12	1
ISTD Amount13	1
ISTD Amount14	1
ISTD Amount15	1
ISTD Amount16	1
ISTD Amount17	1
ISTD Amount18	1
ISTD Amount19	1
ISTD Amount20	1
ISTD Amount21	1
ISTD Amount22	1
ISTD Amount23	1
ISTD Amount24	1
ISTD Amount25	1
ISTD Amount26	1
ISTD Amount27	1
ISTD Amount28	1
ISTD Amount29	1
ISTD Amount30	1
ISTD Amount31	1
ISTD Amount32	1
Sample Amount	1
Dilution Factor	1
Vial#	32
Injection Volume	1
Injection Count	1
Bar Code	

[Original Files]
Data File	C:\Users\User\Desktop\Junior\UIC Prairie Sampling\8.18.23\081823_033.gcd
Method File	C:\LabSolutions\Data\GHG_4min_2022\ghg3_togas_w_acet_4 min_new_int.gcm
Batch File	C:\LabSolutions\Data\BATCH FILES\081823.gcb
Report Format File	c:\LabSolutions\System\DEFAULT.lsr

[File Description]


[Configuration]
Instrument Name	C0B7VH3-Instrument1
Instrument #	1
Line #	1
# of Detectors	3
Detector ID	DET#1	DET#2	DET#3
Detector Name	FID	PTCD	ECD
# of Channels	1	1	1

[Peak Table(Ch1)]
# of Peaks	3
Peak#	R.Time	I.Time	F.Time	Area	Height	A/H	Conc.	Mark	ID#	Name	k'	Plate #	Plate Ht.	Tailing	Resolution	Sep.Factor	Area Ratio	Height Ratio	Conc. %	Norm Conc.
1	1.501	1.468	1.523	1051	407	2.584	0.000	   	1	CO	0.000	741	202.408	0.000	0.000	0.000	0	0	0.000	0.000
2	1.564	1.523	1.677	22005	10566	2.083	107.280	 V 	2	CH4	0.042	11032	13.597	1.145	0.445	0.000	0	0	21.645	21.645
3	1.989	1.945	2.425	2015186	961892	2.095	388.363	   	3	CO2	0.325	17255	8.693	1.291	7.082	7.824	0	0	78.355	78.355

[Peak Table(Ch2)]
# of Peaks	0

[Peak Table(Ch3)]
# of Peaks	5
Peak#	R.Time	I.Time	F.Time	Area	Height	A/H	Conc.	Mark	ID#	Name	k'	Plate #	Plate Ht.	Tailing	Resolution	Sep.Factor	Area Ratio	Height Ratio	Conc. %	Norm Conc.
1	2.458	2.440	2.506	769	294	2.613	0.000	   			0.000	12430	12.068	0.000	0.000	0.000	0	0	0.000	0.000
2	2.524	2.506	2.572	392	141	2.783	0.000	 V 			0.027	3102	48.350	0.000	0.490	0.000	0	0	0.000	0.000
3	2.623	2.572	2.693	500	125	4.011	0.000	 V 			0.067	8000	18.749	0.000	0.663	2.500	0	0	0.000	0.000
4	2.891	2.766	3.071	49627	13055	3.801	0.734	   	1	N2O	0.176	12955	11.579	1.555	2.445	2.622	0	0	100.000	100.000
5	3.203	3.118	3.995	22884	901	25.392	0.000	   	2	SF6	0.303	218	687.680	5.222	0.643	1.720	0	0	0.000	0.000

[Compound Results(Ch1)]
# of IDs	6
ID#	Name	R.Time	Area	Height	Conc.	Curve	3rd	2nd	1st	Constant	Area Ratio	Height Ratio	Conc. %	Norm Conc.
1	CO	1.501	1051	407	0.000	Linear	0.000000e+00	0.000000e+00	0.000000e+00	0.000000e+00	0	0	0.000	0.000
2	CH4	1.564	22005	10566	107.280	Linear	0.000000e+00	0.000000e+00	2.051179e+002	0.000000e+00	0	0	21.645	21.645
3	CO2	1.989	2015186	961892	388.363	Linear	0.000000e+00	0.000000e+00	5.188919e+003	0.000000e+00	0	0	78.355	78.355
4	Ethylene	0.000	0	0	0.000	Linear	0.000000e+00	0.000000e+00	0.000000e+00	0.000000e+00	0	0	0.000	0.000
5	Acetylene	0.000	0	0	0.000	Linear	0.000000e+00	0.000000e+00	0.000000e+00	0.000000e+00	0	0	0.000	0.000
6	Ethane	0.000	0	0	0.000	Linear	0.000000e+00	0.000000e+00	0.000000e+00	0.000000e+00	0	0	0.000	0.000

[Compound Results(Ch2)]
# of IDs	5
ID#	Name	R.Time	Area	Height	Conc.	Curve	3rd	2nd	1st	Constant	Area Ratio	Height Ratio	Conc. %	Norm Conc.
1	Hydrogen	0.000	0	0	0.000	Linear	0.000000e+00	0.000000e+00	0.000000e+00	0.000000e+00	0	0	0.000	0.000
2	Oxygen	0.000	0	0	0.000	Linear	0.000000e+00	0.000000e+00	0.000000e+00	0.000000e+00	0	0	0.000	0.000
3	Nitrogen	0.000	0	0	0.000	Linear	0.000000e+00	0.000000e+00	0.000000e+00	0.000000e+00	0	0	0.000	0.000
4	Methane	0.000	0	0	0.000	Linear	0.000000e+00	0.000000e+00	0.000000e+00	0.000000e+00	0	0	0.000	0.000
5	Carbon Monoxide	0.000	0	0	0.000	Linear	0.000000e+00	0.000000e+00	0.000000e+00	0.000000e+00	0	0	0.000	0.000

[Compound Results(Ch3)]
# of IDs	2
ID#	Name	R.Time	Area	Height	Conc.	Curve	3rd	2nd	1st	Constant	Area Ratio	Height Ratio	Conc. %	Norm Conc.
1	N2O	2.891	49627	13055	0.734	Linear	0.000000e+00	0.000000e+00	6.759880e+004	0.000000e+00	0	0	100.000	100.000
2	SF6	3.203	22884	901	0.000	Linear	0.000000e+00	0.000000e+00	0.000000e+00	0.000000e+00	0	0	0.000	0.000

[Group Results(Ch1)]
# of Groups	0

[Group Results(Ch2)]
# of Groups	0

[Group Results(Ch3)]
# of Groups	0

[Chromatogram (Ch1)]
Interval(msec)	220
# of Points	1091
Start Time(min)	0.002
End Time(min)	3.998
R.Time (min)	Intensity
0.00167	-10
0.00533	-5
0.00900	1
0.01267	5
0.01633	4
0.02000	-2
0.02367	-9
0.02733	-15
0.03100	-19
0.03467	-20
0.03833	-21
0.04200	-23
0.04567	-23
0.04933	-22
0.05300	-19
0.05667	-18
0.06033	-18
0.06400	-18
0.06767	-15
0.07133	-9
0.07500	-8
0.07867	-8
0.08233	-8
0.08600	-6
0.08967	-7
0.09333	-10
0.09700	-12
0.10067	-13
0.10433	-11
0.10800	-10
0.11167	-10
0.11533	-14
0.11900	-15
0.12267	-17
0.12633	-18
0.13000	-12
0.13367	-4
0.13733	-3
0.14100	-7
0.14467	-12
0.14833	-18
0.15200	-21
0.15567	-20
0.15933	-19
0.16300	-18
0.16667	-17
0.17033	-15
0.17400	-13
0.17767	-10
0.18133	-8
0.18500	-8
0.18867	-7
0.19233	-4
0.19600	-4
0.19967	-6
0.20333	-10
0.20700	-12
0.21067	-10
0.21433	-8
0.21800	-8
0.22167	-12
0.22533	-16
0.22900	-16
0.23267	-14
0.23633	-12
0.24000	-12
0.24367	-14
0.24733	-18
0.25100	-24
0.25467	-28
0.25833	-31
0.26200	-37
0.26567	-42
0.26933	-41
0.27300	-35
0.27667	-29
0.28033	-23
0.28400	-21
0.28767	-22
0.29133	-23
0.29500	-23
0.29867	-20
0.30233	-16
0.30600	-13
0.30967	-11
0.31333	-10
0.31700	-7
0.32067	-9
0.32433	-13
0.32800	-19
0.33167	-22
0.33533	-23
0.33900	-27
0.34267	-30
0.34633	-28
0.35000	-23
0.35367	-20
0.35733	-19
0.36100	-18
0.36467	-18
0.36833	-19
0.37200	-15
0.37567	-10
0.37933	-6
0.38300	-6
0.38667	-11
0.39033	-17
0.39400	-23
0.39767	-28
0.40133	-28
0.40500	-28
0.40867	-26
0.41233	-24
0.41600	-24
0.41967	-24
0.42333	-20
0.42700	-14
0.43067	-12
0.43433	-18
0.43800	-24
0.44167	-26
0.44533	-27
0.44900	-27
0.45267	-25
0.45633	-21
0.46000	-19
0.46367	-18
0.46733	-19
0.47100	-22
0.47467	-27
0.47833	-31
0.48200	-33
0.48567	-30
0.48933	-26
0.49300	-24
0.49667	-22
0.50033	-20
0.50400	-20
0.50767	-22
0.51133	-24
0.51500	-26
0.51867	-27
0.52233	-30
0.52600	-33
0.52967	-39
0.53333	-43
0.53700	-41
0.54067	-33
0.54433	-19
0.54800	4
0.55167	27
0.55533	40
0.55900	43
0.56267	40
0.56633	36
0.57000	32
0.57367	28
0.57733	25
0.58100	25
0.58467	28
0.58833	29
0.59200	27
0.59567	23
0.59933	17
0.60300	13
0.60667	13
0.61033	17
0.61400	26
0.61767	36
0.62133	41
0.62500	41
0.62867	40
0.63233	37
0.63600	34
0.63967	33
0.64333	33
0.64700	33
0.65067	29
0.65433	24
0.65800	20
0.66167	18
0.66533	18
0.66900	19
0.67267	20
0.67633	20
0.68000	20
0.68367	20
0.68733	21
0.69100	21
0.69467	21
0.69833	22
0.70200	22
0.70567	22
0.70933	19
0.71300	16
0.71667	11
0.72033	6
0.72400	2
0.72767	-1
0.73133	-5
0.73500	-9
0.73867	-12
0.74233	-17
0.74600	-21
0.74967	-23
0.75333	-23
0.75700	-23
0.76067	-24
0.76433	-24
0.76800	-23
0.77167	-22
0.77533	-21
0.77900	-20
0.78267	-21
0.78633	-26
0.79000	-32
0.79367	-35
0.79733	-31
0.80100	-21
0.80467	-8
0.80833	-0
0.81200	5
0.81567	6
0.81933	2
0.82300	-4
0.82667	-8
0.83033	-10
0.83400	-15
0.83767	-19
0.84133	-21
0.84500	-23
0.84867	-24
0.85233	-25
0.85600	-24
0.85967	-21
0.86333	-16
0.86700	-12
0.87067	-12
0.87433	-12
0.87800	-7
0.88167	1
0.88533	4
0.88900	-1
0.89267	-14
0.89633	-28
0.90000	-39
0.90367	-45
0.90733	-44
0.91100	-39
0.91467	-31
0.91833	-25
0.92200	-24
0.92567	-27
0.92933	-34
0.93300	-40
0.93667	-42
0.94033	-44
0.94400	-50
0.94767	-56
0.95133	-61
0.95500	-61
0.95867	-57
0.96233	-54
0.96600	-53
0.96967	-53
0.97333	-53
0.97700	-51
0.98067	-50
0.98433	-47
0.98800	-41
0.99167	-38
0.99533	-40
0.99900	-43
1.00267	-43
1.00633	-38
1.01000	-32
1.01367	-27
1.01733	-25
1.02100	-25
1.02467	-28
1.02833	-34
1.03200	-41
1.03567	-47
1.03933	-52
1.04300	-55
1.04667	-56
1.05033	-54
1.05400	-51
1.05767	-47
1.06133	-43
1.06500	-41
1.06867	-39
1.07233	-36
1.07600	-35
1.07967	-36
1.08333	-39
1.08700	-43
1.09067	-45
1.09433	-47
1.09800	-51
1.10167	-54
1.10533	-52
1.10900	-46
1.11267	-40
1.11633	-35
1.12000	-32
1.12367	-30
1.12733	-30
1.13100	-34
1.13467	-38
1.13833	-40
1.14200	-38
1.14567	-35
1.14933	-33
1.15300	-33
1.15667	-35
1.16033	-38
1.16400	-41
1.16767	-47
1.17133	-52
1.17500	-54
1.17867	-52
1.18233	-47
1.18600	-42
1.18967	-38
1.19333	-36
1.19700	-38
1.20067	-42
1.20433	-45
1.20800	-43
1.21167	-37
1.21533	-32
1.21900	-31
1.22267	-33
1.22633	-36
1.23000	-40
1.23367	-46
1.23733	-52
1.24100	-55
1.24467	-58
1.24833	-62
1.25200	-63
1.25567	-63
1.25933	-62
1.26300	-62
1.26667	-61
1.27033	-60
1.27400	-57
1.27767	-56
1.28133	-56
1.28500	-55
1.28867	-57
1.29233	-60
1.29600	-62
1.29967	-60
1.30333	-57
1.30700	-52
1.31067	-46
1.31433	-45
1.31800	-49
1.32167	-56
1.32533	-65
1.32900	-73
1.33267	-78
1.33633	-78
1.34000	-72
1.34367	-64
1.34733	-56
1.35100	-52
1.35467	-53
1.35833	-53
1.36200	-55
1.36567	-57
1.36933	-60
1.37300	-62
1.37667	-65
1.38033	-67
1.38400	-70
1.38767	-74
1.39133	-79
1.39500	-82
1.39867	-80
1.40233	-74
1.40600	-67
1.40967	-64
1.41333	-66
1.41700	-67
1.42067	-68
1.42433	-69
1.42800	-71
1.43167	-68
1.43533	-57
1.43900	-47
1.44267	-78
1.44633	-172
1.45000	-296
1.45367	-413
1.45733	-505
1.46100	-566
1.46467	-587
1.46833	-561
1.47200	-492
1.47567	-400
1.47933	-305
1.48300	-226
1.48667	-167
1.49033	-129
1.49400	-106
1.49767	-90
1.50133	-78
1.50500	-73
1.50867	-74
1.51233	-75
1.51600	-75
1.51967	-74
1.52333	-72
1.52700	-61
1.53067	-13
1.53433	196
1.53800	845
1.54167	2170
1.54533	4055
1.54900	6095
1.55267	7902
1.55633	9274
1.56000	10096
1.56367	10226
1.56733	9571
1.57100	8247
1.57467	6576
1.57833	4914
1.58200	3491
1.58567	2388
1.58933	1587
1.59300	1033
1.59667	659
1.60033	411
1.60400	248
1.60767	141
1.61133	73
1.61500	28
1.61867	-1
1.62233	-22
1.62600	-38
1.62967	-49
1.63333	-54
1.63700	-55
1.64067	-56
1.64433	-55
1.64800	-54
1.65167	-53
1.65533	-50
1.65900	-48
1.66267	-50
1.66633	-57
1.67000	-67
1.67367	-74
1.67733	-77
1.68100	-78
1.68467	-77
1.68833	-74
1.69200	-73
1.69567	-72
1.69933	-73
1.70300	-71
1.70667	-68
1.71033	-65
1.71400	-63
1.71767	-65
1.72133	-70
1.72500	-74
1.72867	-77
1.73233	-80
1.73600	-82
1.73967	-84
1.74333	-83
1.74700	-81
1.75067	-79
1.75433	-75
1.75800	-69
1.76167	-63
1.76533	-56
1.76900	-51
1.77267	-51
1.77633	-53
1.78000	-58
1.78367	-63
1.78733	-64
1.79100	-63
1.79467	-63
1.79833	-65
1.80200	-69
1.80567	-70
1.80933	-71
1.81300	-72
1.81667	-75
1.82033	-76
1.82400	-75
1.82767	-74
1.83133	-77
1.83500	-76
1.83867	-72
1.84233	-66
1.84600	-62
1.84967	-58
1.85333	-57
1.85700	-60
1.86067	-66
1.86433	-73
1.86800	-79
1.87167	-83
1.87533	-80
1.87900	-72
1.88267	-64
1.88633	-59
1.89000	-57
1.89367	-57
1.89733	-59
1.90100	-58
1.90467	-57
1.90833	-59
1.91200	-64
1.91567	-66
1.91933	-67
1.92300	-68
1.92667	-71
1.93033	-76
1.93400	-80
1.93767	-83
1.94133	-84
1.94500	-67
1.94867	80
1.95233	988
1.95600	5274
1.95967	20417
1.96333	61244
1.96700	146096
1.97067	283071
1.97433	458910
1.97800	643669
1.98167	804344
1.98533	915373
1.98900	961874
1.99267	939526
1.99633	856073
2.00000	730628
2.00367	587616
2.00733	449329
2.01100	330221
2.01467	235956
2.01833	165778
2.02200	115724
2.02567	81035
2.02933	57415
2.03300	41471
2.03667	30722
2.04033	23433
2.04400	18433
2.04767	14945
2.05133	12462
2.05500	10649
2.05867	9290
2.06233	8243
2.06600	7413
2.06967	6739
2.07333	6178
2.07700	5707
2.08067	5310
2.08433	4964
2.08800	4658
2.09167	4389
2.09533	4146
2.09900	3924
2.10267	3720
2.10633	3534
2.11000	3366
2.11367	3217
2.11733	3085
2.12100	2962
2.12467	2843
2.12833	2731
2.13200	2626
2.13567	2527
2.13933	2435
2.14300	2350
2.14667	2267
2.15033	2190
2.15400	2118
2.15767	2049
2.16133	1983
2.16500	1924
2.16867	1870
2.17233	1818
2.17600	1769
2.17967	1718
2.18333	1665
2.18700	1614
2.19067	1566
2.19433	1523
2.19800	1482
2.20167	1447
2.20533	1412
2.20900	1375
2.21267	1338
2.21633	1301
2.22000	1268
2.22367	1235
2.22733	1202
2.23100	1169
2.23467	1139
2.23833	1110
2.24200	1084
2.24567	1061
2.24933	1040
2.25300	1020
2.25667	998
2.26033	978
2.26400	959
2.26767	937
2.27133	917
2.27500	900
2.27867	886
2.28233	872
2.28600	858
2.28967	841
2.29333	821
2.29700	801
2.30067	783
2.30433	766
2.30800	753
2.31167	740
2.31533	726
2.31900	711
2.32267	695
2.32633	681
2.33000	666
2.33367	651
2.33733	640
2.34100	634
2.34467	630
2.34833	624
2.35200	615
2.35567	606
2.35933	594
2.36300	579
2.36667	569
2.37033	562
2.37400	554
2.37767	545
2.38133	538
2.38500	532
2.38867	524
2.39233	514
2.39600	506
2.39967	502
2.40333	500
2.40700	497
2.41067	491
2.41433	485
2.41800	480
2.42167	474
2.42533	468
2.42900	463
2.43267	457
2.43633	447
2.44000	437
2.44367	428
2.44733	417
2.45100	407
2.45467	399
2.45833	389
2.46200	377
2.46567	367
2.46933	361
2.47300	358
2.47667	356
2.48033	356
2.48400	356
2.48767	352
2.49133	343
2.49500	332
2.49867	321
2.50233	315
2.50600	312
2.50967	310
2.51333	309
2.51700	308
2.52067	307
2.52433	306
2.52800	303
2.53167	298
2.53533	293
2.53900	288
2.54267	283
2.54633	280
2.55000	276
2.55367	276
2.55733	276
2.56100	276
2.56467	275
2.56833	272
2.57200	265
2.57567	256
2.57933	247
2.58300	237
2.58667	228
2.59033	223
2.59400	218
2.59767	215
2.60133	213
2.60500	214
2.60867	217
2.61233	220
2.61600	219
2.61967	218
2.62333	214
2.62700	211
2.63067	207
2.63433	204
2.63800	203
2.64167	206
2.64533	209
2.64900	210
2.65267	207
2.65633	204
2.66000	199
2.66367	194
2.66733	189
2.67100	182
2.67467	173
2.67833	166
2.68200	162
2.68567	158
2.68933	155
2.69300	155
2.69667	157
2.70033	159
2.70400	159
2.70767	158
2.71133	157
2.71500	161
2.71867	165
2.72233	165
2.72600	163
2.72967	161
2.73333	158
2.73700	155
2.74067	153
2.74433	152
2.74800	150
2.75167	148
2.75533	145
2.75900	141
2.76267	138
2.76633	136
2.77000	132
2.77367	128
2.77733	125
2.78100	122
2.78467	120
2.78833	118
2.79200	112
2.79567	110
2.79933	113
2.80300	117
2.80667	121
2.81033	125
2.81400	127
2.81767	128
2.82133	127
2.82500	123
2.82867	120
2.83233	121
2.83600	120
2.83967	118
2.84333	114
2.84700	109
2.85067	103
2.85433	98
2.85800	96
2.86167	97
2.86533	100
2.86900	103
2.87267	105
2.87633	106
2.88000	103
2.88367	100
2.88733	99
2.89100	98
2.89467	96
2.89833	93
2.90200	89
2.90567	88
2.90933	90
2.91300	89
2.91667	85
2.92033	79
2.92400	74
2.92767	74
2.93133	78
2.93500	81
2.93867	79
2.94233	78
2.94600	80
2.94967	83
2.95333	85
2.95700	85
2.96067	86
2.96433	87
2.96800	88
2.97167	91
2.97533	97
2.97900	103
2.98267	108
2.98633	110
2.99000	110
2.99367	108
2.99733	103
3.00100	101
3.00467	100
3.00833	97
3.01200	93
3.01567	90
3.01933	86
3.02300	83
3.02667	85
3.03033	86
3.03400	86
3.03767	85
3.04133	79
3.04500	72
3.04867	67
3.05233	64
3.05600	60
3.05967	59
3.06333	59
3.06700	59
3.07067	57
3.07433	55
3.07800	57
3.08167	59
3.08533	63
3.08900	67
3.09267	69
3.09633	69
3.10000	70
3.10367	71
3.10733	70
3.11100	69
3.11467	68
3.11833	68
3.12200	68
3.12567	64
3.12933	60
3.13300	56
3.13667	55
3.14033	56
3.14400	58
3.14767	59
3.15133	58
3.15500	55
3.15867	50
3.16233	45
3.16600	42
3.16967	41
3.17333	43
3.17700	45
3.18067	46
3.18433	45
3.18800	42
3.19167	40
3.19533	38
3.19900	36
3.20267	33
3.20633	29
3.21000	27
3.21367	26
3.21733	27
3.22100	31
3.22467	35
3.22833	38
3.23200	40
3.23567	38
3.23933	35
3.24300	32
3.24667	31
3.25033	31
3.25400	31
3.25767	29
3.26133	27
3.26500	27
3.26867	29
3.27233	31
3.27600	33
3.27967	39
3.28333	46
3.28700	52
3.29067	54
3.29433	51
3.29800	44
3.30167	35
3.30533	31
3.30900	34
3.31267	38
3.31633	39
3.32000	37
3.32367	34
3.32733	27
3.33100	24
3.33467	28
3.33833	33
3.34200	35
3.34567	36
3.34933	37
3.35300	35
3.35667	30
3.36033	26
3.36400	23
3.36767	21
3.37133	21
3.37500	22
3.37867	23
3.38233	23
3.38600	24
3.38967	27
3.39333	29
3.39700	30
3.40067	32
3.40433	33
3.40800	32
3.41167	30
3.41533	25
3.41900	21
3.42267	18
3.42633	17
3.43000	19
3.43367	20
3.43733	23
3.44100	25
3.44467	23
3.44833	20
3.45200	16
3.45567	12
3.45933	10
3.46300	11
3.46667	14
3.47033	13
3.47400	8
3.47767	7
3.48133	10
3.48500	12
3.48867	13
3.49233	15
3.49600	21
3.49967	25
3.50333	27
3.50700	30
3.51067	31
3.51433	30
3.51800	26
3.52167	20
3.52533	15
3.52900	12
3.53267	8
3.53633	7
3.54000	7
3.54367	10
3.54733	13
3.55100	15
3.55467	16
3.55833	16
3.56200	16
3.56567	13
3.56933	7
3.57300	0
3.57667	-5
3.58033	-7
3.58400	-6
3.58767	-4
3.59133	-1
3.59500	1
3.59867	1
3.60233	-1
3.60600	-5
3.60967	-6
3.61333	-5
3.61700	-6
3.62067	-6
3.62433	-4
3.62800	-1
3.63167	2
3.63533	5
3.63900	6
3.64267	6
3.64633	6
3.65000	1
3.65367	-3
3.65733	-4
3.66100	-4
3.66467	-2
3.66833	1
3.67200	2
3.67567	1
3.67933	-1
3.68300	-5
3.68667	-5
3.69033	-3
3.69400	-2
3.69767	-3
3.70133	-3
3.70500	-4
3.70867	-5
3.71233	-4
3.71600	-4
3.71967	-5
3.72333	-5
3.72700	0
3.73067	6
3.73433	9
3.73800	10
3.74167	6
3.74533	1
3.74900	-6
3.75267	-14
3.75633	-19
3.76000	-20
3.76367	-19
3.76733	-15
3.77100	-11
3.77467	-8
3.77833	-7
3.78200	-5
3.78567	-4
3.78933	-4
3.79300	-4
3.79667	-6
3.80033	-11
3.80400	-13
3.80767	-16
3.81133	-19
3.81500	-24
3.81867	-29
3.82233	-33
3.82600	-36
3.82967	-36
3.83333	-36
3.83700	-37
3.84067	-38
3.84433	-36
3.84800	-31
3.85167	-21
3.85533	-14
3.85900	-11
3.86267	-11
3.86633	-12
3.87000	-14
3.87367	-19
3.87733	-25
3.88100	-31
3.88467	-32
3.88833	-30
3.89200	-26
3.89567	-22
3.89933	-19
3.90300	-16
3.90667	-12
3.91033	-11
3.91400	-11
3.91767	-12
3.92133	-15
3.92500	-17
3.92867	-16
3.93233	-18
3.93600	-21
3.93967	-21
3.94333	-19
3.94700	-20
3.95067	-23
3.95433	-26
3.95800	-27
3.96167	-27
3.96533	-27
3.96900	-27
3.97267	-26
3.97633	-27
3.98000	-30
3.98367	-34
3.98733	-37
3.99100	-35
3.99467	-29
3.99833	-24

[Chromatogram (Ch2)]
Interval(msec)	220
# of Points	1091
Start Time(min)	0.002
End Time(min)	3.998
R.Time (min)	Intensity
0.00167	-1
0.00533	-1
0.00900	-2
0.01267	-2
0.01633	-3
0.02000	-3
0.02367	-3
0.02733	-3
0.03100	-3
0.03467	-3
0.03833	-3
0.04200	-3
0.04567	-3
0.04933	-3
0.05300	-3
0.05667	-3
0.06033	-3
0.06400	-3
0.06767	-3
0.07133	-3
0.07500	-3
0.07867	-3
0.08233	-2
0.08600	-2
0.08967	-2
0.09333	-2
0.09700	-1
0.10067	-1
0.10433	-1
0.10800	-1
0.11167	-2
0.11533	-2
0.11900	-2
0.12267	-2
0.12633	-1
0.13000	-2
0.13367	-2
0.13733	-2
0.14100	-2
0.14467	-2
0.14833	-2
0.15200	-2
0.15567	-3
0.15933	-3
0.16300	-3
0.16667	-3
0.17033	-3
0.17400	-3
0.17767	-3
0.18133	-3
0.18500	-3
0.18867	-3
0.19233	-3
0.19600	-3
0.19967	-3
0.20333	-3
0.20700	-3
0.21067	-3
0.21433	-3
0.21800	-3
0.22167	-3
0.22533	-3
0.22900	-3
0.23267	-3
0.23633	-3
0.24000	-3
0.24367	-4
0.24733	-4
0.25100	-4
0.25467	-4
0.25833	-4
0.26200	-4
0.26567	-4
0.26933	-4
0.27300	-4
0.27667	-4
0.28033	-4
0.28400	-4
0.28767	-4
0.29133	-3
0.29500	-3
0.29867	-3
0.30233	-2
0.30600	-2
0.30967	-2
0.31333	-2
0.31700	-2
0.32067	-1
0.32433	-1
0.32800	-2
0.33167	-2
0.33533	-2
0.33900	-2
0.34267	-2
0.34633	-2
0.35000	-2
0.35367	-2
0.35733	-2
0.36100	-2
0.36467	-3
0.36833	-3
0.37200	-3
0.37567	-3
0.37933	-3
0.38300	-3
0.38667	-3
0.39033	-2
0.39400	-2
0.39767	-2
0.40133	-2
0.40500	-2
0.40867	-3
0.41233	-3
0.41600	-3
0.41967	-3
0.42333	-3
0.42700	-3
0.43067	-3
0.43433	-3
0.43800	-3
0.44167	-3
0.44533	-3
0.44900	-2
0.45267	-2
0.45633	-2
0.46000	-2
0.46367	-2
0.46733	-3
0.47100	-3
0.47467	-3
0.47833	-3
0.48200	-3
0.48567	-3
0.48933	-3
0.49300	-3
0.49667	-3
0.50033	-3
0.50400	-4
0.50767	-4
0.51133	-4
0.51500	-4
0.51867	-4
0.52233	-4
0.52600	-4
0.52967	-5
0.53333	-5
0.53700	-4
0.54067	-4
0.54433	-4
0.54800	-4
0.55167	-3
0.55533	-4
0.55900	-4
0.56267	-4
0.56633	-4
0.57000	-4
0.57367	-4
0.57733	-4
0.58100	-4
0.58467	-4
0.58833	-4
0.59200	-4
0.59567	-4
0.59933	-4
0.60300	-4
0.60667	-4
0.61033	-4
0.61400	-4
0.61767	-4
0.62133	-4
0.62500	-4
0.62867	-4
0.63233	-4
0.63600	-5
0.63967	-5
0.64333	-5
0.64700	-5
0.65067	-5
0.65433	-4
0.65800	-4
0.66167	-4
0.66533	-4
0.66900	-4
0.67267	-4
0.67633	-4
0.68000	-4
0.68367	-4
0.68733	-4
0.69100	-4
0.69467	-4
0.69833	-4
0.70200	-4
0.70567	-4
0.70933	-4
0.71300	-4
0.71667	-3
0.72033	-3
0.72400	-4
0.72767	-4
0.73133	-4
0.73500	-4
0.73867	-4
0.74233	-4
0.74600	-5
0.74967	-5
0.75333	-4
0.75700	-4
0.76067	-4
0.76433	-4
0.76800	-4
0.77167	-4
0.77533	-4
0.77900	-4
0.78267	-4
0.78633	-4
0.79000	-4
0.79367	-4
0.79733	-4
0.80100	-4
0.80467	-4
0.80833	-4
0.81200	-4
0.81567	-4
0.81933	-4
0.82300	-3
0.82667	-3
0.83033	-3
0.83400	-3
0.83767	-3
0.84133	-2
0.84500	-2
0.84867	-2
0.85233	-2
0.85600	-2
0.85967	-2
0.86333	-2
0.86700	-3
0.87067	-3
0.87433	-3
0.87800	-3
0.88167	-3
0.88533	-3
0.88900	-3
0.89267	-3
0.89633	-3
0.90000	-4
0.90367	-4
0.90733	-3
0.91100	-3
0.91467	-3
0.91833	-3
0.92200	-4
0.92567	-4
0.92933	-4
0.93300	-4
0.93667	-3
0.94033	-3
0.94400	-3
0.94767	-3
0.95133	-3
0.95500	-3
0.95867	-3
0.96233	-3
0.96600	-3
0.96967	-3
0.97333	-3
0.97700	-3
0.98067	-3
0.98433	-3
0.98800	-3
0.99167	-3
0.99533	-3
0.99900	-3
1.00267	-4
1.00633	-4
1.01000	-4
1.01367	-4
1.01733	-5
1.02100	-5
1.02467	-5
1.02833	-5
1.03200	-5
1.03567	-4
1.03933	-4
1.04300	-4
1.04667	-4
1.05033	-4
1.05400	-4
1.05767	-4
1.06133	-4
1.06500	-4
1.06867	-3
1.07233	-3
1.07600	-3
1.07967	-3
1.08333	-3
1.08700	-3
1.09067	-3
1.09433	-3
1.09800	-3
1.10167	-3
1.10533	-3
1.10900	-3
1.11267	-4
1.11633	-4
1.12000	-4
1.12367	-3
1.12733	-3
1.13100	-3
1.13467	-3
1.13833	-3
1.14200	-3
1.14567	-3
1.14933	-3
1.15300	-4
1.15667	-4
1.16033	-4
1.16400	-4
1.16767	-4
1.17133	-4
1.17500	-4
1.17867	-4
1.18233	-4
1.18600	-4
1.18967	-5
1.19333	-5
1.19700	-5
1.20067	-5
1.20433	-5
1.20800	-5
1.21167	-5
1.21533	-5
1.21900	-5
1.22267	-5
1.22633	-5
1.23000	-5
1.23367	-5
1.23733	-6
1.24100	-6
1.24467	-6
1.24833	-6
1.25200	-6
1.25567	-6
1.25933	-6
1.26300	-5
1.26667	-5
1.27033	-5
1.27400	-5
1.27767	-4
1.28133	-4
1.28500	-4
1.28867	-4
1.29233	-4
1.29600	-4
1.29967	-4
1.30333	-4
1.30700	-5
1.31067	-5
1.31433	-5
1.31800	-5
1.32167	-5
1.32533	-4
1.32900	-5
1.33267	-5
1.33633	-5
1.34000	-5
1.34367	-5
1.34733	-5
1.35100	-5
1.35467	-5
1.35833	-5
1.36200	-5
1.36567	-5
1.36933	-5
1.37300	-5
1.37667	-5
1.38033	-5
1.38400	-5
1.38767	-5
1.39133	-5
1.39500	-5
1.39867	-5
1.40233	-5
1.40600	-5
1.40967	-5
1.41333	-5
1.41700	-5
1.42067	-5
1.42433	-5
1.42800	-5
1.43167	-5
1.43533	-5
1.43900	-5
1.44267	-6
1.44633	-6
1.45000	-6
1.45367	-6
1.45733	-6
1.46100	-6
1.46467	-6
1.46833	-6
1.47200	-6
1.47567	-6
1.47933	-6
1.48300	-5
1.48667	-5
1.49033	-5
1.49400	-5
1.49767	-5
1.50133	-5
1.50500	-5
1.50867	-5
1.51233	-5
1.51600	-5
1.51967	-5
1.52333	-5
1.52700	-4
1.53067	-5
1.53433	-5
1.53800	-5
1.54167	-5
1.54533	-5
1.54900	-5
1.55267	-6
1.55633	-6
1.56000	-6
1.56367	-6
1.56733	-6
1.57100	-6
1.57467	-6
1.57833	-6
1.58200	-6
1.58567	-6
1.58933	-7
1.59300	-7
1.59667	-7
1.60033	-8
1.60400	-9
1.60767	-10
1.61133	-12
1.61500	-14
1.61867	-16
1.62233	-19
1.62600	-21
1.62967	-24
1.63333	-27
1.63700	-30
1.64067	-34
1.64433	-37
1.64800	-40
1.65167	-43
1.65533	-47
1.65900	-50
1.66267	-54
1.66633	-58
1.67000	-63
1.67367	-68
1.67733	-73
1.68100	-78
1.68467	-82
1.68833	-86
1.69200	-90
1.69567	-93
1.69933	-95
1.70300	-97
1.70667	-98
1.71033	-99
1.71400	-100
1.71767	-100
1.72133	-100
1.72500	-100
1.72867	-100
1.73233	-100
1.73600	-99
1.73967	-99
1.74333	-98
1.74700	-97
1.75067	-96
1.75433	-96
1.75800	-96
1.76167	-96
1.76533	-96
1.76900	-97
1.77267	-98
1.77633	-99
1.78000	-100
1.78367	-101
1.78733	-102
1.79100	-102
1.79467	-103
1.79833	-104
1.80200	-104
1.80567	-103
1.80933	-103
1.81300	-103
1.81667	-104
1.82033	-104
1.82400	-104
1.82767	-105
1.83133	-105
1.83500	-105
1.83867	-105
1.84233	-105
1.84600	-104
1.84967	-103
1.85333	-102
1.85700	-101
1.86067	-101
1.86433	-102
1.86800	-102
1.87167	-103
1.87533	-103
1.87900	-103
1.88267	-104
1.88633	-104
1.89000	-104
1.89367	-104
1.89733	-103
1.90100	-103
1.90467	-103
1.90833	-102
1.91200	-102
1.91567	-102
1.91933	-102
1.92300	-102
1.92667	-101
1.93033	-101
1.93400	-101
1.93767	-102
1.94133	-102
1.94500	-102
1.94867	-102
1.95233	-102
1.95600	-101
1.95967	-100
1.96333	-99
1.96700	-99
1.97067	-98
1.97433	-98
1.97800	-97
1.98167	-97
1.98533	-97
1.98900	-98
1.99267	-98
1.99633	-99
2.00000	-99
2.00367	-100
2.00733	-99
2.01100	-99
2.01467	-98
2.01833	-97
2.02200	-96
2.02567	-96
2.02933	-96
2.03300	-95
2.03667	-95
2.04033	-94
2.04400	-94
2.04767	-94
2.05133	-93
2.05500	-93
2.05867	-92
2.06233	-92
2.06600	-92
2.06967	-92
2.07333	-92
2.07700	-92
2.08067	-92
2.08433	-91
2.08800	-91
2.09167	-90
2.09533	-89
2.09900	-88
2.10267	-88
2.10633	-87
2.11000	-87
2.11367	-87
2.11733	-87
2.12100	-86
2.12467	-86
2.12833	-86
2.13200	-85
2.13567	-85
2.13933	-84
2.14300	-84
2.14667	-84
2.15033	-84
2.15400	-84
2.15767	-84
2.16133	-85
2.16500	-85
2.16867	-85
2.17233	-84
2.17600	-84
2.17967	-84
2.18333	-83
2.18700	-83
2.19067	-83
2.19433	-82
2.19800	-82
2.20167	-82
2.20533	-82
2.20900	-81
2.21267	-81
2.21633	-81
2.22000	-81
2.22367	-80
2.22733	-80
2.23100	-79
2.23467	-79
2.23833	-78
2.24200	-78
2.24567	-77
2.24933	-77
2.25300	-77
2.25667	-77
2.26033	-77
2.26400	-76
2.26767	-76
2.27133	-76
2.27500	-75
2.27867	-75
2.28233	-75
2.28600	-75
2.28967	-74
2.29333	-73
2.29700	-73
2.30067	-73
2.30433	-72
2.30800	-72
2.31167	-72
2.31533	-72
2.31900	-72
2.32267	-71
2.32633	-71
2.33000	-71
2.33367	-71
2.33733	-70
2.34100	-70
2.34467	-70
2.34833	-70
2.35200	-70
2.35567	-70
2.35933	-69
2.36300	-68
2.36667	-66
2.37033	-63
2.37400	-60
2.37767	-57
2.38133	-54
2.38500	-50
2.38867	-46
2.39233	-41
2.39600	-37
2.39967	-32
2.40333	-28
2.40700	-24
2.41067	-20
2.41433	-17
2.41800	-14
2.42167	-11
2.42533	-8
2.42900	-6
2.43267	-4
2.43633	-2
2.44000	-1
2.44367	1
2.44733	2
2.45100	3
2.45467	4
2.45833	5
2.46200	6
2.46567	7
2.46933	8
2.47300	9
2.47667	9
2.48033	10
2.48400	10
2.48767	10
2.49133	10
2.49500	10
2.49867	11
2.50233	11
2.50600	12
2.50967	13
2.51333	14
2.51700	14
2.52067	14
2.52433	14
2.52800	14
2.53167	14
2.53533	14
2.53900	14
2.54267	14
2.54633	14
2.55000	13
2.55367	13
2.55733	12
2.56100	10
2.56467	9
2.56833	8
2.57200	8
2.57567	7
2.57933	8
2.58300	8
2.58667	9
2.59033	10
2.59400	11
2.59767	12
2.60133	12
2.60500	13
2.60867	14
2.61233	14
2.61600	15
2.61967	15
2.62333	16
2.62700	16
2.63067	16
2.63433	16
2.63800	16
2.64167	16
2.64533	16
2.64900	16
2.65267	17
2.65633	17
2.66000	18
2.66367	18
2.66733	19
2.67100	19
2.67467	20
2.67833	21
2.68200	21
2.68567	22
2.68933	22
2.69300	22
2.69667	23
2.70033	23
2.70400	23
2.70767	23
2.71133	23
2.71500	23
2.71867	23
2.72233	23
2.72600	23
2.72967	23
2.73333	23
2.73700	24
2.74067	24
2.74433	24
2.74800	25
2.75167	25
2.75533	25
2.75900	25
2.76267	25
2.76633	25
2.77000	24
2.77367	24
2.77733	24
2.78100	24
2.78467	24
2.78833	24
2.79200	24
2.79567	23
2.79933	23
2.80300	23
2.80667	22
2.81033	22
2.81400	22
2.81767	22
2.82133	22
2.82500	22
2.82867	22
2.83233	22
2.83600	22
2.83967	22
2.84333	22
2.84700	22
2.85067	21
2.85433	20
2.85800	18
2.86167	14
2.86533	8
2.86900	-2
2.87267	-16
2.87633	-35
2.88000	-60
2.88367	-92
2.88733	-130
2.89100	-175
2.89467	-227
2.89833	-285
2.90200	-350
2.90567	-420
2.90933	-496
2.91300	-577
2.91667	-662
2.92033	-752
2.92400	-845
2.92767	-941
2.93133	-1039
2.93500	-1140
2.93867	-1243
2.94233	-1347
2.94600	-1448
2.94967	-1533
2.95333	-1588
2.95700	-1606
2.96067	-1584
2.96433	-1528
2.96800	-1445
2.97167	-1343
2.97533	-1231
2.97900	-1115
2.98267	-999
2.98633	-888
2.99000	-783
2.99367	-687
2.99733	-599
3.00100	-520
3.00467	-450
3.00833	-387
3.01200	-333
3.01567	-285
3.01933	-244
3.02300	-208
3.02667	-177
3.03033	-150
3.03400	-127
3.03767	-108
3.04133	-91
3.04500	-76
3.04867	-64
3.05233	-54
3.05600	-45
3.05967	-37
3.06333	-30
3.06700	-24
3.07067	-20
3.07433	-16
3.07800	-12
3.08167	-9
3.08533	-6
3.08900	-4
3.09267	-2
3.09633	-0
3.10000	1
3.10367	3
3.10733	4
3.11100	5
3.11467	6
3.11833	7
3.12200	8
3.12567	9
3.12933	10
3.13300	10
3.13667	11
3.14033	11
3.14400	12
3.14767	12
3.15133	13
3.15500	13
3.15867	13
3.16233	14
3.16600	14
3.16967	14
3.17333	14
3.17700	15
3.18067	15
3.18433	15
3.18800	16
3.19167	16
3.19533	17
3.19900	17
3.20267	18
3.20633	18
3.21000	19
3.21367	20
3.21733	20
3.22100	21
3.22467	21
3.22833	22
3.23200	23
3.23567	23
3.23933	23
3.24300	24
3.24667	24
3.25033	24
3.25400	25
3.25767	25
3.26133	25
3.26500	25
3.26867	25
3.27233	25
3.27600	25
3.27967	25
3.28333	25
3.28700	25
3.29067	25
3.29433	25
3.29800	25
3.30167	25
3.30533	25
3.30900	25
3.31267	25
3.31633	26
3.32000	26
3.32367	26
3.32733	25
3.33100	25
3.33467	26
3.33833	26
3.34200	26
3.34567	26
3.34933	25
3.35300	25
3.35667	25
3.36033	25
3.36400	25
3.36767	25
3.37133	25
3.37500	25
3.37867	26
3.38233	26
3.38600	26
3.38967	26
3.39333	26
3.39700	26
3.40067	26
3.40433	26
3.40800	26
3.41167	26
3.41533	26
3.41900	26
3.42267	25
3.42633	25
3.43000	25
3.43367	25
3.43733	25
3.44100	25
3.44467	25
3.44833	25
3.45200	25
3.45567	25
3.45933	25
3.46300	25
3.46667	25
3.47033	25
3.47400	25
3.47767	25
3.48133	25
3.48500	26
3.48867	26
3.49233	26
3.49600	26
3.49967	26
3.50333	26
3.50700	25
3.51067	25
3.51433	25
3.51800	25
3.52167	26
3.52533	26
3.52900	26
3.53267	26
3.53633	26
3.54000	25
3.54367	25
3.54733	25
3.55100	25
3.55467	25
3.55833	26
3.56200	26
3.56567	26
3.56933	26
3.57300	26
3.57667	25
3.58033	26
3.58400	26
3.58767	26
3.59133	25
3.59500	25
3.59867	25
3.60233	25
3.60600	25
3.60967	26
3.61333	26
3.61700	26
3.62067	26
3.62433	26
3.62800	26
3.63167	26
3.63533	26
3.63900	26
3.64267	25
3.64633	25
3.65000	25
3.65367	25
3.65733	25
3.66100	25
3.66467	25
3.66833	25
3.67200	25
3.67567	25
3.67933	25
3.68300	25
3.68667	26
3.69033	26
3.69400	26
3.69767	26
3.70133	26
3.70500	26
3.70867	26
3.71233	26
3.71600	26
3.71967	26
3.72333	26
3.72700	26
3.73067	25
3.73433	25
3.73800	25
3.74167	25
3.74533	25
3.74900	25
3.75267	25
3.75633	25
3.76000	25
3.76367	25
3.76733	26
3.77100	26
3.77467	26
3.77833	26
3.78200	26
3.78567	26
3.78933	26
3.79300	26
3.79667	26
3.80033	26
3.80400	26
3.80767	26
3.81133	26
3.81500	26
3.81867	26
3.82233	25
3.82600	25
3.82967	25
3.83333	25
3.83700	25
3.84067	25
3.84433	25
3.84800	25
3.85167	25
3.85533	25
3.85900	25
3.86267	25
3.86633	25
3.87000	25
3.87367	25
3.87733	25
3.88100	25
3.88467	25
3.88833	26
3.89200	26
3.89567	26
3.89933	26
3.90300	26
3.90667	26
3.91033	26
3.91400	26
3.91767	26
3.92133	26
3.92500	26
3.92867	26
3.93233	26
3.93600	26
3.93967	26
3.94333	26
3.94700	26
3.95067	26
3.95433	26
3.95800	26
3.96167	26
3.96533	26
3.96900	26
3.97267	26
3.97633	26
3.98000	26
3.98367	26
3.98733	26
3.99100	26
3.99467	26
3.99833	26

[Chromatogram (Ch3)]
Interval(msec)	220
# of Points	1091
Start Time(min)	0.002
End Time(min)	3.998
R.Time (min)	Intensity
0.00167	-0
0.00533	-1
0.00900	-2
0.01267	-2
0.01633	-1
0.02000	-0
0.02367	2
0.02733	4
0.03100	6
0.03467	7
0.03833	5
0.04200	2
0.04567	1
0.04933	1
0.05300	0
0.05667	-1
0.06033	-1
0.06400	-1
0.06767	-2
0.07133	-2
0.07500	-1
0.07867	-3
0.08233	-5
0.08600	-5
0.08967	-2
0.09333	-3
0.09700	-4
0.10067	-8
0.10433	-10
0.10800	-11
0.11167	-13
0.11533	-11
0.11900	-7
0.12267	-5
0.12633	-4
0.13000	-4
0.13367	-2
0.13733	-1
0.14100	2
0.14467	3
0.14833	1
0.15200	-1
0.15567	-1
0.15933	-1
0.16300	-1
0.16667	1
0.17033	0
0.17400	-1
0.17767	-4
0.18133	-5
0.18500	-5
0.18867	-3
0.19233	2
0.19600	4
0.19967	1
0.20333	-2
0.20700	-4
0.21067	-5
0.21433	-6
0.21800	-6
0.22167	-5
0.22533	-5
0.22900	-5
0.23267	-4
0.23633	-3
0.24000	-3
0.24367	-4
0.24733	-5
0.25100	-4
0.25467	-5
0.25833	-5
0.26200	-2
0.26567	1
0.26933	4
0.27300	2
0.27667	1
0.28033	-0
0.28400	-1
0.28767	-2
0.29133	-3
0.29500	-4
0.29867	-5
0.30233	-5
0.30600	-4
0.30967	-4
0.31333	-6
0.31700	-6
0.32067	-8
0.32433	-8
0.32800	-7
0.33167	-3
0.33533	-2
0.33900	-3
0.34267	-4
0.34633	-4
0.35000	-5
0.35367	-6
0.35733	-8
0.36100	-10
0.36467	-11
0.36833	-10
0.37200	-9
0.37567	-8
0.37933	-7
0.38300	-4
0.38667	-4
0.39033	-3
0.39400	-4
0.39767	-4
0.40133	-2
0.40500	-2
0.40867	-4
0.41233	-5
0.41600	-6
0.41967	-6
0.42333	-6
0.42700	-6
0.43067	-8
0.43433	-9
0.43800	-8
0.44167	-8
0.44533	-9
0.44900	-11
0.45267	-10
0.45633	-9
0.46000	-8
0.46367	-6
0.46733	-5
0.47100	-4
0.47467	-4
0.47833	-6
0.48200	-7
0.48567	-6
0.48933	-5
0.49300	-5
0.49667	-4
0.50033	-5
0.50400	-5
0.50767	-7
0.51133	-5
0.51500	-5
0.51867	-4
0.52233	-4
0.52600	-3
0.52967	-4
0.53333	-6
0.53700	-6
0.54067	-5
0.54433	-7
0.54800	-7
0.55167	-6
0.55533	-8
0.55900	-10
0.56267	-11
0.56633	-11
0.57000	-10
0.57367	-8
0.57733	-7
0.58100	-8
0.58467	-9
0.58833	-9
0.59200	-8
0.59567	-7
0.59933	-6
0.60300	-5
0.60667	-5
0.61033	-7
0.61400	-6
0.61767	-6
0.62133	-8
0.62500	-7
0.62867	-6
0.63233	-6
0.63600	-5
0.63967	-5
0.64333	-7
0.64700	-9
0.65067	-9
0.65433	-10
0.65800	-10
0.66167	-7
0.66533	-7
0.66900	-8
0.67267	-10
0.67633	-10
0.68000	-10
0.68367	-10
0.68733	-11
0.69100	-13
0.69467	-15
0.69833	-15
0.70200	-13
0.70567	-11
0.70933	-7
0.71300	-7
0.71667	-9
0.72033	-9
0.72400	-6
0.72767	-6
0.73133	-8
0.73500	-9
0.73867	-6
0.74233	-5
0.74600	-5
0.74967	-4
0.75333	-5
0.75700	-6
0.76067	-5
0.76433	-6
0.76800	-8
0.77167	-11
0.77533	-13
0.77900	-13
0.78267	-10
0.78633	-7
0.79000	-3
0.79367	-3
0.79733	-4
0.80100	-4
0.80467	-4
0.80833	-3
0.81200	-2
0.81567	-2
0.81933	-3
0.82300	-4
0.82667	-6
0.83033	-6
0.83400	-6
0.83767	-2
0.84133	-1
0.84500	-2
0.84867	-3
0.85233	-3
0.85600	-4
0.85967	-3
0.86333	-2
0.86700	-3
0.87067	-1
0.87433	1
0.87800	-2
0.88167	-6
0.88533	-6
0.88900	-6
0.89267	-6
0.89633	-5
0.90000	-4
0.90367	-3
0.90733	-2
0.91100	-3
0.91467	-4
0.91833	-3
0.92200	-3
0.92567	-4
0.92933	-3
0.93300	-3
0.93667	-3
0.94033	-4
0.94400	-4
0.94767	-3
0.95133	-3
0.95500	-2
0.95867	-1
0.96233	1
0.96600	0
0.96967	-1
0.97333	-1
0.97700	-1
0.98067	-1
0.98433	-0
0.98800	-2
0.99167	-3
0.99533	-2
0.99900	-1
1.00267	-1
1.00633	-2
1.01000	-2
1.01367	-1
1.01733	1
1.02100	1
1.02467	-1
1.02833	-2
1.03200	-2
1.03567	1
1.03933	-1
1.04300	0
1.04667	3
1.05033	3
1.05400	4
1.05767	4
1.06133	5
1.06500	4
1.06867	1
1.07233	0
1.07600	-2
1.07967	-4
1.08333	-4
1.08700	-1
1.09067	1
1.09433	3
1.09800	1
1.10167	-2
1.10533	-6
1.10900	-7
1.11267	-6
1.11633	-4
1.12000	-2
1.12367	-1
1.12733	-0
1.13100	1
1.13467	-0
1.13833	-2
1.14200	-2
1.14567	-4
1.14933	-5
1.15300	-6
1.15667	-5
1.16033	-4
1.16400	-4
1.16767	-5
1.17133	-7
1.17500	-9
1.17867	-8
1.18233	-7
1.18600	-4
1.18967	-2
1.19333	-2
1.19700	-2
1.20067	-2
1.20433	-1
1.20800	-1
1.21167	-1
1.21533	-2
1.21900	0
1.22267	-0
1.22633	1
1.23000	3
1.23367	2
1.23733	3
1.24100	3
1.24467	5
1.24833	7
1.25200	6
1.25567	5
1.25933	4
1.26300	5
1.26667	3
1.27033	2
1.27400	0
1.27767	-1
1.28133	-3
1.28500	-1
1.28867	2
1.29233	4
1.29600	4
1.29967	3
1.30333	3
1.30700	-1
1.31067	-4
1.31433	-4
1.31800	-1
1.32167	3
1.32533	2
1.32900	1
1.33267	1
1.33633	3
1.34000	3
1.34367	2
1.34733	0
1.35100	0
1.35467	0
1.35833	-2
1.36200	-2
1.36567	-1
1.36933	-0
1.37300	-0
1.37667	1
1.38033	1
1.38400	1
1.38767	-1
1.39133	-3
1.39500	-2
1.39867	-0
1.40233	0
1.40600	1
1.40967	4
1.41333	5
1.41700	3
1.42067	2
1.42433	1
1.42800	1
1.43167	2
1.43533	3
1.43900	2
1.44267	2
1.44633	2
1.45000	0
1.45367	0
1.45733	-1
1.46100	-1
1.46467	-3
1.46833	-4
1.47200	-3
1.47567	-1
1.47933	1
1.48300	3
1.48667	3
1.49033	2
1.49400	4
1.49767	3
1.50133	2
1.50500	1
1.50867	-1
1.51233	-2
1.51600	-1
1.51967	1
1.52333	2
1.52700	1
1.53067	0
1.53433	-2
1.53800	-2
1.54167	1
1.54533	1
1.54900	1
1.55267	1
1.55633	1
1.56000	3
1.56367	2
1.56733	3
1.57100	3
1.57467	3
1.57833	2
1.58200	0
1.58567	-1
1.58933	-1
1.59300	-1
1.59667	-1
1.60033	-2
1.60400	-5
1.60767	-3
1.61133	-2
1.61500	2
1.61867	5
1.62233	6
1.62600	6
1.62967	3
1.63333	2
1.63700	0
1.64067	-0
1.64433	-1
1.64800	1
1.65167	1
1.65533	1
1.65900	3
1.66267	2
1.66633	2
1.67000	3
1.67367	3
1.67733	4
1.68100	3
1.68467	-0
1.68833	-3
1.69200	-5
1.69567	-6
1.69933	-2
1.70300	-1
1.70667	4
1.71033	6
1.71400	5
1.71767	5
1.72133	3
1.72500	2
1.72867	2
1.73233	4
1.73600	3
1.73967	3
1.74333	6
1.74700	7
1.75067	7
1.75433	7
1.75800	7
1.76167	8
1.76533	8
1.76900	7
1.77267	5
1.77633	4
1.78000	4
1.78367	4
1.78733	8
1.79100	11
1.79467	9
1.79833	7
1.80200	3
1.80567	1
1.80933	2
1.81300	5
1.81667	8
1.82033	10
1.82400	11
1.82767	11
1.83133	13
1.83500	15
1.83867	14
1.84233	12
1.84600	13
1.84967	14
1.85333	13
1.85700	14
1.86067	14
1.86433	14
1.86800	14
1.87167	14
1.87533	13
1.87900	13
1.88267	14
1.88633	17
1.89000	19
1.89367	21
1.89733	20
1.90100	18
1.90467	18
1.90833	19
1.91200	20
1.91567	20
1.91933	19
1.92300	19
1.92667	18
1.93033	18
1.93400	23
1.93767	26
1.94133	25
1.94500	24
1.94867	24
1.95233	27
1.95600	28
1.95967	28
1.96333	30
1.96700	32
1.97067	30
1.97433	30
1.97800	31
1.98167	32
1.98533	31
1.98900	30
1.99267	31
1.99633	35
2.00000	36
2.00367	36
2.00733	36
2.01100	38
2.01467	43
2.01833	43
2.02200	39
2.02567	35
2.02933	35
2.03300	38
2.03667	39
2.04033	37
2.04400	35
2.04767	35
2.05133	36
2.05500	37
2.05867	40
2.06233	40
2.06600	40
2.06967	42
2.07333	43
2.07700	42
2.08067	40
2.08433	39
2.08800	41
2.09167	44
2.09533	48
2.09900	52
2.10267	52
2.10633	50
2.11000	49
2.11367	48
2.11733	48
2.12100	49
2.12467	51
2.12833	52
2.13200	51
2.13567	50
2.13933	49
2.14300	49
2.14667	51
2.15033	53
2.15400	56
2.15767	59
2.16133	62
2.16500	64
2.16867	65
2.17233	64
2.17600	64
2.17967	67
2.18333	66
2.18700	65
2.19067	67
2.19433	69
2.19800	72
2.20167	74
2.20533	73
2.20900	75
2.21267	76
2.21633	78
2.22000	79
2.22367	80
2.22733	80
2.23100	80
2.23467	80
2.23833	80
2.24200	81
2.24567	81
2.24933	83
2.25300	87
2.25667	90
2.26033	91
2.26400	90
2.26767	86
2.27133	87
2.27500	90
2.27867	91
2.28233	90
2.28600	88
2.28967	87
2.29333	88
2.29700	88
2.30067	87
2.30433	90
2.30800	93
2.31167	93
2.31533	91
2.31900	92
2.32267	96
2.32633	100
2.33000	100
2.33367	102
2.33733	104
2.34100	106
2.34467	105
2.34833	104
2.35200	104
2.35567	103
2.35933	103
2.36300	103
2.36667	102
2.37033	103
2.37400	104
2.37767	104
2.38133	103
2.38500	101
2.38867	97
2.39233	97
2.39600	101
2.39967	107
2.40333	112
2.40700	116
2.41067	119
2.41433	121
2.41800	123
2.42167	126
2.42533	129
2.42900	129
2.43267	127
2.43633	123
2.44000	127
2.44367	173
2.44733	257
2.45100	335
2.45467	392
2.45833	420
2.46200	418
2.46567	401
2.46933	385
2.47300	371
2.47667	360
2.48033	348
2.48400	329
2.48767	308
2.49133	287
2.49500	270
2.49867	257
2.50233	249
2.50600	247
2.50967	250
2.51333	253
2.51700	259
2.52067	262
2.52433	263
2.52800	260
2.53167	252
2.53533	241
2.53900	228
2.54267	215
2.54633	203
2.55000	195
2.55367	187
2.55733	180
2.56100	178
2.56467	174
2.56833	170
2.57200	168
2.57567	169
2.57933	172
2.58300	175
2.58667	178
2.59033	182
2.59400	191
2.59767	199
2.60133	208
2.60500	216
2.60867	227
2.61233	234
2.61600	238
2.61967	241
2.62333	243
2.62700	241
2.63067	237
2.63433	230
2.63800	221
2.64167	210
2.64533	200
2.64900	191
2.65267	183
2.65633	174
2.66000	166
2.66367	156
2.66733	150
2.67100	143
2.67467	136
2.67833	132
2.68200	128
2.68567	123
2.68933	119
2.69300	115
2.69667	112
2.70033	113
2.70400	114
2.70767	114
2.71133	118
2.71500	121
2.71867	121
2.72233	123
2.72600	123
2.72967	124
2.73333	125
2.73700	126
2.74067	128
2.74433	130
2.74800	129
2.75167	128
2.75533	127
2.75900	128
2.76267	129
2.76633	130
2.77000	135
2.77367	140
2.77733	143
2.78100	145
2.78467	148
2.78833	152
2.79200	156
2.79567	159
2.79933	163
2.80300	168
2.80667	172
2.81033	177
2.81400	182
2.81767	187
2.82133	189
2.82500	189
2.82867	192
2.83233	208
2.83600	244
2.83967	323
2.84333	485
2.84700	786
2.85067	1283
2.85433	2027
2.85800	3046
2.86167	4322
2.86533	5798
2.86900	7390
2.87267	8980
2.87633	10441
2.88000	11659
2.88367	12549
2.88733	13068
2.89100	13208
2.89467	13006
2.89833	12523
2.90200	11832
2.90567	11006
2.90933	10107
2.91300	9186
2.91667	8281
2.92033	7412
2.92400	6599
2.92767	5848
2.93133	5165
2.93500	4549
2.93867	3999
2.94233	3511
2.94600	3078
2.94967	2696
2.95333	2363
2.95700	2072
2.96067	1816
2.96433	1594
2.96800	1399
2.97167	1230
2.97533	1083
2.97900	956
2.98267	848
2.98633	757
2.99000	676
2.99367	602
2.99733	539
3.00100	483
3.00467	438
3.00833	399
3.01200	366
3.01567	337
3.01933	310
3.02300	289
3.02667	269
3.03033	253
3.03400	241
3.03767	234
3.04133	225
3.04500	219
3.04867	214
3.05233	208
3.05600	203
3.05967	199
3.06333	195
3.06700	191
3.07067	188
3.07433	187
3.07800	188
3.08167	187
3.08533	186
3.08900	183
3.09267	181
3.09633	180
3.10000	180
3.10367	180
3.10733	182
3.11100	182
3.11467	179
3.11833	182
3.12200	204
3.12567	252
3.12933	320
3.13300	398
3.13667	481
3.14033	566
3.14400	653
3.14767	736
3.15133	810
3.15500	876
3.15867	931
3.16233	974
3.16600	1009
3.16967	1038
3.17333	1059
3.17700	1077
3.18067	1090
3.18433	1102
3.18800	1109
3.19167	1115
3.19533	1120
3.19900	1124
3.20267	1126
3.20633	1127
3.21000	1127
3.21367	1126
3.21733	1125
3.22100	1122
3.22467	1119
3.22833	1116
3.23200	1115
3.23567	1114
3.23933	1112
3.24300	1111
3.24667	1108
3.25033	1105
3.25400	1102
3.25767	1098
3.26133	1095
3.26500	1092
3.26867	1089
3.27233	1084
3.27600	1079
3.27967	1073
3.28333	1067
3.28700	1061
3.29067	1058
3.29433	1056
3.29800	1053
3.30167	1046
3.30533	1041
3.30900	1035
3.31267	1030
3.31633	1025
3.32000	1020
3.32367	1014
3.32733	1007
3.33100	998
3.33467	991
3.33833	984
3.34200	981
3.34567	978
3.34933	974
3.35300	969
3.35667	963
3.36033	960
3.36400	957
3.36767	951
3.37133	947
3.37500	948
3.37867	949
3.38233	947
3.38600	944
3.38967	941
3.39333	937
3.39700	934
3.40067	930
3.40433	927
3.40800	925
3.41167	922
3.41533	918
3.41900	917
3.42267	915
3.42633	911
3.43000	908
3.43367	906
3.43733	903
3.44100	899
3.44467	897
3.44833	898
3.45200	900
3.45567	901
3.45933	900
3.46300	898
3.46667	894
3.47033	892
3.47400	891
3.47767	889
3.48133	888
3.48500	887
3.48867	886
3.49233	883
3.49600	882
3.49967	880
3.50333	877
3.50700	874
3.51067	872
3.51433	870
3.51800	867
3.52167	865
3.52533	862
3.52900	861
3.53267	862
3.53633	862
3.54000	860
3.54367	859
3.54733	858
3.55100	859
3.55467	860
3.55833	860
3.56200	859
3.56567	858
3.56933	857
3.57300	856
3.57667	857
3.58033	854
3.58400	852
3.58767	853
3.59133	851
3.59500	850
3.59867	850
3.60233	850
3.60600	851
3.60967	851
3.61333	850
3.61700	849
3.62067	847
3.62433	846
3.62800	843
3.63167	840
3.63533	836
3.63900	830
3.64267	827
3.64633	823
3.65000	820
3.65367	816
3.65733	816
3.66100	815
3.66467	814
3.66833	811
3.67200	807
3.67567	802
3.67933	797
3.68300	794
3.68667	790
3.69033	786
3.69400	783
3.69767	780
3.70133	775
3.70500	771
3.70867	767
3.71233	764
3.71600	760
3.71967	759
3.72333	758
3.72700	756
3.73067	754
3.73433	752
3.73800	748
3.74167	744
3.74533	739
3.74900	736
3.75267	735
3.75633	733
3.76000	730
3.76367	728
3.76733	727
3.77100	727
3.77467	726
3.77833	724
3.78200	723
3.78567	723
3.78933	723
3.79300	720
3.79667	714
3.80033	712
3.80400	709
3.80767	708
3.81133	706
3.81500	704
3.81867	702
3.82233	698
3.82600	694
3.82967	693
3.83333	692
3.83700	692
3.84067	690
3.84433	689
3.84800	690
3.85167	690
3.85533	691
3.85900	690
3.86267	685
3.86633	682
3.87000	681
3.87367	679
3.87733	678
3.88100	676
3.88467	674
3.88833	675
3.89200	672
3.89567	669
3.89933	666
3.90300	666
3.90667	666
3.91033	664
3.91400	663
3.91767	662
3.92133	660
3.92500	657
3.92867	654
3.93233	652
3.93600	650
3.93967	649
3.94333	649
3.94700	647
3.95067	646
3.95433	645
3.95800	643
3.96167	641
3.96533	642
3.96900	645
3.97267	644
3.97633	643
3.98000	642
3.98367	638
3.98733	633
3.99100	629
3.99467	627
3.99833	624

[Status Trace (Column Oven Temperature)]
Interval(msec)	1000
# of Points	240
Start Time(min)	0.016
End Time(min)	3.999
Intensity Units	
Intensity Multiplier	1
R.Time (min)	Intensity
0.01550	35.02
0.03217	35.03
0.04883	35.04
0.06550	35.05
0.08217	35.04
0.09883	35.03
0.11550	35.04
0.13217	35.03
0.14883	35.03
0.16550	35.02
0.18217	35.03
0.19883	35.03
0.21550	35.03
0.23217	35.03
0.24883	35.03
0.26550	35.02
0.28217	35.03
0.29883	35.03
0.31550	35.02
0.33217	35.01
0.34883	35.00
0.36550	35.00
0.38217	34.99
0.39883	34.99
0.41550	34.99
0.43217	34.99
0.44883	34.99
0.46550	35.00
0.48217	34.99
0.49883	35.00
0.51550	34.99
0.53217	34.99
0.54883	34.98
0.56550	34.98
0.58217	34.98
0.59883	34.98
0.61550	34.98
0.63217	34.99
0.64883	34.98
0.66550	34.98
0.68217	34.99
0.69883	34.99
0.71550	34.99
0.73217	34.99
0.74883	35.00
0.76550	35.00
0.78217	35.00
0.79883	35.01
0.81550	35.00
0.83217	35.00
0.84883	35.00
0.86550	34.99
0.88217	34.98
0.89883	34.99
0.91550	35.00
0.93217	35.00
0.94883	35.00
0.96550	34.99
0.98217	34.99
0.99883	34.99
1.01550	35.01
1.03217	35.01
1.04883	35.00
1.06550	34.99
1.08217	34.99
1.09883	34.99
1.11550	34.99
1.13217	34.99
1.14883	34.98
1.16550	34.98
1.18217	34.98
1.19883	34.98
1.21550	34.99
1.23217	34.99
1.24883	34.99
1.26550	34.99
1.28217	34.99
1.29883	34.99
1.31550	34.99
1.33217	34.99
1.34883	34.99
1.36550	34.99
1.38217	34.99
1.39883	34.99
1.41550	35.00
1.43217	34.99
1.44883	35.00
1.46550	34.99
1.48217	34.99
1.49883	35.00
1.51550	34.99
1.53217	34.99
1.54883	34.99
1.56550	34.99
1.58217	34.98
1.59883	35.01
1.61550	35.10
1.63217	35.25
1.64883	35.47
1.66550	35.75
1.68217	36.14
1.69883	36.52
1.71550	36.87
1.73217	37.19
1.74883	37.49
1.76550	37.81
1.78217	38.15
1.79883	38.49
1.81550	38.82
1.83217	39.17
1.84883	39.47
1.86550	39.81
1.88217	40.16
1.89883	40.47
1.91550	40.80
1.93217	41.14
1.94883	41.49
1.96550	41.79
1.98217	42.11
1.99883	42.47
2.01550	42.79
2.03217	43.12
2.04883	43.45
2.06550	43.78
2.08217	44.11
2.09883	44.42
2.11550	44.76
2.13217	45.07
2.14883	45.40
2.16550	45.73
2.18217	46.06
2.19883	46.38
2.21550	46.72
2.23217	47.04
2.24883	47.38
2.26550	47.70
2.28217	48.02
2.29883	48.36
2.31550	48.68
2.33217	49.01
2.34883	49.32
2.36550	49.58
2.38217	49.68
2.39883	49.68
2.41550	49.69
2.43217	49.69
2.44883	49.71
2.46550	49.70
2.48217	49.74
2.49883	49.75
2.51550	49.76
2.53217	49.77
2.54883	49.78
2.56550	49.82
2.58217	49.82
2.59883	49.83
2.61550	49.83
2.63217	49.85
2.64883	49.86
2.66550	49.86
2.68217	49.85
2.69883	49.85
2.71550	49.86
2.73217	49.86
2.74883	49.86
2.76550	49.86
2.78217	49.86
2.79883	49.88
2.81550	49.88
2.83217	49.90
2.84883	49.92
2.86550	49.94
2.88217	49.96
2.89883	49.97
2.91550	49.99
2.93217	50.01
2.94883	50.02
2.96550	50.04
2.98217	50.04
2.99883	50.05
3.01550	50.06
3.03217	50.06
3.04883	50.07
3.06550	50.08
3.08217	50.08
3.09883	50.08
3.11550	50.08
3.13217	50.09
3.14883	50.09
3.16550	50.11
3.18217	50.12
3.19883	50.11
3.21550	50.10
3.23217	50.09
3.24883	50.07
3.26550	50.06
3.28217	50.05
3.29883	50.05
3.31550	50.04
3.33217	50.04
3.34883	50.02
3.36550	50.03
3.38217	50.02
3.39883	50.02
3.41550	50.02
3.43217	50.02
3.44883	50.03
3.46550	50.04
3.48217	50.04
3.49883	50.04
3.51550	50.04
3.53217	50.04
3.54883	50.04
3.56550	50.04
3.58217	50.04
3.59883	50.04
3.61550	50.04
3.63217	50.05
3.64883	50.05
3.66550	50.06
3.68217	50.06
3.69883	50.06
3.71550	50.06
3.73217	50.07
3.74883	50.07
3.76550	50.07
3.78217	50.08
3.79883	50.07
3.81550	50.07
3.83217	50.07
3.84883	50.07
3.86550	50.07
3.88217	50.06
3.89883	50.06
3.91550	50.06
3.93217	50.06
3.94883	50.06
3.96550	50.06
3.98217	50.06
3.99883	50.07

[Status Trace (Injection Unit Temperature)]
Interval(msec)	1000
# of Points	240
Start Time(min)	0.016
End Time(min)	3.999
Intensity Units	
Intensity Multiplier	1
R.Time (min)	Intensity
0.01550	99.97
0.03217	99.97
0.04883	99.97
0.06550	99.97
0.08217	99.97
0.09883	99.97
0.11550	99.97
0.13217	99.97
0.14883	99.97
0.16550	99.97
0.18217	99.97
0.19883	99.97
0.21550	99.97
0.23217	99.97
0.24883	99.97
0.26550	99.97
0.28217	99.97
0.29883	99.98
0.31550	99.98
0.33217	99.97
0.34883	99.98
0.36550	99.97
0.38217	99.98
0.39883	99.98
0.41550	99.98
0.43217	99.97
0.44883	99.98
0.46550	99.98
0.48217	99.98
0.49883	99.98
0.51550	99.98
0.53217	99.98
0.54883	99.98
0.56550	99.98
0.58217	99.99
0.59883	99.98
0.61550	99.98
0.63217	99.98
0.64883	99.98
0.66550	99.98
0.68217	99.98
0.69883	99.98
0.71550	99.98
0.73217	99.99
0.74883	99.98
0.76550	99.98
0.78217	99.98
0.79883	99.98
0.81550	99.98
0.83217	99.98
0.84883	99.98
0.86550	99.98
0.88217	99.98
0.89883	99.98
0.91550	99.98
0.93217	99.98
0.94883	99.98
0.96550	99.98
0.98217	99.98
0.99883	99.98
1.01550	99.98
1.03217	99.98
1.04883	99.98
1.06550	99.98
1.08217	99.98
1.09883	99.98
1.11550	99.98
1.13217	99.98
1.14883	99.98
1.16550	99.98
1.18217	99.98
1.19883	99.98
1.21550	99.98
1.23217	99.98
1.24883	99.98
1.26550	99.98
1.28217	99.98
1.29883	99.98
1.31550	99.98
1.33217	99.98
1.34883	99.98
1.36550	99.98
1.38217	99.98
1.39883	99.98
1.41550	99.98
1.43217	99.98
1.44883	99.98
1.46550	99.98
1.48217	99.98
1.49883	99.98
1.51550	99.98
1.53217	99.98
1.54883	99.98
1.56550	99.98
1.58217	99.98
1.59883	99.99
1.61550	99.98
1.63217	99.98
1.64883	99.98
1.66550	99.99
1.68217	99.99
1.69883	99.98
1.71550	99.98
1.73217	99.98
1.74883	99.99
1.76550	99.98
1.78217	99.98
1.79883	99.98
1.81550	99.98
1.83217	99.98
1.84883	99.98
1.86550	99.98
1.88217	99.98
1.89883	99.98
1.91550	99.98
1.93217	99.98
1.94883	99.98
1.96550	99.98
1.98217	99.97
1.99883	99.97
2.01550	99.97
2.03217	99.97
2.04883	99.97
2.06550	99.97
2.08217	99.97
2.09883	99.97
2.11550	99.97
2.13217	99.97
2.14883	99.97
2.16550	99.96
2.18217	99.97
2.19883	99.96
2.21550	99.97
2.23217	99.96
2.24883	99.96
2.26550	99.97
2.28217	99.96
2.29883	99.96
2.31550	99.96
2.33217	99.96
2.34883	99.96
2.36550	99.96
2.38217	99.96
2.39883	99.96
2.41550	99.96
2.43217	99.96
2.44883	99.96
2.46550	99.96
2.48217	99.96
2.49883	99.97
2.51550	99.96
2.53217	99.96
2.54883	99.96
2.56550	99.96
2.58217	99.97
2.59883	99.97
2.61550	99.97
2.63217	99.97
2.64883	99.97
2.66550	99.98
2.68217	99.97
2.69883	99.97
2.71550	99.98
2.73217	99.98
2.74883	99.98
2.76550	99.98
2.78217	99.99
2.79883	99.99
2.81550	99.99
2.83217	99.99
2.84883	99.99
2.86550	99.99
2.88217	100.00
2.89883	99.99
2.91550	100.00
2.93217	100.00
2.94883	100.00
2.96550	100.00
2.98217	100.00
2.99883	100.00
3.01550	100.01
3.03217	100.01
3.04883	100.01
3.06550	100.01
3.08217	100.01
3.09883	100.01
3.11550	100.01
3.13217	100.01
3.14883	100.01
3.16550	100.02
3.18217	100.02
3.19883	100.02
3.21550	100.02
3.23217	100.02
3.24883	100.02
3.26550	100.02
3.28217	100.02
3.29883	100.02
3.31550	100.03
3.33217	100.03
3.34883	100.03
3.36550	100.03
3.38217	100.03
3.39883	100.03
3.41550	100.03
3.43217	100.03
3.44883	100.03
3.46550	100.03
3.48217	100.03
3.49883	100.03
3.51550	100.04
3.53217	100.03
3.54883	100.04
3.56550	100.03
3.58217	100.04
3.59883	100.04
3.61550	100.03
3.63217	100.04
3.64883	100.04
3.66550	100.04
3.68217	100.04
3.69883	100.04
3.71550	100.04
3.73217	100.04
3.74883	100.04
3.76550	100.04
3.78217	100.04
3.79883	100.04
3.81550	100.04
3.83217	100.04
3.84883	100.04
3.86550	100.04
3.88217	100.04
3.89883	100.05
3.91550	100.04
3.93217	100.04
3.94883	100.04
3.96550	100.04
3.98217	100.04
3.99883	100.04

[Status Trace (Carrier Gas Pressure)]
Interval(msec)	1000
# of Points	240
Start Time(min)	0.016
End Time(min)	3.999
Intensity Units	
Intensity Multiplier	1
R.Time (min)	Intensity
0.01550	56.99
0.03217	55.63
0.04883	58.08
0.06550	59.90
0.08217	58.65
0.09883	57.98
0.11550	58.00
0.13217	58.01
0.14883	58.01
0.16550	58.00
0.18217	58.00
0.19883	58.00
0.21550	58.00
0.23217	58.00
0.24883	58.00
0.26550	58.00
0.28217	58.00
0.29883	58.00
0.31550	58.00
0.33217	58.00
0.34883	58.00
0.36550	58.00
0.38217	58.00
0.39883	58.00
0.41550	58.00
0.43217	58.00
0.44883	58.00
0.46550	58.00
0.48217	58.00
0.49883	58.00
0.51550	58.00
0.53217	58.00
0.54883	58.00
0.56550	58.00
0.58217	58.00
0.59883	58.00
0.61550	58.00
0.63217	58.00
0.64883	58.00
0.66550	58.00
0.68217	58.00
0.69883	58.00
0.71550	58.00
0.73217	58.00
0.74883	58.00
0.76550	58.00
0.78217	58.00
0.79883	58.00
0.81550	58.00
0.83217	58.00
0.84883	58.00
0.86550	58.00
0.88217	58.00
0.89883	58.00
0.91550	58.00
0.93217	58.00
0.94883	58.00
0.96550	58.00
0.98217	58.00
0.99883	58.00
1.01550	58.00
1.03217	58.00
1.04883	58.00
1.06550	58.00
1.08217	58.00
1.09883	58.00
1.11550	58.00
1.13217	58.00
1.14883	58.00
1.16550	58.00
1.18217	58.00
1.19883	58.00
1.21550	58.00
1.23217	58.00
1.24883	58.00
1.26550	58.00
1.28217	58.00
1.29883	58.00
1.31550	58.00
1.33217	58.00
1.34883	58.00
1.36550	58.00
1.38217	58.00
1.39883	58.00
1.41550	58.00
1.43217	58.00
1.44883	58.00
1.46550	58.00
1.48217	58.00
1.49883	58.00
1.51550	58.00
1.53217	58.00
1.54883	58.00
1.56550	58.00
1.58217	58.00
1.59883	58.00
1.61550	58.00
1.63217	58.00
1.64883	58.00
1.66550	58.01
1.68217	58.01
1.69883	58.00
1.71550	58.00
1.73217	58.00
1.74883	58.00
1.76550	58.00
1.78217	58.00
1.79883	58.00
1.81550	58.00
1.83217	58.00
1.84883	58.00
1.86550	58.00
1.88217	58.00
1.89883	58.00
1.91550	58.00
1.93217	58.00
1.94883	58.00
1.96550	58.00
1.98217	58.00
1.99883	58.00
2.01550	58.00
2.03217	58.00
2.04883	58.00
2.06550	58.00
2.08217	58.00
2.09883	58.00
2.11550	58.00
2.13217	58.00
2.14883	58.00
2.16550	58.00
2.18217	58.00
2.19883	58.00
2.21550	58.00
2.23217	58.00
2.24883	58.00
2.26550	58.00
2.28217	58.00
2.29883	58.00
2.31550	58.00
2.33217	58.00
2.34883	58.00
2.36550	58.00
2.38217	57.99
2.39883	57.99
2.41550	58.00
2.43217	58.00
2.44883	58.00
2.46550	58.00
2.48217	58.00
2.49883	58.00
2.51550	57.99
2.53217	57.99
2.54883	58.00
2.56550	58.00
2.58217	58.00
2.59883	58.00
2.61550	58.00
2.63217	58.00
2.64883	58.00
2.66550	58.00
2.68217	58.00
2.69883	58.00
2.71550	58.00
2.73217	58.00
2.74883	58.00
2.76550	58.00
2.78217	58.00
2.79883	58.00
2.81550	58.00
2.83217	58.00
2.84883	58.00
2.86550	58.00
2.88217	58.00
2.89883	58.00
2.91550	58.00
2.93217	58.00
2.94883	58.00
2.96550	58.00
2.98217	58.00
2.99883	58.00
3.01550	58.00
3.03217	58.00
3.04883	58.00
3.06550	58.00
3.08217	58.00
3.09883	58.00
3.11550	58.00
3.13217	58.00
3.14883	58.00
3.16550	58.00
3.18217	58.00
3.19883	58.00
3.21550	58.00
3.23217	58.00
3.24883	58.00
3.26550	58.00
3.28217	58.00
3.29883	58.00
3.31550	58.00
3.33217	58.00
3.34883	58.00
3.36550	58.00
3.38217	58.00
3.39883	58.00
3.41550	58.00
3.43217	58.00
3.44883	58.00
3.46550	58.00
3.48217	58.00
3.49883	58.00
3.51550	58.00
3.53217	58.00
3.54883	58.00
3.56550	58.00
3.58217	58.00
3.59883	58.00
3.61550	58.00
3.63217	58.00
3.64883	58.00
3.66550	58.00
3.68217	58.00
3.69883	58.00
3.71550	58.00
3.73217	58.00
3.74883	58.00
3.76550	58.00
3.78217	58.00
3.79883	58.00
3.81550	58.00
3.83217	58.00
3.84883	58.00
3.86550	58.00
3.88217	58.00
3.89883	58.00
3.91550	58.00
3.93217	58.00
3.94883	58.00
3.96550	58.00
3.98217	58.00
3.99883	58.00

[Status Trace (Carrier Gas Flow)]
Interval(msec)	1000
# of Points	240
Start Time(min)	0.016
End Time(min)	3.999
Intensity Units	
Intensity Multiplier	1
R.Time (min)	Intensity
0.01550	33.86
0.03217	34.54
0.04883	34.54
0.06550	34.51
0.08217	34.51
0.09883	34.52
0.11550	34.52
0.13217	34.52
0.14883	34.52
0.16550	34.52
0.18217	34.52
0.19883	34.52
0.21550	34.52
0.23217	34.52
0.24883	34.51
0.26550	34.52
0.28217	34.52
0.29883	34.52
0.31550	34.52
0.33217	34.52
0.34883	34.51
0.36550	34.52
0.38217	34.52
0.39883	34.52
0.41550	34.51
0.43217	34.52
0.44883	34.52
0.46550	34.52
0.48217	34.52
0.49883	34.52
0.51550	34.52
0.53217	34.51
0.54883	34.52
0.56550	34.52
0.58217	34.52
0.59883	34.52
0.61550	34.53
0.63217	34.51
0.64883	34.52
0.66550	34.52
0.68217	34.52
0.69883	34.52
0.71550	34.52
0.73217	34.52
0.74883	34.52
0.76550	34.51
0.78217	34.52
0.79883	34.52
0.81550	34.52
0.83217	34.52
0.84883	34.52
0.86550	34.52
0.88217	34.51
0.89883	34.52
0.91550	34.52
0.93217	34.52
0.94883	34.52
0.96550	34.52
0.98217	34.51
0.99883	34.52
1.01550	34.52
1.03217	34.52
1.04883	34.52
1.06550	34.52
1.08217	34.52
1.09883	34.52
1.11550	34.51
1.13217	34.52
1.14883	34.52
1.16550	34.52
1.18217	34.52
1.19883	34.53
1.21550	34.52
1.23217	34.52
1.24883	34.52
1.26550	34.52
1.28217	34.51
1.29883	34.52
1.31550	34.52
1.33217	34.52
1.34883	34.52
1.36550	34.52
1.38217	34.52
1.39883	34.52
1.41550	34.52
1.43217	34.52
1.44883	34.52
1.46550	34.51
1.48217	34.52
1.49883	34.52
1.51550	34.52
1.53217	34.52
1.54883	34.52
1.56550	34.52
1.58217	34.52
1.59883	34.52
1.61550	34.52
1.63217	34.52
1.64883	34.52
1.66550	34.52
1.68217	34.52
1.69883	34.51
1.71550	34.52
1.73217	34.52
1.74883	34.52
1.76550	34.52
1.78217	34.52
1.79883	34.51
1.81550	34.52
1.83217	34.52
1.84883	34.52
1.86550	34.52
1.88217	34.52
1.89883	34.52
1.91550	34.52
1.93217	34.52
1.94883	34.52
1.96550	34.52
1.98217	34.53
1.99883	34.52
2.01550	34.52
2.03217	34.52
2.04883	34.51
2.06550	34.52
2.08217	34.52
2.09883	34.52
2.11550	34.52
2.13217	34.51
2.14883	34.52
2.16550	34.52
2.18217	34.52
2.19883	34.52
2.21550	34.52
2.23217	34.52
2.24883	34.51
2.26550	34.52
2.28217	34.52
2.29883	34.52
2.31550	34.52
2.33217	34.52
2.34883	34.52
2.36550	34.52
2.38217	34.52
2.39883	34.52
2.41550	34.52
2.43217	34.52
2.44883	34.52
2.46550	34.52
2.48217	34.52
2.49883	34.52
2.51550	34.52
2.53217	34.52
2.54883	34.52
2.56550	34.52
2.58217	34.52
2.59883	34.52
2.61550	34.52
2.63217	34.52
2.64883	34.52
2.66550	34.52
2.68217	34.52
2.69883	34.52
2.71550	34.52
2.73217	34.52
2.74883	34.52
2.76550	34.51
2.78217	34.51
2.79883	34.52
2.81550	34.52
2.83217	34.52
2.84883	34.51
2.86550	34.51
2.88217	34.52
2.89883	34.52
2.91550	34.52
2.93217	34.52
2.94883	34.52
2.96550	34.52
2.98217	34.52
2.99883	34.52
3.01550	34.52
3.03217	34.52
3.04883	34.51
3.06550	34.52
3.08217	34.52
3.09883	34.52
3.11550	34.52
3.13217	34.52
3.14883	34.52
3.16550	34.52
3.18217	34.52
3.19883	34.52
3.21550	34.52
3.23217	34.52
3.24883	34.52
3.26550	34.52
3.28217	34.52
3.29883	34.52
3.31550	34.52
3.33217	34.52
3.34883	34.53
3.36550	34.52
3.38217	34.52
3.39883	34.52
3.41550	34.52
3.43217	34.52
3.44883	34.51
3.46550	34.52
3.48217	34.52
3.49883	34.52
3.51550	34.52
3.53217	34.52
3.54883	34.51
3.56550	34.52
3.58217	34.51
3.59883	34.52
3.61550	34.51
3.63217	34.52
3.64883	34.52
3.66550	34.52
3.68217	34.52
3.69883	34.52
3.71550	34.52
3.73217	34.52
3.74883	34.52
3.76550	34.52
3.78217	34.52
3.79883	34.52
3.81550	34.52
3.83217	34.51
3.84883	34.52
3.86550	34.52
3.88217	34.52
3.89883	34.52
3.91550	34.52
3.93217	34.52
3.94883	34.52
3.96550	34.52
3.98217	34.52
3.99883	34.51

[Status Trace (Column Flow)]
Interval(msec)	1000
# of Points	240
Start Time(min)	0.016
End Time(min)	3.999
Intensity Units	
Intensity Multiplier	1
R.Time (min)	Intensity
0.01550	5.39
0.03217	5.24
0.04883	5.52
0.06550	5.73
0.08217	5.59
0.09883	5.51
0.11550	5.51
0.13217	5.51
0.14883	5.51
0.16550	5.51
0.18217	5.51
0.19883	5.51
0.21550	5.51
0.23217	5.51
0.24883	5.51
0.26550	5.51
0.28217	5.51
0.29883	5.51
0.31550	5.51
0.33217	5.51
0.34883	5.51
0.36550	5.51
0.38217	5.51
0.39883	5.51
0.41550	5.51
0.43217	5.51
0.44883	5.51
0.46550	5.51
0.48217	5.51
0.49883	5.51
0.51550	5.51
0.53217	5.51
0.54883	5.51
0.56550	5.51
0.58217	5.51
0.59883	5.51
0.61550	5.51
0.63217	5.51
0.64883	5.51
0.66550	5.51
0.68217	5.51
0.69883	5.51
0.71550	5.51
0.73217	5.51
0.74883	5.51
0.76550	5.51
0.78217	5.51
0.79883	5.51
0.81550	5.51
0.83217	5.51
0.84883	5.51
0.86550	5.51
0.88217	5.51
0.89883	5.51
0.91550	5.51
0.93217	5.51
0.94883	5.51
0.96550	5.51
0.98217	5.51
0.99883	5.51
1.01550	5.51
1.03217	5.51
1.04883	5.51
1.06550	5.51
1.08217	5.51
1.09883	5.51
1.11550	5.51
1.13217	5.51
1.14883	5.51
1.16550	5.51
1.18217	5.51
1.19883	5.51
1.21550	5.51
1.23217	5.51
1.24883	5.51
1.26550	5.51
1.28217	5.51
1.29883	5.51
1.31550	5.51
1.33217	5.51
1.34883	5.51
1.36550	5.51
1.38217	5.51
1.39883	5.51
1.41550	5.51
1.43217	5.51
1.44883	5.51
1.46550	5.51
1.48217	5.51
1.49883	5.51
1.51550	5.51
1.53217	5.51
1.54883	5.51
1.56550	5.51
1.58217	5.51
1.59883	5.51
1.61550	5.51
1.63217	5.51
1.64883	5.50
1.66550	5.49
1.68217	5.48
1.69883	5.47
1.71550	5.45
1.73217	5.45
1.74883	5.44
1.76550	5.43
1.78217	5.42
1.79883	5.40
1.81550	5.39
1.83217	5.39
1.84883	5.37
1.86550	5.36
1.88217	5.36
1.89883	5.34
1.91550	5.33
1.93217	5.33
1.94883	5.31
1.96550	5.31
1.98217	5.30
1.99883	5.29
2.01550	5.28
2.03217	5.27
2.04883	5.26
2.06550	5.25
2.08217	5.24
2.09883	5.23
2.11550	5.22
2.13217	5.21
2.14883	5.20
2.16550	5.19
2.18217	5.18
2.19883	5.17
2.21550	5.16
2.23217	5.15
2.24883	5.14
2.26550	5.13
2.28217	5.13
2.29883	5.12
2.31550	5.11
2.33217	5.10
2.34883	5.09
2.36550	5.08
2.38217	5.08
2.39883	5.08
2.41550	5.08
2.43217	5.08
2.44883	5.08
2.46550	5.08
2.48217	5.08
2.49883	5.08
2.51550	5.08
2.53217	5.08
2.54883	5.08
2.56550	5.08
2.58217	5.08
2.59883	5.08
2.61550	5.08
2.63217	5.08
2.64883	5.07
2.66550	5.07
2.68217	5.07
2.69883	5.07
2.71550	5.07
2.73217	5.07
2.74883	5.07
2.76550	5.07
2.78217	5.07
2.79883	5.07
2.81550	5.07
2.83217	5.07
2.84883	5.07
2.86550	5.07
2.88217	5.07
2.89883	5.07
2.91550	5.07
2.93217	5.07
2.94883	5.07
2.96550	5.07
2.98217	5.07
2.99883	5.07
3.01550	5.07
3.03217	5.07
3.04883	5.07
3.06550	5.07
3.08217	5.07
3.09883	5.07
3.11550	5.07
3.13217	5.07
3.14883	5.07
3.16550	5.07
3.18217	5.07
3.19883	5.07
3.21550	5.07
3.23217	5.07
3.24883	5.07
3.26550	5.07
3.28217	5.07
3.29883	5.07
3.31550	5.07
3.33217	5.07
3.34883	5.07
3.36550	5.07
3.38217	5.07
3.39883	5.07
3.41550	5.07
3.43217	5.07
3.44883	5.07
3.46550	5.07
3.48217	5.07
3.49883	5.07
3.51550	5.07
3.53217	5.07
3.54883	5.07
3.56550	5.07
3.58217	5.07
3.59883	5.07
3.61550	5.07
3.63217	5.07
3.64883	5.07
3.66550	5.07
3.68217	5.07
3.69883	5.07
3.71550	5.07
3.73217	5.07
3.74883	5.07
3.76550	5.07
3.78217	5.07
3.79883	5.07
3.81550	5.07
3.83217	5.07
3.84883	5.07
3.86550	5.07
3.88217	5.07
3.89883	5.07
3.91550	5.07
3.93217	5.07
3.94883	5.07
3.96550	5.07
3.98217	5.07
3.99883	5.07

[Status Trace (Linear Velocity)]
Interval(msec)	1000
# of Points	240
Start Time(min)	0.016
End Time(min)	3.999
Intensity Units	
Intensity Multiplier	1
R.Time (min)	Intensity
0.01550	38.35
0.03217	37.46
0.04883	39.06
0.06550	40.25
0.08217	39.43
0.09883	39.00
0.11550	39.01
0.13217	39.02
0.14883	39.02
0.16550	39.02
0.18217	39.01
0.19883	39.01
0.21550	39.01
0.23217	39.01
0.24883	39.01
0.26550	39.01
0.28217	39.01
0.29883	39.01
0.31550	39.01
0.33217	39.01
0.34883	39.01
0.36550	39.01
0.38217	39.02
0.39883	39.02
0.41550	39.02
0.43217	39.02
0.44883	39.02
0.46550	39.02
0.48217	39.02
0.49883	39.01
0.51550	39.02
0.53217	39.02
0.54883	39.02
0.56550	39.02
0.58217	39.02
0.59883	39.02
0.61550	39.02
0.63217	39.02
0.64883	39.02
0.66550	39.02
0.68217	39.02
0.69883	39.02
0.71550	39.01
0.73217	39.02
0.74883	39.01
0.76550	39.01
0.78217	39.01
0.79883	39.01
0.81550	39.01
0.83217	39.01
0.84883	39.01
0.86550	39.02
0.88217	39.02
0.89883	39.02
0.91550	39.02
0.93217	39.01
0.94883	39.01
0.96550	39.02
0.98217	39.02
0.99883	39.02
1.01550	39.01
1.03217	39.01
1.04883	39.01
1.06550	39.02
1.08217	39.02
1.09883	39.02
1.11550	39.02
1.13217	39.02
1.14883	39.02
1.16550	39.02
1.18217	39.02
1.19883	39.02
1.21550	39.02
1.23217	39.02
1.24883	39.02
1.26550	39.02
1.28217	39.02
1.29883	39.02
1.31550	39.02
1.33217	39.02
1.34883	39.02
1.36550	39.02
1.38217	39.02
1.39883	39.02
1.41550	39.01
1.43217	39.02
1.44883	39.01
1.46550	39.02
1.48217	39.02
1.49883	39.02
1.51550	39.02
1.53217	39.02
1.54883	39.02
1.56550	39.02
1.58217	39.02
1.59883	39.01
1.61550	39.01
1.63217	38.99
1.64883	38.97
1.66550	38.95
1.68217	38.91
1.69883	38.87
1.71550	38.84
1.73217	38.81
1.74883	38.78
1.76550	38.75
1.78217	38.72
1.79883	38.68
1.81550	38.65
1.83217	38.62
1.84883	38.59
1.86550	38.56
1.88217	38.53
1.89883	38.49
1.91550	38.46
1.93217	38.44
1.94883	38.40
1.96550	38.37
1.98217	38.35
1.99883	38.31
2.01550	38.28
2.03217	38.25
2.04883	38.22
2.06550	38.19
2.08217	38.16
2.09883	38.13
2.11550	38.10
2.13217	38.07
2.14883	38.04
2.16550	38.01
2.18217	37.99
2.19883	37.95
2.21550	37.92
2.23217	37.90
2.24883	37.86
2.26550	37.83
2.28217	37.81
2.29883	37.78
2.31550	37.75
2.33217	37.72
2.34883	37.69
2.36550	37.67
2.38217	37.66
2.39883	37.65
2.41550	37.66
2.43217	37.66
2.44883	37.66
2.46550	37.66
2.48217	37.65
2.49883	37.65
2.51550	37.64
2.53217	37.64
2.54883	37.65
2.56550	37.65
2.58217	37.65
2.59883	37.65
2.61550	37.65
2.63217	37.65
2.64883	37.64
2.66550	37.64
2.68217	37.64
2.69883	37.64
2.71550	37.64
2.73217	37.64
2.74883	37.64
2.76550	37.64
2.78217	37.64
2.79883	37.64
2.81550	37.64
2.83217	37.64
2.84883	37.64
2.86550	37.64
2.88217	37.63
2.89883	37.63
2.91550	37.63
2.93217	37.63
2.94883	37.63
2.96550	37.63
2.98217	37.63
2.99883	37.63
3.01550	37.63
3.03217	37.63
3.04883	37.62
3.06550	37.62
3.08217	37.62
3.09883	37.62
3.11550	37.62
3.13217	37.62
3.14883	37.62
3.16550	37.62
3.18217	37.62
3.19883	37.62
3.21550	37.62
3.23217	37.62
3.24883	37.62
3.26550	37.63
3.28217	37.63
3.29883	37.63
3.31550	37.63
3.33217	37.63
3.34883	37.63
3.36550	37.63
3.38217	37.63
3.39883	37.63
3.41550	37.63
3.43217	37.63
3.44883	37.63
3.46550	37.63
3.48217	37.63
3.49883	37.63
3.51550	37.63
3.53217	37.63
3.54883	37.63
3.56550	37.63
3.58217	37.63
3.59883	37.63
3.61550	37.63
3.63217	37.63
3.64883	37.63
3.66550	37.63
3.68217	37.63
3.69883	37.63
3.71550	37.63
3.73217	37.62
3.74883	37.62
3.76550	37.62
3.78217	37.62
3.79883	37.62
3.81550	37.62
3.83217	37.62
3.84883	37.62
3.86550	37.62
3.88217	37.62
3.89883	37.63
3.91550	37.63
3.93217	37.63
3.94883	37.63
3.96550	37.63
3.98217	37.63
3.99883	37.63

