[Header]
Application Name	LabSolutions
Version	5.110
Data File Name	C:\Users\User\Desktop\Junior\UIC Prairie Sampling\2023\8.18.23\081823_014.gcd
Output Date	8/31/2023
Output Time	12:48:07 PM

[File Information]
Type	Data File
Generated	8/30/2023 5:36:28 PM
Generated by	System Administrator
Modified	8/30/2023 5:42:52 PM
Modified by	System Administrator

[Sample Information]
Operator Name	System Administrator
Acquired	8/30/2023 5:38:52 PM
Sample Type	0:Unknown
Level	0
Sample Name	014
Sample ID	014
ISTD Amount1	1
ISTD Amount2	1
ISTD Amount3	1
ISTD Amount4	1
ISTD Amount5	1
ISTD Amount6	1
ISTD Amount7	1
ISTD Amount8	1
ISTD Amount9	1
ISTD Amount10	1
ISTD Amount11	1
ISTD Amount12	1
ISTD Amount13	1
ISTD Amount14	1
ISTD Amount15	1
ISTD Amount16	1
ISTD Amount17	1
ISTD Amount18	1
ISTD Amount19	1
ISTD Amount20	1
ISTD Amount21	1
ISTD Amount22	1
ISTD Amount23	1
ISTD Amount24	1
ISTD Amount25	1
ISTD Amount26	1
ISTD Amount27	1
ISTD Amount28	1
ISTD Amount29	1
ISTD Amount30	1
ISTD Amount31	1
ISTD Amount32	1
Sample Amount	1
Dilution Factor	1
Vial#	13
Injection Volume	1
Injection Count	1
Bar Code	

[Original Files]
Data File	C:\Users\User\Desktop\Junior\UIC Prairie Sampling\8.18.23\081823_014.gcd
Method File	C:\LabSolutions\Data\GHG_4min_2022\ghg3_togas_w_acet_4 min_new_int.gcm
Batch File	C:\LabSolutions\Data\BATCH FILES\081823.gcb
Report Format File	c:\LabSolutions\System\DEFAULT.lsr

[File Description]


[Configuration]
Instrument Name	C0B7VH3-Instrument1
Instrument #	1
Line #	1
# of Detectors	3
Detector ID	DET#1	DET#2	DET#3
Detector Name	FID	PTCD	ECD
# of Channels	1	1	1

[Peak Table(Ch1)]
# of Peaks	3
Peak#	R.Time	I.Time	F.Time	Area	Height	A/H	Conc.	Mark	ID#	Name	k'	Plate #	Plate Ht.	Tailing	Resolution	Sep.Factor	Area Ratio	Height Ratio	Conc. %	Norm Conc.
1	1.472	1.432	1.527	3966	1957	2.026	0.000	   	1	CO	0.000	9646	15.550	1.374	0.000	0.000	0	0	0.000	0.000
2	1.564	1.527	1.622	4617	2328	1.983	22.508	 V 	2	CH4	0.062	11457	13.092	1.134	1.549	0.000	0	0	9.671	9.671
3	1.989	1.941	2.484	1090791	523109	2.085	210.216	   	3	CO2	0.351	17563	8.541	1.297	7.181	5.640	0	0	90.329	90.329

[Peak Table(Ch2)]
# of Peaks	0

[Peak Table(Ch3)]
# of Peaks	5
Peak#	R.Time	I.Time	F.Time	Area	Height	A/H	Conc.	Mark	ID#	Name	k'	Plate #	Plate Ht.	Tailing	Resolution	Sep.Factor	Area Ratio	Height Ratio	Conc. %	Norm Conc.
1	2.458	2.440	2.506	719	276	2.603	0.000	   			0.000	13666	10.976	0.000	0.000	0.000	0	0	0.000	0.000
2	2.521	2.506	2.561	307	131	2.353	0.000	 V 			0.025	4663	32.167	0.000	0.538	0.000	0	0	0.000	0.000
3	2.616	2.561	2.708	453	104	4.336	0.000	 V 			0.064	7210	20.804	0.000	0.704	2.529	0	0	0.000	0.000
4	2.891	2.733	3.071	14712	3991	3.687	0.218	   	1	N2O	0.176	14014	10.703	1.478	2.490	2.744	0	0	100.000	100.000
5	3.188	3.100	3.965	23921	922	25.937	0.000	   	2	SF6	0.297	139	1081.778	4.893	0.503	1.686	0	0	0.000	0.000

[Compound Results(Ch1)]
# of IDs	6
ID#	Name	R.Time	Area	Height	Conc.	Curve	3rd	2nd	1st	Constant	Area Ratio	Height Ratio	Conc. %	Norm Conc.
1	CO	1.472	3966	1957	0.000	Linear	0.000000e+00	0.000000e+00	0.000000e+00	0.000000e+00	0	0	0.000	0.000
2	CH4	1.564	4617	2328	22.508	Linear	0.000000e+00	0.000000e+00	2.051179e+002	0.000000e+00	0	0	9.671	9.671
3	CO2	1.989	1090791	523109	210.216	Linear	0.000000e+00	0.000000e+00	5.188919e+003	0.000000e+00	0	0	90.329	90.329
4	Ethylene	0.000	0	0	0.000	Linear	0.000000e+00	0.000000e+00	0.000000e+00	0.000000e+00	0	0	0.000	0.000
5	Acetylene	0.000	0	0	0.000	Linear	0.000000e+00	0.000000e+00	0.000000e+00	0.000000e+00	0	0	0.000	0.000
6	Ethane	0.000	0	0	0.000	Linear	0.000000e+00	0.000000e+00	0.000000e+00	0.000000e+00	0	0	0.000	0.000

[Compound Results(Ch2)]
# of IDs	5
ID#	Name	R.Time	Area	Height	Conc.	Curve	3rd	2nd	1st	Constant	Area Ratio	Height Ratio	Conc. %	Norm Conc.
1	Hydrogen	0.000	0	0	0.000	Linear	0.000000e+00	0.000000e+00	0.000000e+00	0.000000e+00	0	0	0.000	0.000
2	Oxygen	0.000	0	0	0.000	Linear	0.000000e+00	0.000000e+00	0.000000e+00	0.000000e+00	0	0	0.000	0.000
3	Nitrogen	0.000	0	0	0.000	Linear	0.000000e+00	0.000000e+00	0.000000e+00	0.000000e+00	0	0	0.000	0.000
4	Methane	0.000	0	0	0.000	Linear	0.000000e+00	0.000000e+00	0.000000e+00	0.000000e+00	0	0	0.000	0.000
5	Carbon Monoxide	0.000	0	0	0.000	Linear	0.000000e+00	0.000000e+00	0.000000e+00	0.000000e+00	0	0	0.000	0.000

[Compound Results(Ch3)]
# of IDs	2
ID#	Name	R.Time	Area	Height	Conc.	Curve	3rd	2nd	1st	Constant	Area Ratio	Height Ratio	Conc. %	Norm Conc.
1	N2O	2.891	14712	3991	0.218	Linear	0.000000e+00	0.000000e+00	6.759880e+004	0.000000e+00	0	0	100.000	100.000
2	SF6	3.188	23921	922	0.000	Linear	0.000000e+00	0.000000e+00	0.000000e+00	0.000000e+00	0	0	0.000	0.000

[Group Results(Ch1)]
# of Groups	0

[Group Results(Ch2)]
# of Groups	0

[Group Results(Ch3)]
# of Groups	0

[Chromatogram (Ch1)]
Interval(msec)	220
# of Points	1091
Start Time(min)	0.002
End Time(min)	3.998
R.Time (min)	Intensity
0.00167	-14
0.00533	-14
0.00900	-12
0.01267	-8
0.01633	-5
0.02000	-5
0.02367	-8
0.02733	-12
0.03100	-14
0.03467	-15
0.03833	-16
0.04200	-16
0.04567	-14
0.04933	-12
0.05300	-10
0.05667	-12
0.06033	-14
0.06400	-16
0.06767	-16
0.07133	-14
0.07500	-11
0.07867	-10
0.08233	-10
0.08600	-11
0.08967	-12
0.09333	-15
0.09700	-16
0.10067	-16
0.10433	-18
0.10800	-23
0.11167	-25
0.11533	-24
0.11900	-23
0.12267	-23
0.12633	-23
0.13000	-22
0.13367	-20
0.13733	-16
0.14100	-12
0.14467	-8
0.14833	-8
0.15200	-13
0.15567	-16
0.15933	-12
0.16300	-6
0.16667	-2
0.17033	-2
0.17400	-3
0.17767	-6
0.18133	-9
0.18500	-14
0.18867	-18
0.19233	-17
0.19600	-16
0.19967	-18
0.20333	-18
0.20700	-16
0.21067	-16
0.21433	-21
0.21800	-28
0.22167	-31
0.22533	-31
0.22900	-28
0.23267	-25
0.23633	-25
0.24000	-29
0.24367	-33
0.24733	-36
0.25100	-37
0.25467	-36
0.25833	-32
0.26200	-27
0.26567	-24
0.26933	-25
0.27300	-27
0.27667	-27
0.28033	-24
0.28400	-21
0.28767	-19
0.29133	-17
0.29500	-15
0.29867	-16
0.30233	-19
0.30600	-24
0.30967	-27
0.31333	-31
0.31700	-35
0.32067	-36
0.32433	-34
0.32800	-29
0.33167	-25
0.33533	-23
0.33900	-21
0.34267	-19
0.34633	-18
0.35000	-17
0.35367	-17
0.35733	-19
0.36100	-24
0.36467	-29
0.36833	-31
0.37200	-29
0.37567	-25
0.37933	-21
0.38300	-20
0.38667	-19
0.39033	-17
0.39400	-13
0.39767	-8
0.40133	-4
0.40500	-1
0.40867	1
0.41233	0
0.41600	-1
0.41967	-3
0.42333	-5
0.42700	-10
0.43067	-15
0.43433	-16
0.43800	-13
0.44167	-7
0.44533	-1
0.44900	4
0.45267	8
0.45633	11
0.46000	15
0.46367	17
0.46733	19
0.47100	20
0.47467	18
0.47833	18
0.48200	17
0.48567	16
0.48933	16
0.49300	12
0.49667	8
0.50033	6
0.50400	8
0.50767	16
0.51133	26
0.51500	36
0.51867	45
0.52233	52
0.52600	56
0.52967	59
0.53333	59
0.53700	59
0.54067	56
0.54433	52
0.54800	49
0.55167	49
0.55533	52
0.55900	56
0.56267	57
0.56633	54
0.57000	47
0.57367	42
0.57733	38
0.58100	35
0.58467	36
0.58833	36
0.59200	39
0.59567	41
0.59933	43
0.60300	44
0.60667	40
0.61033	30
0.61400	19
0.61767	5
0.62133	-9
0.62500	-20
0.62867	-31
0.63233	-37
0.63600	-35
0.63967	-29
0.64333	-23
0.64700	-21
0.65067	-22
0.65433	-21
0.65800	-19
0.66167	-15
0.66533	-11
0.66900	-8
0.67267	-4
0.67633	-4
0.68000	-7
0.68367	-8
0.68733	-9
0.69100	-9
0.69467	-11
0.69833	-11
0.70200	-14
0.70567	-16
0.70933	-17
0.71300	-20
0.71667	-22
0.72033	-20
0.72400	-16
0.72767	-13
0.73133	-12
0.73500	-13
0.73867	-16
0.74233	-19
0.74600	-24
0.74967	-26
0.75333	-23
0.75700	-16
0.76067	-8
0.76433	-5
0.76800	-8
0.77167	-14
0.77533	-21
0.77900	-20
0.78267	-15
0.78633	-9
0.79000	-4
0.79367	-2
0.79733	-2
0.80100	-9
0.80467	-20
0.80833	-37
0.81200	-53
0.81567	-64
0.81933	-67
0.82300	-62
0.82667	-51
0.83033	-42
0.83400	-38
0.83767	-35
0.84133	-34
0.84500	-32
0.84867	-31
0.85233	-31
0.85600	-32
0.85967	-34
0.86333	-37
0.86700	-37
0.87067	-37
0.87433	-36
0.87800	-35
0.88167	-34
0.88533	-32
0.88900	-31
0.89267	-28
0.89633	-26
0.90000	-27
0.90367	-30
0.90733	-33
0.91100	-34
0.91467	-34
0.91833	-34
0.92200	-30
0.92567	-22
0.92933	-14
0.93300	-10
0.93667	-6
0.94033	-4
0.94400	-8
0.94767	-16
0.95133	-26
0.95500	-30
0.95867	-30
0.96233	-27
0.96600	-25
0.96967	-23
0.97333	-21
0.97700	-21
0.98067	-20
0.98433	-21
0.98800	-21
0.99167	-22
0.99533	-21
0.99900	-18
1.00267	-14
1.00633	-8
1.01000	-5
1.01367	-7
1.01733	-14
1.02100	-22
1.02467	-24
1.02833	-24
1.03200	-23
1.03567	-23
1.03933	-24
1.04300	-26
1.04667	-28
1.05033	-27
1.05400	-27
1.05767	-29
1.06133	-33
1.06500	-35
1.06867	-36
1.07233	-37
1.07600	-36
1.07967	-37
1.08333	-37
1.08700	-37
1.09067	-36
1.09433	-35
1.09800	-30
1.10167	-24
1.10533	-21
1.10900	-18
1.11267	-17
1.11633	-17
1.12000	-18
1.12367	-21
1.12733	-23
1.13100	-20
1.13467	-15
1.13833	-11
1.14200	-14
1.14567	-17
1.14933	-18
1.15300	-17
1.15667	-17
1.16033	-20
1.16400	-24
1.16767	-26
1.17133	-28
1.17500	-31
1.17867	-34
1.18233	-35
1.18600	-36
1.18967	-35
1.19333	-32
1.19700	-24
1.20067	-20
1.20433	-20
1.20800	-22
1.21167	-22
1.21533	-24
1.21900	-30
1.22267	-36
1.22633	-41
1.23000	-41
1.23367	-40
1.23733	-40
1.24100	-41
1.24467	-42
1.24833	-41
1.25200	-39
1.25567	-35
1.25933	-29
1.26300	-25
1.26667	-23
1.27033	-22
1.27400	-23
1.27767	-25
1.28133	-27
1.28500	-28
1.28867	-27
1.29233	-28
1.29600	-32
1.29967	-37
1.30333	-42
1.30700	-47
1.31067	-48
1.31433	-47
1.31800	-45
1.32167	-45
1.32533	-45
1.32900	-47
1.33267	-48
1.33633	-45
1.34000	-39
1.34367	-34
1.34733	-34
1.35100	-32
1.35467	-30
1.35833	-28
1.36200	-28
1.36567	-28
1.36933	-30
1.37300	-31
1.37667	-34
1.38033	-35
1.38400	-34
1.38767	-32
1.39133	-27
1.39500	-20
1.39867	-16
1.40233	-16
1.40600	-21
1.40967	-30
1.41333	-40
1.41700	-46
1.42067	-48
1.42433	-48
1.42800	-47
1.43167	-41
1.43533	-26
1.43900	-7
1.44267	-3
1.44633	39
1.45000	218
1.45367	545
1.45733	933
1.46100	1297
1.46467	1598
1.46833	1815
1.47200	1915
1.47567	1867
1.47933	1678
1.48300	1396
1.48667	1091
1.49033	812
1.49400	581
1.49767	401
1.50133	271
1.50500	180
1.50867	118
1.51233	78
1.51600	55
1.51967	42
1.52333	31
1.52700	22
1.53067	20
1.53433	56
1.53800	192
1.54167	479
1.54533	893
1.54900	1348
1.55267	1756
1.55633	2068
1.56000	2254
1.56367	2283
1.56733	2135
1.57100	1835
1.57467	1456
1.57833	1081
1.58200	761
1.58567	513
1.58933	333
1.59300	209
1.59667	127
1.60033	70
1.60400	29
1.60767	2
1.61133	-18
1.61500	-32
1.61867	-42
1.62233	-47
1.62600	-50
1.62967	-51
1.63333	-49
1.63700	-41
1.64067	-33
1.64433	-28
1.64800	-26
1.65167	-27
1.65533	-32
1.65900	-36
1.66267	-37
1.66633	-37
1.67000	-38
1.67367	-43
1.67733	-46
1.68100	-45
1.68467	-41
1.68833	-38
1.69200	-37
1.69567	-38
1.69933	-38
1.70300	-39
1.70667	-39
1.71033	-38
1.71400	-36
1.71767	-33
1.72133	-32
1.72500	-32
1.72867	-31
1.73233	-32
1.73600	-35
1.73967	-39
1.74333	-43
1.74700	-43
1.75067	-43
1.75433	-46
1.75800	-49
1.76167	-51
1.76533	-53
1.76900	-52
1.77267	-50
1.77633	-47
1.78000	-47
1.78367	-47
1.78733	-47
1.79100	-46
1.79467	-45
1.79833	-45
1.80200	-45
1.80567	-43
1.80933	-42
1.81300	-43
1.81667	-48
1.82033	-50
1.82400	-50
1.82767	-52
1.83133	-54
1.83500	-53
1.83867	-50
1.84233	-46
1.84600	-46
1.84967	-49
1.85333	-54
1.85700	-58
1.86067	-63
1.86433	-68
1.86800	-70
1.87167	-71
1.87533	-71
1.87900	-68
1.88267	-63
1.88633	-58
1.89000	-52
1.89367	-47
1.89733	-43
1.90100	-43
1.90467	-47
1.90833	-54
1.91200	-59
1.91567	-62
1.91933	-63
1.92300	-63
1.92667	-63
1.93033	-60
1.93400	-55
1.93767	-51
1.94133	-47
1.94500	-36
1.94867	45
1.95233	537
1.95600	2821
1.95967	10807
1.96333	32022
1.96700	75748
1.97067	146896
1.97433	240115
1.97800	340352
1.98167	429925
1.98533	494063
1.98900	523082
1.99267	513209
1.99633	468264
2.00000	399246
2.00367	320400
2.00733	244397
2.01100	179249
2.01467	127927
2.01833	89858
2.02200	62770
2.02567	44024
2.02933	31269
2.03300	22663
2.03667	16860
2.04033	12921
2.04400	10214
2.04767	8322
2.05133	6971
2.05500	5976
2.05867	5221
2.06233	4632
2.06600	4164
2.06967	3784
2.07333	3469
2.07700	3204
2.08067	2980
2.08433	2786
2.08800	2616
2.09167	2468
2.09533	2338
2.09900	2221
2.10267	2115
2.10633	2017
2.11000	1924
2.11367	1837
2.11733	1755
2.12100	1680
2.12467	1614
2.12833	1557
2.13200	1504
2.13567	1449
2.13933	1395
2.14300	1344
2.14667	1295
2.15033	1250
2.15400	1211
2.15767	1175
2.16133	1138
2.16500	1100
2.16867	1062
2.17233	1025
2.17600	989
2.17967	959
2.18333	932
2.18700	906
2.19067	881
2.19433	860
2.19800	839
2.20167	815
2.20533	792
2.20900	775
2.21267	761
2.21633	748
2.22000	734
2.22367	719
2.22733	702
2.23100	686
2.23467	667
2.23833	647
2.24200	626
2.24567	607
2.24933	590
2.25300	575
2.25667	563
2.26033	553
2.26400	545
2.26767	537
2.27133	527
2.27500	517
2.27867	506
2.28233	495
2.28600	484
2.28967	474
2.29333	467
2.29700	456
2.30067	443
2.30433	430
2.30800	420
2.31167	410
2.31533	400
2.31900	390
2.32267	386
2.32633	384
2.33000	380
2.33367	372
2.33733	364
2.34100	357
2.34467	353
2.34833	354
2.35200	357
2.35567	358
2.35933	353
2.36300	349
2.36667	345
2.37033	339
2.37400	331
2.37767	320
2.38133	309
2.38500	296
2.38867	287
2.39233	281
2.39600	276
2.39967	272
2.40333	272
2.40700	273
2.41067	273
2.41433	271
2.41800	268
2.42167	265
2.42533	264
2.42900	262
2.43267	257
2.43633	252
2.44000	246
2.44367	240
2.44733	235
2.45100	231
2.45467	229
2.45833	230
2.46200	230
2.46567	228
2.46933	221
2.47300	211
2.47667	201
2.48033	193
2.48400	188
2.48767	184
2.49133	183
2.49500	184
2.49867	187
2.50233	189
2.50600	189
2.50967	187
2.51333	187
2.51700	189
2.52067	192
2.52433	193
2.52800	191
2.53167	187
2.53533	183
2.53900	178
2.54267	170
2.54633	162
2.55000	157
2.55367	153
2.55733	149
2.56100	145
2.56467	141
2.56833	139
2.57200	138
2.57567	137
2.57933	138
2.58300	141
2.58667	144
2.59033	146
2.59400	145
2.59767	142
2.60133	138
2.60500	134
2.60867	132
2.61233	130
2.61600	128
2.61967	124
2.62333	120
2.62700	121
2.63067	124
2.63433	127
2.63800	127
2.64167	127
2.64533	125
2.64900	123
2.65267	119
2.65633	114
2.66000	106
2.66367	97
2.66733	90
2.67100	90
2.67467	93
2.67833	95
2.68200	99
2.68567	105
2.68933	113
2.69300	116
2.69667	117
2.70033	115
2.70400	112
2.70767	110
2.71133	110
2.71500	107
2.71867	102
2.72233	96
2.72600	87
2.72967	80
2.73333	74
2.73700	72
2.74067	74
2.74433	80
2.74800	86
2.75167	90
2.75533	92
2.75900	94
2.76267	93
2.76633	90
2.77000	89
2.77367	87
2.77733	84
2.78100	81
2.78467	78
2.78833	77
2.79200	76
2.79567	75
2.79933	75
2.80300	76
2.80667	76
2.81033	78
2.81400	83
2.81767	92
2.82133	99
2.82500	101
2.82867	94
2.83233	80
2.83600	63
2.83967	51
2.84333	47
2.84700	47
2.85067	46
2.85433	45
2.85800	46
2.86167	48
2.86533	48
2.86900	47
2.87267	45
2.87633	44
2.88000	47
2.88367	53
2.88733	59
2.89100	61
2.89467	61
2.89833	57
2.90200	53
2.90567	51
2.90933	50
2.91300	52
2.91667	52
2.92033	51
2.92400	48
2.92767	44
2.93133	42
2.93500	41
2.93867	45
2.94233	47
2.94600	48
2.94967	50
2.95333	53
2.95700	56
2.96067	60
2.96433	61
2.96800	58
2.97167	53
2.97533	48
2.97900	48
2.98267	52
2.98633	56
2.99000	60
2.99367	64
2.99733	66
3.00100	65
3.00467	60
3.00833	52
3.01200	46
3.01567	42
3.01933	39
3.02300	35
3.02667	32
3.03033	30
3.03400	29
3.03767	30
3.04133	32
3.04500	34
3.04867	34
3.05233	34
3.05600	35
3.05967	37
3.06333	41
3.06700	44
3.07067	46
3.07433	48
3.07800	52
3.08167	52
3.08533	46
3.08900	37
3.09267	31
3.09633	27
3.10000	22
3.10367	20
3.10733	22
3.11100	27
3.11467	29
3.11833	29
3.12200	25
3.12567	23
3.12933	24
3.13300	26
3.13667	28
3.14033	29
3.14400	29
3.14767	29
3.15133	27
3.15500	23
3.15867	18
3.16233	13
3.16600	9
3.16967	4
3.17333	4
3.17700	10
3.18067	16
3.18433	23
3.18800	27
3.19167	28
3.19533	25
3.19900	22
3.20267	19
3.20633	16
3.21000	13
3.21367	10
3.21733	12
3.22100	19
3.22467	27
3.22833	29
3.23200	26
3.23567	21
3.23933	16
3.24300	12
3.24667	9
3.25033	9
3.25400	11
3.25767	12
3.26133	14
3.26500	15
3.26867	13
3.27233	10
3.27600	8
3.27967	7
3.28333	9
3.28700	12
3.29067	11
3.29433	9
3.29800	6
3.30167	1
3.30533	-1
3.30900	-3
3.31267	-6
3.31633	-6
3.32000	-5
3.32367	-2
3.32733	2
3.33100	8
3.33467	16
3.33833	23
3.34200	26
3.34567	24
3.34933	15
3.35300	8
3.35667	2
3.36033	-3
3.36400	-8
3.36767	-12
3.37133	-13
3.37500	-13
3.37867	-13
3.38233	-13
3.38600	-16
3.38967	-17
3.39333	-17
3.39700	-15
3.40067	-9
3.40433	-6
3.40800	-7
3.41167	-7
3.41533	-5
3.41900	-1
3.42267	2
3.42633	4
3.43000	2
3.43367	-1
3.43733	-2
3.44100	-1
3.44467	0
3.44833	2
3.45200	6
3.45567	7
3.45933	3
3.46300	-2
3.46667	-3
3.47033	-6
3.47400	-7
3.47767	-6
3.48133	-5
3.48500	-3
3.48867	-1
3.49233	0
3.49600	1
3.49967	-2
3.50333	-9
3.50700	-18
3.51067	-27
3.51433	-36
3.51800	-43
3.52167	-45
3.52533	-43
3.52900	-39
3.53267	-34
3.53633	-30
3.54000	-27
3.54367	-25
3.54733	-23
3.55100	-20
3.55467	-19
3.55833	-21
3.56200	-23
3.56567	-22
3.56933	-20
3.57300	-17
3.57667	-15
3.58033	-13
3.58400	-12
3.58767	-11
3.59133	-12
3.59500	-14
3.59867	-14
3.60233	-12
3.60600	-11
3.60967	-15
3.61333	-20
3.61700	-24
3.62067	-25
3.62433	-25
3.62800	-25
3.63167	-23
3.63533	-20
3.63900	-20
3.64267	-21
3.64633	-22
3.65000	-24
3.65367	-23
3.65733	-22
3.66100	-21
3.66467	-21
3.66833	-24
3.67200	-28
3.67567	-31
3.67933	-32
3.68300	-32
3.68667	-30
3.69033	-30
3.69400	-26
3.69767	-22
3.70133	-21
3.70500	-20
3.70867	-20
3.71233	-17
3.71600	-16
3.71967	-18
3.72333	-20
3.72700	-19
3.73067	-17
3.73433	-20
3.73800	-26
3.74167	-29
3.74533	-31
3.74900	-31
3.75267	-29
3.75633	-26
3.76000	-25
3.76367	-27
3.76733	-29
3.77100	-32
3.77467	-36
3.77833	-38
3.78200	-39
3.78567	-42
3.78933	-46
3.79300	-47
3.79667	-45
3.80033	-41
3.80400	-36
3.80767	-33
3.81133	-30
3.81500	-28
3.81867	-28
3.82233	-31
3.82600	-32
3.82967	-32
3.83333	-35
3.83700	-39
3.84067	-43
3.84433	-48
3.84800	-51
3.85167	-51
3.85533	-48
3.85900	-43
3.86267	-39
3.86633	-34
3.87000	-28
3.87367	-24
3.87733	-22
3.88100	-20
3.88467	-20
3.88833	-25
3.89200	-34
3.89567	-40
3.89933	-43
3.90300	-44
3.90667	-44
3.91033	-44
3.91400	-45
3.91767	-44
3.92133	-43
3.92500	-43
3.92867	-42
3.93233	-43
3.93600	-43
3.93967	-43
3.94333	-44
3.94700	-44
3.95067	-40
3.95433	-36
3.95800	-33
3.96167	-34
3.96533	-37
3.96900	-40
3.97267	-42
3.97633	-45
3.98000	-50
3.98367	-51
3.98733	-51
3.99100	-51
3.99467	-51
3.99833	-51

[Chromatogram (Ch2)]
Interval(msec)	220
# of Points	1091
Start Time(min)	0.002
End Time(min)	3.998
R.Time (min)	Intensity
0.00167	0
0.00533	0
0.00900	0
0.01267	0
0.01633	0
0.02000	0
0.02367	0
0.02733	0
0.03100	-0
0.03467	-0
0.03833	-0
0.04200	0
0.04567	0
0.04933	0
0.05300	0
0.05667	0
0.06033	0
0.06400	0
0.06767	0
0.07133	1
0.07500	0
0.07867	0
0.08233	0
0.08600	0
0.08967	0
0.09333	1
0.09700	1
0.10067	1
0.10433	1
0.10800	2
0.11167	2
0.11533	2
0.11900	2
0.12267	2
0.12633	2
0.13000	2
0.13367	2
0.13733	2
0.14100	2
0.14467	2
0.14833	1
0.15200	1
0.15567	1
0.15933	1
0.16300	1
0.16667	1
0.17033	1
0.17400	1
0.17767	1
0.18133	1
0.18500	1
0.18867	0
0.19233	0
0.19600	0
0.19967	0
0.20333	-0
0.20700	-1
0.21067	-1
0.21433	-1
0.21800	-1
0.22167	-1
0.22533	-1
0.22900	-1
0.23267	-1
0.23633	-1
0.24000	-1
0.24367	-1
0.24733	-1
0.25100	-1
0.25467	-1
0.25833	-0
0.26200	0
0.26567	0
0.26933	1
0.27300	1
0.27667	1
0.28033	1
0.28400	1
0.28767	0
0.29133	0
0.29500	-0
0.29867	-1
0.30233	-1
0.30600	-1
0.30967	-1
0.31333	-0
0.31700	-1
0.32067	-0
0.32433	-0
0.32800	-0
0.33167	-0
0.33533	-0
0.33900	-0
0.34267	-0
0.34633	-0
0.35000	-1
0.35367	-1
0.35733	-1
0.36100	-1
0.36467	-1
0.36833	-1
0.37200	-1
0.37567	-1
0.37933	-1
0.38300	-0
0.38667	-0
0.39033	-0
0.39400	-0
0.39767	-0
0.40133	-0
0.40500	-0
0.40867	-0
0.41233	-0
0.41600	-0
0.41967	-0
0.42333	-0
0.42700	-0
0.43067	0
0.43433	0
0.43800	1
0.44167	1
0.44533	1
0.44900	1
0.45267	0
0.45633	0
0.46000	0
0.46367	0
0.46733	-0
0.47100	-0
0.47467	-0
0.47833	0
0.48200	0
0.48567	0
0.48933	1
0.49300	1
0.49667	1
0.50033	1
0.50400	1
0.50767	1
0.51133	1
0.51500	1
0.51867	1
0.52233	1
0.52600	1
0.52967	0
0.53333	0
0.53700	0
0.54067	-0
0.54433	-0
0.54800	-0
0.55167	-0
0.55533	-0
0.55900	-1
0.56267	-0
0.56633	-0
0.57000	-0
0.57367	0
0.57733	0
0.58100	0
0.58467	0
0.58833	1
0.59200	1
0.59567	1
0.59933	1
0.60300	0
0.60667	0
0.61033	0
0.61400	-0
0.61767	-1
0.62133	-1
0.62500	-1
0.62867	-1
0.63233	-2
0.63600	-2
0.63967	-2
0.64333	-2
0.64700	-2
0.65067	-1
0.65433	-1
0.65800	-1
0.66167	-1
0.66533	-1
0.66900	-0
0.67267	-0
0.67633	-0
0.68000	-0
0.68367	-0
0.68733	-0
0.69100	0
0.69467	0
0.69833	1
0.70200	0
0.70567	0
0.70933	0
0.71300	0
0.71667	0
0.72033	-0
0.72400	-0
0.72767	-1
0.73133	-1
0.73500	-1
0.73867	-1
0.74233	-1
0.74600	-0
0.74967	-0
0.75333	-1
0.75700	-1
0.76067	-1
0.76433	-1
0.76800	-1
0.77167	-1
0.77533	-1
0.77900	-1
0.78267	-2
0.78633	-2
0.79000	-2
0.79367	-2
0.79733	-1
0.80100	-1
0.80467	-1
0.80833	-1
0.81200	-1
0.81567	-0
0.81933	-0
0.82300	-0
0.82667	-1
0.83033	-1
0.83400	-1
0.83767	-1
0.84133	-1
0.84500	-1
0.84867	-1
0.85233	-1
0.85600	-1
0.85967	-2
0.86333	-2
0.86700	-2
0.87067	-1
0.87433	-1
0.87800	-1
0.88167	-1
0.88533	-1
0.88900	-1
0.89267	-1
0.89633	-1
0.90000	-1
0.90367	-2
0.90733	-2
0.91100	-2
0.91467	-2
0.91833	-2
0.92200	-1
0.92567	-1
0.92933	-0
0.93300	-0
0.93667	-0
0.94033	-0
0.94400	0
0.94767	0
0.95133	0
0.95500	0
0.95867	0
0.96233	0
0.96600	-0
0.96967	-0
0.97333	-1
0.97700	-1
0.98067	-1
0.98433	-1
0.98800	-1
0.99167	-1
0.99533	-1
0.99900	-1
1.00267	-1
1.00633	-1
1.01000	-1
1.01367	-1
1.01733	-1
1.02100	-2
1.02467	-2
1.02833	-2
1.03200	-2
1.03567	-2
1.03933	-2
1.04300	-2
1.04667	-1
1.05033	-1
1.05400	-1
1.05767	-1
1.06133	-1
1.06500	-1
1.06867	-1
1.07233	-1
1.07600	-1
1.07967	-1
1.08333	-1
1.08700	-1
1.09067	-1
1.09433	-1
1.09800	-1
1.10167	-1
1.10533	-1
1.10900	-1
1.11267	-1
1.11633	-1
1.12000	-1
1.12367	-1
1.12733	-1
1.13100	-1
1.13467	-1
1.13833	-1
1.14200	-1
1.14567	-1
1.14933	-1
1.15300	-1
1.15667	-1
1.16033	-1
1.16400	-1
1.16767	-1
1.17133	-2
1.17500	-2
1.17867	-2
1.18233	-2
1.18600	-3
1.18967	-3
1.19333	-3
1.19700	-3
1.20067	-3
1.20433	-3
1.20800	-3
1.21167	-2
1.21533	-2
1.21900	-2
1.22267	-2
1.22633	-1
1.23000	-1
1.23367	-1
1.23733	-1
1.24100	-0
1.24467	-0
1.24833	-0
1.25200	-0
1.25567	-0
1.25933	-0
1.26300	-1
1.26667	-1
1.27033	-1
1.27400	-2
1.27767	-2
1.28133	-2
1.28500	-1
1.28867	-1
1.29233	-1
1.29600	-1
1.29967	-1
1.30333	-1
1.30700	-1
1.31067	-1
1.31433	-1
1.31800	-1
1.32167	-1
1.32533	-1
1.32900	-2
1.33267	-2
1.33633	-2
1.34000	-2
1.34367	-2
1.34733	-2
1.35100	-3
1.35467	-3
1.35833	-3
1.36200	-2
1.36567	-2
1.36933	-2
1.37300	-2
1.37667	-2
1.38033	-2
1.38400	-2
1.38767	-2
1.39133	-2
1.39500	-2
1.39867	-2
1.40233	-2
1.40600	-2
1.40967	-2
1.41333	-2
1.41700	-2
1.42067	-2
1.42433	-2
1.42800	-2
1.43167	-2
1.43533	-2
1.43900	-2
1.44267	-2
1.44633	-1
1.45000	-1
1.45367	-1
1.45733	-2
1.46100	-2
1.46467	-2
1.46833	-2
1.47200	-2
1.47567	-2
1.47933	-2
1.48300	-2
1.48667	-2
1.49033	-2
1.49400	-2
1.49767	-1
1.50133	-1
1.50500	-1
1.50867	-1
1.51233	-1
1.51600	-1
1.51967	-1
1.52333	-1
1.52700	-1
1.53067	-1
1.53433	-1
1.53800	-1
1.54167	-1
1.54533	-1
1.54900	-1
1.55267	-1
1.55633	-1
1.56000	-1
1.56367	-2
1.56733	-2
1.57100	-3
1.57467	-3
1.57833	-3
1.58200	-4
1.58567	-4
1.58933	-4
1.59300	-4
1.59667	-4
1.60033	-4
1.60400	-5
1.60767	-6
1.61133	-8
1.61500	-9
1.61867	-11
1.62233	-14
1.62600	-16
1.62967	-19
1.63333	-22
1.63700	-25
1.64067	-28
1.64433	-31
1.64800	-35
1.65167	-38
1.65533	-41
1.65900	-45
1.66267	-48
1.66633	-52
1.67000	-57
1.67367	-62
1.67733	-67
1.68100	-72
1.68467	-77
1.68833	-81
1.69200	-84
1.69567	-87
1.69933	-89
1.70300	-91
1.70667	-93
1.71033	-93
1.71400	-94
1.71767	-94
1.72133	-95
1.72500	-94
1.72867	-94
1.73233	-94
1.73600	-94
1.73967	-93
1.74333	-93
1.74700	-93
1.75067	-93
1.75433	-93
1.75800	-94
1.76167	-95
1.76533	-96
1.76900	-97
1.77267	-98
1.77633	-98
1.78000	-99
1.78367	-99
1.78733	-100
1.79100	-100
1.79467	-99
1.79833	-99
1.80200	-99
1.80567	-99
1.80933	-99
1.81300	-99
1.81667	-99
1.82033	-99
1.82400	-99
1.82767	-99
1.83133	-100
1.83500	-100
1.83867	-100
1.84233	-100
1.84600	-100
1.84967	-100
1.85333	-100
1.85700	-100
1.86067	-100
1.86433	-100
1.86800	-100
1.87167	-101
1.87533	-101
1.87900	-101
1.88267	-101
1.88633	-101
1.89000	-100
1.89367	-99
1.89733	-99
1.90100	-98
1.90467	-98
1.90833	-98
1.91200	-97
1.91567	-97
1.91933	-97
1.92300	-97
1.92667	-97
1.93033	-97
1.93400	-97
1.93767	-98
1.94133	-97
1.94500	-97
1.94867	-97
1.95233	-96
1.95600	-95
1.95967	-94
1.96333	-94
1.96700	-94
1.97067	-93
1.97433	-93
1.97800	-93
1.98167	-92
1.98533	-92
1.98900	-92
1.99267	-92
1.99633	-92
2.00000	-93
2.00367	-93
2.00733	-93
2.01100	-93
2.01467	-93
2.01833	-92
2.02200	-91
2.02567	-90
2.02933	-90
2.03300	-89
2.03667	-88
2.04033	-88
2.04400	-87
2.04767	-87
2.05133	-87
2.05500	-87
2.05867	-87
2.06233	-86
2.06600	-86
2.06967	-86
2.07333	-86
2.07700	-87
2.08067	-87
2.08433	-87
2.08800	-87
2.09167	-87
2.09533	-86
2.09900	-86
2.10267	-85
2.10633	-85
2.11000	-84
2.11367	-84
2.11733	-84
2.12100	-84
2.12467	-84
2.12833	-84
2.13200	-84
2.13567	-83
2.13933	-83
2.14300	-83
2.14667	-82
2.15033	-82
2.15400	-81
2.15767	-81
2.16133	-81
2.16500	-81
2.16867	-81
2.17233	-81
2.17600	-81
2.17967	-80
2.18333	-80
2.18700	-79
2.19067	-79
2.19433	-78
2.19800	-78
2.20167	-78
2.20533	-78
2.20900	-78
2.21267	-77
2.21633	-77
2.22000	-77
2.22367	-76
2.22733	-76
2.23100	-76
2.23467	-76
2.23833	-76
2.24200	-76
2.24567	-75
2.24933	-75
2.25300	-74
2.25667	-73
2.26033	-72
2.26400	-72
2.26767	-72
2.27133	-72
2.27500	-72
2.27867	-71
2.28233	-71
2.28600	-70
2.28967	-70
2.29333	-70
2.29700	-69
2.30067	-69
2.30433	-69
2.30800	-70
2.31167	-71
2.31533	-71
2.31900	-72
2.32267	-72
2.32633	-72
2.33000	-71
2.33367	-71
2.33733	-70
2.34100	-69
2.34467	-68
2.34833	-67
2.35200	-65
2.35567	-64
2.35933	-62
2.36300	-61
2.36667	-59
2.37033	-57
2.37400	-55
2.37767	-52
2.38133	-49
2.38500	-45
2.38867	-41
2.39233	-38
2.39600	-34
2.39967	-30
2.40333	-26
2.40700	-22
2.41067	-18
2.41433	-14
2.41800	-11
2.42167	-9
2.42533	-6
2.42900	-4
2.43267	-2
2.43633	-0
2.44000	1
2.44367	2
2.44733	4
2.45100	5
2.45467	6
2.45833	7
2.46200	7
2.46567	8
2.46933	9
2.47300	10
2.47667	11
2.48033	12
2.48400	12
2.48767	13
2.49133	13
2.49500	14
2.49867	14
2.50233	15
2.50600	15
2.50967	16
2.51333	17
2.51700	17
2.52067	18
2.52433	18
2.52800	18
2.53167	17
2.53533	16
2.53900	15
2.54267	14
2.54633	13
2.55000	13
2.55367	13
2.55733	13
2.56100	12
2.56467	12
2.56833	11
2.57200	11
2.57567	11
2.57933	11
2.58300	11
2.58667	12
2.59033	13
2.59400	14
2.59767	14
2.60133	15
2.60500	16
2.60867	16
2.61233	17
2.61600	17
2.61967	17
2.62333	17
2.62700	17
2.63067	18
2.63433	18
2.63800	18
2.64167	18
2.64533	18
2.64900	19
2.65267	19
2.65633	19
2.66000	20
2.66367	20
2.66733	21
2.67100	21
2.67467	21
2.67833	22
2.68200	22
2.68567	22
2.68933	23
2.69300	23
2.69667	24
2.70033	24
2.70400	25
2.70767	25
2.71133	26
2.71500	26
2.71867	26
2.72233	26
2.72600	26
2.72967	25
2.73333	25
2.73700	25
2.74067	25
2.74433	25
2.74800	25
2.75167	25
2.75533	25
2.75900	25
2.76267	25
2.76633	26
2.77000	26
2.77367	26
2.77733	27
2.78100	27
2.78467	28
2.78833	28
2.79200	28
2.79567	28
2.79933	28
2.80300	28
2.80667	28
2.81033	27
2.81400	27
2.81767	27
2.82133	26
2.82500	26
2.82867	26
2.83233	25
2.83600	25
2.83967	26
2.84333	26
2.84700	26
2.85067	26
2.85433	26
2.85800	24
2.86167	21
2.86533	16
2.86900	8
2.87267	-4
2.87633	-21
2.88000	-42
2.88367	-69
2.88733	-101
2.89100	-139
2.89467	-182
2.89833	-230
2.90200	-282
2.90567	-339
2.90933	-398
2.91300	-461
2.91667	-525
2.92033	-590
2.92400	-655
2.92767	-719
2.93133	-781
2.93500	-840
2.93867	-895
2.94233	-950
2.94600	-1005
2.94967	-1058
2.95333	-1100
2.95700	-1121
2.96067	-1118
2.96433	-1090
2.96800	-1040
2.97167	-975
2.97533	-899
2.97900	-818
2.98267	-736
2.98633	-656
2.99000	-579
2.99367	-508
2.99733	-443
3.00100	-383
3.00467	-330
3.00833	-283
3.01200	-242
3.01567	-206
3.01933	-175
3.02300	-148
3.02667	-124
3.03033	-104
3.03400	-86
3.03767	-71
3.04133	-58
3.04500	-48
3.04867	-38
3.05233	-30
3.05600	-24
3.05967	-18
3.06333	-13
3.06700	-9
3.07067	-5
3.07433	-2
3.07800	0
3.08167	2
3.08533	4
3.08900	6
3.09267	8
3.09633	9
3.10000	10
3.10367	11
3.10733	12
3.11100	13
3.11467	13
3.11833	14
3.12200	14
3.12567	15
3.12933	16
3.13300	16
3.13667	17
3.14033	18
3.14400	18
3.14767	18
3.15133	18
3.15500	19
3.15867	19
3.16233	19
3.16600	19
3.16967	20
3.17333	20
3.17700	20
3.18067	21
3.18433	21
3.18800	22
3.19167	22
3.19533	22
3.19900	23
3.20267	23
3.20633	23
3.21000	24
3.21367	24
3.21733	24
3.22100	25
3.22467	25
3.22833	25
3.23200	25
3.23567	25
3.23933	25
3.24300	26
3.24667	26
3.25033	27
3.25400	27
3.25767	27
3.26133	27
3.26500	28
3.26867	28
3.27233	28
3.27600	28
3.27967	28
3.28333	28
3.28700	28
3.29067	28
3.29433	28
3.29800	28
3.30167	29
3.30533	29
3.30900	29
3.31267	29
3.31633	29
3.32000	29
3.32367	29
3.32733	29
3.33100	29
3.33467	29
3.33833	29
3.34200	29
3.34567	29
3.34933	29
3.35300	29
3.35667	29
3.36033	29
3.36400	29
3.36767	29
3.37133	29
3.37500	29
3.37867	29
3.38233	29
3.38600	29
3.38967	29
3.39333	28
3.39700	28
3.40067	28
3.40433	28
3.40800	28
3.41167	28
3.41533	28
3.41900	28
3.42267	28
3.42633	28
3.43000	28
3.43367	28
3.43733	28
3.44100	28
3.44467	28
3.44833	28
3.45200	29
3.45567	29
3.45933	29
3.46300	29
3.46667	29
3.47033	29
3.47400	29
3.47767	29
3.48133	29
3.48500	29
3.48867	29
3.49233	29
3.49600	28
3.49967	28
3.50333	28
3.50700	28
3.51067	28
3.51433	27
3.51800	27
3.52167	28
3.52533	28
3.52900	28
3.53267	28
3.53633	28
3.54000	28
3.54367	29
3.54733	29
3.55100	29
3.55467	29
3.55833	29
3.56200	29
3.56567	29
3.56933	29
3.57300	29
3.57667	29
3.58033	29
3.58400	29
3.58767	29
3.59133	29
3.59500	29
3.59867	29
3.60233	29
3.60600	29
3.60967	29
3.61333	29
3.61700	29
3.62067	29
3.62433	29
3.62800	29
3.63167	28
3.63533	28
3.63900	28
3.64267	28
3.64633	28
3.65000	28
3.65367	28
3.65733	28
3.66100	28
3.66467	28
3.66833	29
3.67200	29
3.67567	29
3.67933	29
3.68300	29
3.68667	29
3.69033	29
3.69400	29
3.69767	29
3.70133	29
3.70500	29
3.70867	29
3.71233	29
3.71600	29
3.71967	29
3.72333	29
3.72700	29
3.73067	29
3.73433	29
3.73800	29
3.74167	29
3.74533	29
3.74900	29
3.75267	29
3.75633	29
3.76000	29
3.76367	29
3.76733	29
3.77100	29
3.77467	29
3.77833	29
3.78200	29
3.78567	29
3.78933	29
3.79300	29
3.79667	29
3.80033	29
3.80400	29
3.80767	29
3.81133	30
3.81500	30
3.81867	30
3.82233	30
3.82600	29
3.82967	29
3.83333	29
3.83700	29
3.84067	29
3.84433	29
3.84800	29
3.85167	29
3.85533	29
3.85900	29
3.86267	29
3.86633	29
3.87000	29
3.87367	29
3.87733	29
3.88100	29
3.88467	29
3.88833	29
3.89200	29
3.89567	29
3.89933	30
3.90300	30
3.90667	30
3.91033	30
3.91400	30
3.91767	29
3.92133	29
3.92500	29
3.92867	29
3.93233	29
3.93600	29
3.93967	29
3.94333	29
3.94700	29
3.95067	29
3.95433	29
3.95800	29
3.96167	29
3.96533	29
3.96900	29
3.97267	29
3.97633	29
3.98000	29
3.98367	29
3.98733	29
3.99100	29
3.99467	29
3.99833	28

[Chromatogram (Ch3)]
Interval(msec)	220
# of Points	1091
Start Time(min)	0.002
End Time(min)	3.998
R.Time (min)	Intensity
0.00167	1
0.00533	0
0.00900	-2
0.01267	-3
0.01633	-3
0.02000	-3
0.02367	-5
0.02733	-7
0.03100	-9
0.03467	-8
0.03833	-6
0.04200	-5
0.04567	-3
0.04933	-3
0.05300	-5
0.05667	-5
0.06033	-8
0.06400	-7
0.06767	-7
0.07133	-7
0.07500	-5
0.07867	-4
0.08233	-4
0.08600	-2
0.08967	1
0.09333	-0
0.09700	-1
0.10067	1
0.10433	2
0.10800	3
0.11167	2
0.11533	2
0.11900	1
0.12267	-0
0.12633	2
0.13000	2
0.13367	-0
0.13733	-0
0.14100	-1
0.14467	-2
0.14833	-4
0.15200	-6
0.15567	-5
0.15933	-5
0.16300	-5
0.16667	-4
0.17033	-2
0.17400	-1
0.17767	-2
0.18133	-1
0.18500	0
0.18867	1
0.19233	2
0.19600	1
0.19967	-1
0.20333	-1
0.20700	-0
0.21067	1
0.21433	2
0.21800	2
0.22167	0
0.22533	-1
0.22900	-4
0.23267	-6
0.23633	-6
0.24000	-5
0.24367	-4
0.24733	-3
0.25100	-3
0.25467	-3
0.25833	-3
0.26200	-2
0.26567	-1
0.26933	-2
0.27300	-4
0.27667	-5
0.28033	-5
0.28400	-6
0.28767	-5
0.29133	-3
0.29500	-2
0.29867	-1
0.30233	-1
0.30600	-2
0.30967	-2
0.31333	1
0.31700	2
0.32067	1
0.32433	-0
0.32800	-2
0.33167	-3
0.33533	-2
0.33900	-3
0.34267	-4
0.34633	-3
0.35000	-3
0.35367	-3
0.35733	-4
0.36100	-2
0.36467	-3
0.36833	-4
0.37200	-2
0.37567	-1
0.37933	-1
0.38300	0
0.38667	-2
0.39033	-4
0.39400	-5
0.39767	-6
0.40133	-4
0.40500	-4
0.40867	-4
0.41233	-2
0.41600	-2
0.41967	-2
0.42333	1
0.42700	5
0.43067	5
0.43433	4
0.43800	3
0.44167	1
0.44533	-3
0.44900	-4
0.45267	-4
0.45633	-5
0.46000	-4
0.46367	-2
0.46733	-3
0.47100	-4
0.47467	-6
0.47833	-6
0.48200	-4
0.48567	-5
0.48933	-6
0.49300	-5
0.49667	-6
0.50033	-6
0.50400	-9
0.50767	-8
0.51133	-6
0.51500	-7
0.51867	-5
0.52233	-3
0.52600	-1
0.52967	-1
0.53333	-1
0.53700	-1
0.54067	-1
0.54433	-2
0.54800	-1
0.55167	0
0.55533	1
0.55900	3
0.56267	2
0.56633	-0
0.57000	-1
0.57367	-2
0.57733	-1
0.58100	0
0.58467	-0
0.58833	-1
0.59200	-0
0.59567	-2
0.59933	-0
0.60300	4
0.60667	4
0.61033	-1
0.61400	-4
0.61767	-6
0.62133	-4
0.62500	-0
0.62867	2
0.63233	2
0.63600	2
0.63967	0
0.64333	-1
0.64700	-0
0.65067	0
0.65433	-1
0.65800	1
0.66167	2
0.66533	0
0.66900	0
0.67267	-1
0.67633	-2
0.68000	-2
0.68367	-1
0.68733	0
0.69100	1
0.69467	3
0.69833	2
0.70200	1
0.70567	-1
0.70933	-2
0.71300	-2
0.71667	1
0.72033	2
0.72400	0
0.72767	-1
0.73133	-3
0.73500	-4
0.73867	-3
0.74233	-3
0.74600	-3
0.74967	-0
0.75333	1
0.75700	-0
0.76067	-1
0.76433	-1
0.76800	-3
0.77167	-1
0.77533	1
0.77900	1
0.78267	-0
0.78633	-2
0.79000	-4
0.79367	-4
0.79733	-3
0.80100	-3
0.80467	-3
0.80833	-3
0.81200	-3
0.81567	-3
0.81933	-3
0.82300	-3
0.82667	-3
0.83033	-3
0.83400	-2
0.83767	0
0.84133	2
0.84500	3
0.84867	2
0.85233	3
0.85600	2
0.85967	0
0.86333	1
0.86700	1
0.87067	1
0.87433	3
0.87800	7
0.88167	9
0.88533	8
0.88900	6
0.89267	6
0.89633	4
0.90000	4
0.90367	7
0.90733	9
0.91100	8
0.91467	7
0.91833	7
0.92200	5
0.92567	3
0.92933	1
0.93300	0
0.93667	-0
0.94033	2
0.94400	5
0.94767	5
0.95133	3
0.95500	1
0.95867	-1
0.96233	-1
0.96600	-1
0.96967	-2
0.97333	-0
0.97700	3
0.98067	4
0.98433	3
0.98800	3
0.99167	4
0.99533	2
0.99900	0
1.00267	1
1.00633	0
1.01000	-0
1.01367	1
1.01733	2
1.02100	1
1.02467	0
1.02833	-1
1.03200	-1
1.03567	-1
1.03933	-0
1.04300	0
1.04667	1
1.05033	0
1.05400	1
1.05767	2
1.06133	3
1.06500	4
1.06867	4
1.07233	6
1.07600	11
1.07967	13
1.08333	12
1.08700	10
1.09067	10
1.09433	9
1.09800	8
1.10167	8
1.10533	6
1.10900	4
1.11267	4
1.11633	4
1.12000	3
1.12367	0
1.12733	0
1.13100	0
1.13467	-0
1.13833	2
1.14200	5
1.14567	5
1.14933	5
1.15300	6
1.15667	7
1.16033	7
1.16400	6
1.16767	7
1.17133	7
1.17500	6
1.17867	7
1.18233	8
1.18600	7
1.18967	3
1.19333	6
1.19700	9
1.20067	11
1.20433	8
1.20800	6
1.21167	4
1.21533	2
1.21900	1
1.22267	2
1.22633	1
1.23000	1
1.23367	1
1.23733	-1
1.24100	-1
1.24467	0
1.24833	-1
1.25200	-1
1.25567	1
1.25933	0
1.26300	-1
1.26667	-1
1.27033	-0
1.27400	-1
1.27767	-1
1.28133	-3
1.28500	-5
1.28867	-3
1.29233	-1
1.29600	2
1.29967	5
1.30333	8
1.30700	6
1.31067	4
1.31433	6
1.31800	8
1.32167	6
1.32533	5
1.32900	7
1.33267	7
1.33633	5
1.34000	2
1.34367	3
1.34733	3
1.35100	2
1.35467	5
1.35833	6
1.36200	6
1.36567	5
1.36933	4
1.37300	4
1.37667	4
1.38033	2
1.38400	2
1.38767	4
1.39133	4
1.39500	5
1.39867	3
1.40233	3
1.40600	2
1.40967	0
1.41333	1
1.41700	5
1.42067	8
1.42433	9
1.42800	10
1.43167	12
1.43533	15
1.43900	19
1.44267	17
1.44633	17
1.45000	17
1.45367	18
1.45733	18
1.46100	16
1.46467	14
1.46833	15
1.47200	15
1.47567	15
1.47933	13
1.48300	12
1.48667	10
1.49033	9
1.49400	11
1.49767	13
1.50133	12
1.50500	12
1.50867	11
1.51233	11
1.51600	11
1.51967	10
1.52333	9
1.52700	9
1.53067	11
1.53433	11
1.53800	10
1.54167	10
1.54533	10
1.54900	8
1.55267	6
1.55633	8
1.56000	10
1.56367	12
1.56733	11
1.57100	10
1.57467	7
1.57833	4
1.58200	4
1.58567	4
1.58933	3
1.59300	3
1.59667	6
1.60033	9
1.60400	9
1.60767	8
1.61133	8
1.61500	9
1.61867	9
1.62233	9
1.62600	9
1.62967	9
1.63333	9
1.63700	11
1.64067	13
1.64433	14
1.64800	12
1.65167	11
1.65533	12
1.65900	14
1.66267	14
1.66633	13
1.67000	13
1.67367	15
1.67733	16
1.68100	15
1.68467	15
1.68833	14
1.69200	15
1.69567	15
1.69933	14
1.70300	14
1.70667	11
1.71033	8
1.71400	8
1.71767	9
1.72133	12
1.72500	13
1.72867	13
1.73233	13
1.73600	15
1.73967	18
1.74333	20
1.74700	19
1.75067	19
1.75433	20
1.75800	20
1.76167	20
1.76533	21
1.76900	20
1.77267	18
1.77633	17
1.78000	17
1.78367	18
1.78733	16
1.79100	16
1.79467	16
1.79833	18
1.80200	23
1.80567	23
1.80933	21
1.81300	19
1.81667	17
1.82033	18
1.82400	18
1.82767	18
1.83133	18
1.83500	18
1.83867	20
1.84233	20
1.84600	22
1.84967	24
1.85333	26
1.85700	26
1.86067	25
1.86433	24
1.86800	25
1.87167	26
1.87533	25
1.87900	23
1.88267	23
1.88633	22
1.89000	22
1.89367	22
1.89733	24
1.90100	26
1.90467	29
1.90833	33
1.91200	36
1.91567	34
1.91933	33
1.92300	31
1.92667	28
1.93033	29
1.93400	29
1.93767	28
1.94133	28
1.94500	28
1.94867	27
1.95233	25
1.95600	27
1.95967	30
1.96333	32
1.96700	33
1.97067	34
1.97433	36
1.97800	35
1.98167	36
1.98533	35
1.98900	32
1.99267	31
1.99633	33
2.00000	36
2.00367	40
2.00733	42
2.01100	43
2.01467	41
2.01833	42
2.02200	46
2.02567	50
2.02933	49
2.03300	48
2.03667	46
2.04033	45
2.04400	47
2.04767	47
2.05133	46
2.05500	44
2.05867	43
2.06233	45
2.06600	44
2.06967	42
2.07333	43
2.07700	45
2.08067	47
2.08433	49
2.08800	51
2.09167	54
2.09533	55
2.09900	54
2.10267	55
2.10633	54
2.11000	53
2.11367	54
2.11733	54
2.12100	54
2.12467	54
2.12833	55
2.13200	57
2.13567	60
2.13933	63
2.14300	63
2.14667	62
2.15033	60
2.15400	61
2.15767	63
2.16133	67
2.16500	69
2.16867	70
2.17233	70
2.17600	71
2.17967	71
2.18333	72
2.18700	74
2.19067	74
2.19433	72
2.19800	71
2.20167	72
2.20533	72
2.20900	73
2.21267	73
2.21633	74
2.22000	73
2.22367	71
2.22733	73
2.23100	76
2.23467	77
2.23833	78
2.24200	81
2.24567	80
2.24933	80
2.25300	80
2.25667	79
2.26033	79
2.26400	80
2.26767	82
2.27133	81
2.27500	81
2.27867	80
2.28233	82
2.28600	82
2.28967	79
2.29333	79
2.29700	83
2.30067	88
2.30433	93
2.30800	95
2.31167	97
2.31533	98
2.31900	97
2.32267	95
2.32633	94
2.33000	94
2.33367	96
2.33733	95
2.34100	95
2.34467	96
2.34833	97
2.35200	98
2.35567	99
2.35933	102
2.36300	104
2.36667	104
2.37033	104
2.37400	103
2.37767	102
2.38133	100
2.38500	96
2.38867	94
2.39233	95
2.39600	100
2.39967	105
2.40333	114
2.40700	121
2.41067	126
2.41433	128
2.41800	128
2.42167	128
2.42533	128
2.42900	128
2.43267	125
2.43633	122
2.44000	126
2.44367	172
2.44733	252
2.45100	325
2.45467	379
2.45833	399
2.46200	393
2.46567	378
2.46933	364
2.47300	355
2.47667	346
2.48033	330
2.48400	307
2.48767	285
2.49133	265
2.49500	248
2.49867	237
2.50233	231
2.50600	230
2.50967	233
2.51333	238
2.51700	243
2.52067	244
2.52433	243
2.52800	236
2.53167	226
2.53533	211
2.53900	196
2.54267	182
2.54633	171
2.55000	162
2.55367	154
2.55733	148
2.56100	144
2.56467	146
2.56833	146
2.57200	148
2.57567	148
2.57933	150
2.58300	154
2.58667	159
2.59033	165
2.59400	170
2.59767	176
2.60133	183
2.60500	192
2.60867	198
2.61233	201
2.61600	204
2.61967	203
2.62333	201
2.62700	196
2.63067	190
2.63433	182
2.63800	175
2.64167	167
2.64533	161
2.64900	153
2.65267	145
2.65633	138
2.66000	130
2.66367	123
2.66733	118
2.67100	112
2.67467	107
2.67833	105
2.68200	103
2.68567	102
2.68933	99
2.69300	94
2.69667	90
2.70033	88
2.70400	88
2.70767	86
2.71133	86
2.71500	85
2.71867	84
2.72233	82
2.72600	80
2.72967	80
2.73333	83
2.73700	85
2.74067	86
2.74433	89
2.74800	92
2.75167	93
2.75533	95
2.75900	98
2.76267	98
2.76633	97
2.77000	98
2.77367	100
2.77733	101
2.78100	103
2.78467	105
2.78833	106
2.79200	108
2.79567	112
2.79933	114
2.80300	116
2.80667	120
2.81033	125
2.81400	127
2.81767	126
2.82133	125
2.82500	127
2.82867	128
2.83233	130
2.83600	137
2.83967	156
2.84333	202
2.84700	285
2.85067	425
2.85433	641
2.85800	944
2.86167	1335
2.86533	1794
2.86900	2292
2.87267	2790
2.87633	3247
2.88000	3626
2.88367	3896
2.88733	4043
2.89100	4067
2.89467	3983
2.89833	3813
2.90200	3579
2.90567	3303
2.90933	3006
2.91300	2710
2.91667	2422
2.92033	2148
2.92400	1895
2.92767	1666
2.93133	1459
2.93500	1275
2.93867	1112
2.94233	971
2.94600	849
2.94967	741
2.95333	645
2.95700	563
2.96067	489
2.96433	428
2.96800	376
2.97167	333
2.97533	293
2.97900	261
2.98267	233
2.98633	208
2.99000	187
2.99367	169
2.99733	153
3.00100	139
3.00467	127
3.00833	117
3.01200	109
3.01567	102
3.01933	95
3.02300	91
3.02667	89
3.03033	86
3.03400	84
3.03767	84
3.04133	84
3.04500	83
3.04867	81
3.05233	78
3.05600	74
3.05967	73
3.06333	73
3.06700	71
3.07067	69
3.07433	68
3.07800	67
3.08167	68
3.08533	73
3.08900	75
3.09267	66
3.09633	53
3.10000	60
3.10367	96
3.10733	158
3.11100	234
3.11467	314
3.11833	398
3.12200	483
3.12567	568
3.12933	649
3.13300	719
3.13667	780
3.14033	833
3.14400	878
3.14767	914
3.15133	944
3.15500	970
3.15867	989
3.16233	1004
3.16600	1014
3.16967	1023
3.17333	1028
3.17700	1029
3.18067	1032
3.18433	1035
3.18800	1038
3.19167	1040
3.19533	1039
3.19900	1037
3.20267	1035
3.20633	1034
3.21000	1035
3.21367	1036
3.21733	1035
3.22100	1035
3.22467	1035
3.22833	1033
3.23200	1030
3.23567	1027
3.23933	1025
3.24300	1024
3.24667	1023
3.25033	1020
3.25400	1016
3.25767	1013
3.26133	1009
3.26500	1003
3.26867	999
3.27233	994
3.27600	991
3.27967	989
3.28333	987
3.28700	984
3.29067	981
3.29433	978
3.29800	973
3.30167	965
3.30533	960
3.30900	955
3.31267	946
3.31633	938
3.32000	933
3.32367	929
3.32733	926
3.33100	921
3.33467	916
3.33833	910
3.34200	905
3.34567	901
3.34933	898
3.35300	892
3.35667	887
3.36033	884
3.36400	881
3.36767	878
3.37133	875
3.37500	874
3.37867	871
3.38233	867
3.38600	863
3.38967	862
3.39333	862
3.39700	860
3.40067	858
3.40433	854
3.40800	852
3.41167	850
3.41533	846
3.41900	844
3.42267	841
3.42633	840
3.43000	838
3.43367	836
3.43733	835
3.44100	836
3.44467	834
3.44833	834
3.45200	835
3.45567	837
3.45933	837
3.46300	835
3.46667	834
3.47033	832
3.47400	832
3.47767	834
3.48133	833
3.48500	834
3.48867	834
3.49233	834
3.49600	835
3.49967	837
3.50333	838
3.50700	838
3.51067	841
3.51433	842
3.51800	843
3.52167	845
3.52533	846
3.52900	846
3.53267	848
3.53633	849
3.54000	848
3.54367	846
3.54733	841
3.55100	838
3.55467	835
3.55833	836
3.56200	836
3.56567	836
3.56933	833
3.57300	829
3.57667	826
3.58033	823
3.58400	821
3.58767	819
3.59133	817
3.59500	813
3.59867	808
3.60233	802
3.60600	797
3.60967	793
3.61333	789
3.61700	787
3.62067	786
3.62433	785
3.62800	782
3.63167	776
3.63533	771
3.63900	767
3.64267	765
3.64633	763
3.65000	760
3.65367	757
3.65733	751
3.66100	746
3.66467	743
3.66833	740
3.67200	736
3.67567	733
3.67933	733
3.68300	733
3.68667	730
3.69033	726
3.69400	725
3.69767	724
3.70133	721
3.70500	720
3.70867	716
3.71233	712
3.71600	710
3.71967	709
3.72333	708
3.72700	705
3.73067	701
3.73433	699
3.73800	697
3.74167	695
3.74533	691
3.74900	686
3.75267	683
3.75633	680
3.76000	677
3.76367	677
3.76733	676
3.77100	674
3.77467	673
3.77833	675
3.78200	674
3.78567	670
3.78933	668
3.79300	665
3.79667	663
3.80033	662
3.80400	661
3.80767	662
3.81133	662
3.81500	660
3.81867	659
3.82233	659
3.82600	658
3.82967	658
3.83333	656
3.83700	653
3.84067	650
3.84433	650
3.84800	650
3.85167	648
3.85533	643
3.85900	641
3.86267	642
3.86633	640
3.87000	640
3.87367	638
3.87733	637
3.88100	635
3.88467	632
3.88833	630
3.89200	629
3.89567	629
3.89933	627
3.90300	624
3.90667	623
3.91033	624
3.91400	624
3.91767	622
3.92133	622
3.92500	621
3.92867	619
3.93233	617
3.93600	614
3.93967	611
3.94333	611
3.94700	611
3.95067	609
3.95433	607
3.95800	605
3.96167	604
3.96533	603
3.96900	600
3.97267	598
3.97633	598
3.98000	596
3.98367	595
3.98733	594
3.99100	592
3.99467	589
3.99833	582

[Status Trace (Column Oven Temperature)]
Interval(msec)	1000
# of Points	240
Start Time(min)	0.009
End Time(min)	3.992
Intensity Units	
Intensity Multiplier	1
R.Time (min)	Intensity
0.00850	35.05
0.02517	35.03
0.04183	35.04
0.05850	35.03
0.07517	35.04
0.09183	35.03
0.10850	35.03
0.12517	35.02
0.14183	35.02
0.15850	35.01
0.17517	35.01
0.19183	35.01
0.20850	35.01
0.22517	35.01
0.24183	35.01
0.25850	35.01
0.27517	35.01
0.29183	35.02
0.30850	35.02
0.32517	35.02
0.34183	35.02
0.35850	35.02
0.37517	35.03
0.39183	35.02
0.40850	35.02
0.42517	35.01
0.44183	35.01
0.45850	35.00
0.47517	35.01
0.49183	35.00
0.50850	35.00
0.52517	35.01
0.54183	35.00
0.55850	35.00
0.57517	35.00
0.59183	35.00
0.60850	35.01
0.62517	35.01
0.64183	35.01
0.65850	35.00
0.67517	35.00
0.69183	35.00
0.70850	35.00
0.72517	35.00
0.74183	35.00
0.75850	35.00
0.77517	35.00
0.79183	34.99
0.80850	34.99
0.82517	35.00
0.84183	35.00
0.85850	35.00
0.87517	35.01
0.89183	35.01
0.90850	35.00
0.92517	34.99
0.94183	34.99
0.95850	34.99
0.97517	34.99
0.99183	35.00
1.00850	35.00
1.02517	35.00
1.04183	35.00
1.05850	35.00
1.07517	35.00
1.09183	35.00
1.10850	34.99
1.12517	35.00
1.14183	34.99
1.15850	34.99
1.17517	35.00
1.19183	35.01
1.20850	35.01
1.22517	35.00
1.24183	34.99
1.25850	34.98
1.27517	34.98
1.29183	34.99
1.30850	34.99
1.32517	34.99
1.34183	34.99
1.35850	34.99
1.37517	35.00
1.39183	35.00
1.40850	35.00
1.42517	35.00
1.44183	35.00
1.45850	35.00
1.47517	35.00
1.49183	35.00
1.50850	34.98
1.52517	34.98
1.54183	34.98
1.55850	34.99
1.57517	35.00
1.59183	35.02
1.60850	35.07
1.62517	35.18
1.64183	35.37
1.65850	35.62
1.67517	35.97
1.69183	36.35
1.70850	36.70
1.72517	37.03
1.74183	37.34
1.75850	37.68
1.77517	38.02
1.79183	38.35
1.80850	38.68
1.82517	39.02
1.84183	39.34
1.85850	39.67
1.87517	40.01
1.89183	40.33
1.90850	40.66
1.92517	40.99
1.94183	41.32
1.95850	41.65
1.97517	41.96
1.99183	42.28
2.00850	42.61
2.02517	42.94
2.04183	43.24
2.05850	43.56
2.07517	43.90
2.09183	44.24
2.10850	44.56
2.12517	44.88
2.14183	45.21
2.15850	45.54
2.17517	45.87
2.19183	46.20
2.20850	46.52
2.22517	46.85
2.24183	47.17
2.25850	47.50
2.27517	47.83
2.29183	48.15
2.30850	48.50
2.32517	48.85
2.34183	49.17
2.35850	49.44
2.37517	49.62
2.39183	49.69
2.40850	49.69
2.42517	49.69
2.44183	49.70
2.45850	49.71
2.47517	49.71
2.49183	49.73
2.50850	49.73
2.52517	49.75
2.54183	49.79
2.55850	49.80
2.57517	49.82
2.59183	49.82
2.60850	49.83
2.62517	49.84
2.64183	49.85
2.65850	49.85
2.67517	49.85
2.69183	49.85
2.70850	49.84
2.72517	49.87
2.74183	49.89
2.75850	49.89
2.77517	49.89
2.79183	49.88
2.80850	49.89
2.82517	49.92
2.84183	49.92
2.85850	49.93
2.87517	49.94
2.89183	49.95
2.90850	49.96
2.92517	49.97
2.94183	49.99
2.95850	50.00
2.97517	50.01
2.99183	50.01
3.00850	50.02
3.02517	50.02
3.04183	50.02
3.05850	50.03
3.07517	50.05
3.09183	50.06
3.10850	50.07
3.12517	50.08
3.14183	50.09
3.15850	50.10
3.17517	50.10
3.19183	50.10
3.20850	50.09
3.22517	50.09
3.24183	50.08
3.25850	50.07
3.27517	50.06
3.29183	50.06
3.30850	50.06
3.32517	50.06
3.34183	50.06
3.35850	50.06
3.37517	50.07
3.39183	50.07
3.40850	50.07
3.42517	50.07
3.44183	50.07
3.45850	50.07
3.47517	50.07
3.49183	50.07
3.50850	50.08
3.52517	50.08
3.54183	50.08
3.55850	50.07
3.57517	50.07
3.59183	50.07
3.60850	50.08
3.62517	50.08
3.64183	50.09
3.65850	50.09
3.67517	50.09
3.69183	50.09
3.70850	50.09
3.72517	50.09
3.74183	50.09
3.75850	50.08
3.77517	50.08
3.79183	50.08
3.80850	50.08
3.82517	50.08
3.84183	50.08
3.85850	50.08
3.87517	50.08
3.89183	50.07
3.90850	50.07
3.92517	50.07
3.94183	50.07
3.95850	50.07
3.97517	50.07
3.99183	50.08

[Status Trace (Injection Unit Temperature)]
Interval(msec)	1000
# of Points	240
Start Time(min)	0.009
End Time(min)	3.992
Intensity Units	
Intensity Multiplier	1
R.Time (min)	Intensity
0.00850	99.97
0.02517	99.97
0.04183	99.97
0.05850	99.97
0.07517	99.97
0.09183	99.97
0.10850	99.97
0.12517	99.98
0.14183	99.97
0.15850	99.97
0.17517	99.98
0.19183	99.97
0.20850	99.98
0.22517	99.98
0.24183	99.98
0.25850	99.98
0.27517	99.98
0.29183	99.98
0.30850	99.98
0.32517	99.98
0.34183	99.98
0.35850	99.98
0.37517	99.97
0.39183	99.98
0.40850	99.98
0.42517	99.98
0.44183	99.98
0.45850	99.98
0.47517	99.98
0.49183	99.98
0.50850	99.98
0.52517	99.98
0.54183	99.98
0.55850	99.98
0.57517	99.98
0.59183	99.98
0.60850	99.98
0.62517	99.98
0.64183	99.98
0.65850	99.98
0.67517	99.98
0.69183	99.98
0.70850	99.98
0.72517	99.98
0.74183	99.98
0.75850	99.98
0.77517	99.98
0.79183	99.99
0.80850	99.98
0.82517	99.98
0.84183	99.98
0.85850	99.98
0.87517	99.99
0.89183	99.98
0.90850	99.99
0.92517	99.98
0.94183	99.98
0.95850	99.98
0.97517	99.98
0.99183	99.98
1.00850	99.98
1.02517	99.98
1.04183	99.98
1.05850	99.98
1.07517	99.98
1.09183	99.98
1.10850	99.98
1.12517	99.98
1.14183	99.98
1.15850	99.98
1.17517	99.98
1.19183	99.98
1.20850	99.98
1.22517	99.98
1.24183	99.98
1.25850	99.98
1.27517	99.98
1.29183	99.98
1.30850	99.98
1.32517	99.98
1.34183	99.98
1.35850	99.98
1.37517	99.98
1.39183	99.98
1.40850	99.98
1.42517	99.98
1.44183	99.98
1.45850	99.98
1.47517	99.98
1.49183	99.98
1.50850	99.98
1.52517	99.98
1.54183	99.98
1.55850	99.98
1.57517	99.98
1.59183	99.98
1.60850	99.98
1.62517	99.98
1.64183	99.98
1.65850	99.98
1.67517	99.98
1.69183	99.98
1.70850	99.98
1.72517	99.98
1.74183	99.98
1.75850	99.98
1.77517	99.98
1.79183	99.98
1.80850	99.98
1.82517	99.98
1.84183	99.98
1.85850	99.98
1.87517	99.98
1.89183	99.98
1.90850	99.98
1.92517	99.98
1.94183	99.98
1.95850	99.97
1.97517	99.98
1.99183	99.97
2.00850	99.98
2.02517	99.97
2.04183	99.98
2.05850	99.98
2.07517	99.97
2.09183	99.97
2.10850	99.97
2.12517	99.97
2.14183	99.97
2.15850	99.97
2.17517	99.96
2.19183	99.97
2.20850	99.97
2.22517	99.97
2.24183	99.97
2.25850	99.97
2.27517	99.96
2.29183	99.96
2.30850	99.97
2.32517	99.96
2.34183	99.97
2.35850	99.96
2.37517	99.96
2.39183	99.96
2.40850	99.96
2.42517	99.96
2.44183	99.96
2.45850	99.96
2.47517	99.96
2.49183	99.96
2.50850	99.96
2.52517	99.96
2.54183	99.96
2.55850	99.97
2.57517	99.96
2.59183	99.97
2.60850	99.96
2.62517	99.97
2.64183	99.97
2.65850	99.97
2.67517	99.97
2.69183	99.98
2.70850	99.97
2.72517	99.97
2.74183	99.98
2.75850	99.97
2.77517	99.98
2.79183	99.98
2.80850	99.98
2.82517	99.98
2.84183	99.99
2.85850	99.98
2.87517	99.99
2.89183	99.99
2.90850	99.99
2.92517	99.99
2.94183	99.99
2.95850	100.00
2.97517	100.00
2.99183	100.00
3.00850	100.00
3.02517	100.00
3.04183	100.00
3.05850	100.00
3.07517	100.00
3.09183	100.01
3.10850	100.01
3.12517	100.01
3.14183	100.01
3.15850	100.01
3.17517	100.01
3.19183	100.01
3.20850	100.02
3.22517	100.02
3.24183	100.02
3.25850	100.02
3.27517	100.02
3.29183	100.02
3.30850	100.02
3.32517	100.02
3.34183	100.03
3.35850	100.02
3.37517	100.02
3.39183	100.03
3.40850	100.03
3.42517	100.03
3.44183	100.03
3.45850	100.03
3.47517	100.03
3.49183	100.03
3.50850	100.03
3.52517	100.03
3.54183	100.03
3.55850	100.04
3.57517	100.03
3.59183	100.03
3.60850	100.04
3.62517	100.04
3.64183	100.04
3.65850	100.04
3.67517	100.04
3.69183	100.04
3.70850	100.04
3.72517	100.04
3.74183	100.04
3.75850	100.04
3.77517	100.04
3.79183	100.04
3.80850	100.04
3.82517	100.05
3.84183	100.05
3.85850	100.04
3.87517	100.05
3.89183	100.05
3.90850	100.05
3.92517	100.05
3.94183	100.05
3.95850	100.05
3.97517	100.04
3.99183	100.05

[Status Trace (Carrier Gas Pressure)]
Interval(msec)	1000
# of Points	240
Start Time(min)	0.009
End Time(min)	3.992
Intensity Units	
Intensity Multiplier	1
R.Time (min)	Intensity
0.00850	58.00
0.02517	55.26
0.04183	57.10
0.05850	59.27
0.07517	59.39
0.09183	58.08
0.10850	57.98
0.12517	58.01
0.14183	58.01
0.15850	58.01
0.17517	58.00
0.19183	58.00
0.20850	58.00
0.22517	58.00
0.24183	58.00
0.25850	58.00
0.27517	58.00
0.29183	58.00
0.30850	58.00
0.32517	58.00
0.34183	58.00
0.35850	58.00
0.37517	58.00
0.39183	58.00
0.40850	58.00
0.42517	58.00
0.44183	58.00
0.45850	58.00
0.47517	58.00
0.49183	58.00
0.50850	58.00
0.52517	58.00
0.54183	58.00
0.55850	58.00
0.57517	58.00
0.59183	58.00
0.60850	58.00
0.62517	58.00
0.64183	58.00
0.65850	58.00
0.67517	58.00
0.69183	58.00
0.70850	58.00
0.72517	58.00
0.74183	58.00
0.75850	58.00
0.77517	58.00
0.79183	58.00
0.80850	58.00
0.82517	58.00
0.84183	58.00
0.85850	58.00
0.87517	58.00
0.89183	58.00
0.90850	58.00
0.92517	58.00
0.94183	58.00
0.95850	58.00
0.97517	58.00
0.99183	58.00
1.00850	58.00
1.02517	58.00
1.04183	58.00
1.05850	58.00
1.07517	58.00
1.09183	58.00
1.10850	58.00
1.12517	58.00
1.14183	58.00
1.15850	58.00
1.17517	58.00
1.19183	58.00
1.20850	58.00
1.22517	58.00
1.24183	58.00
1.25850	58.00
1.27517	58.00
1.29183	58.00
1.30850	58.00
1.32517	58.00
1.34183	58.00
1.35850	58.00
1.37517	58.00
1.39183	58.00
1.40850	58.00
1.42517	58.00
1.44183	58.00
1.45850	58.00
1.47517	58.00
1.49183	58.00
1.50850	58.00
1.52517	58.00
1.54183	58.00
1.55850	58.00
1.57517	58.00
1.59183	58.00
1.60850	58.00
1.62517	58.00
1.64183	58.00
1.65850	58.00
1.67517	58.01
1.69183	58.00
1.70850	58.00
1.72517	58.00
1.74183	58.00
1.75850	58.00
1.77517	58.00
1.79183	58.00
1.80850	58.00
1.82517	58.00
1.84183	58.00
1.85850	58.00
1.87517	58.00
1.89183	58.00
1.90850	58.00
1.92517	58.00
1.94183	58.00
1.95850	58.00
1.97517	58.00
1.99183	58.00
2.00850	58.00
2.02517	58.00
2.04183	58.00
2.05850	58.00
2.07517	58.00
2.09183	58.00
2.10850	58.00
2.12517	58.00
2.14183	58.00
2.15850	58.00
2.17517	58.00
2.19183	58.00
2.20850	58.00
2.22517	58.00
2.24183	58.00
2.25850	58.00
2.27517	58.00
2.29183	58.00
2.30850	58.00
2.32517	58.00
2.34183	58.00
2.35850	58.00
2.37517	58.00
2.39183	57.99
2.40850	57.99
2.42517	58.00
2.44183	58.00
2.45850	58.00
2.47517	58.00
2.49183	58.00
2.50850	57.99
2.52517	57.98
2.54183	58.00
2.55850	58.00
2.57517	58.00
2.59183	58.00
2.60850	58.00
2.62517	58.00
2.64183	58.00
2.65850	58.00
2.67517	58.00
2.69183	58.00
2.70850	58.00
2.72517	58.00
2.74183	58.00
2.75850	58.00
2.77517	58.00
2.79183	58.00
2.80850	58.00
2.82517	58.00
2.84183	58.00
2.85850	58.00
2.87517	58.00
2.89183	58.00
2.90850	58.00
2.92517	58.00
2.94183	58.00
2.95850	58.00
2.97517	58.00
2.99183	58.00
3.00850	58.00
3.02517	58.00
3.04183	58.00
3.05850	58.00
3.07517	58.00
3.09183	58.00
3.10850	58.00
3.12517	58.00
3.14183	58.00
3.15850	58.00
3.17517	58.00
3.19183	58.00
3.20850	58.00
3.22517	58.00
3.24183	58.00
3.25850	58.00
3.27517	58.00
3.29183	58.00
3.30850	58.00
3.32517	58.00
3.34183	58.00
3.35850	58.00
3.37517	58.00
3.39183	58.00
3.40850	58.00
3.42517	58.00
3.44183	58.00
3.45850	58.00
3.47517	58.00
3.49183	58.00
3.50850	58.00
3.52517	58.00
3.54183	58.00
3.55850	58.00
3.57517	58.00
3.59183	58.00
3.60850	58.00
3.62517	58.00
3.64183	58.00
3.65850	58.00
3.67517	58.00
3.69183	58.00
3.70850	58.00
3.72517	58.00
3.74183	58.00
3.75850	58.00
3.77517	58.00
3.79183	58.00
3.80850	58.00
3.82517	58.00
3.84183	58.00
3.85850	58.00
3.87517	58.00
3.89183	58.00
3.90850	58.00
3.92517	58.00
3.94183	58.00
3.95850	58.00
3.97517	58.00
3.99183	58.00

[Status Trace (Carrier Gas Flow)]
Interval(msec)	1000
# of Points	240
Start Time(min)	0.009
End Time(min)	3.992
Intensity Units	
Intensity Multiplier	1
R.Time (min)	Intensity
0.00850	34.52
0.02517	34.54
0.04183	34.55
0.05850	34.55
0.07517	34.50
0.09183	34.52
0.10850	34.52
0.12517	34.52
0.14183	34.52
0.15850	34.52
0.17517	34.52
0.19183	34.52
0.20850	34.52
0.22517	34.52
0.24183	34.52
0.25850	34.52
0.27517	34.52
0.29183	34.51
0.30850	34.52
0.32517	34.52
0.34183	34.51
0.35850	34.52
0.37517	34.52
0.39183	34.52
0.40850	34.52
0.42517	34.52
0.44183	34.52
0.45850	34.52
0.47517	34.52
0.49183	34.52
0.50850	34.52
0.52517	34.52
0.54183	34.52
0.55850	34.52
0.57517	34.52
0.59183	34.52
0.60850	34.51
0.62517	34.52
0.64183	34.51
0.65850	34.52
0.67517	34.52
0.69183	34.52
0.70850	34.52
0.72517	34.52
0.74183	34.52
0.75850	34.52
0.77517	34.52
0.79183	34.52
0.80850	34.51
0.82517	34.52
0.84183	34.52
0.85850	34.52
0.87517	34.52
0.89183	34.52
0.90850	34.52
0.92517	34.52
0.94183	34.52
0.95850	34.52
0.97517	34.52
0.99183	34.51
1.00850	34.52
1.02517	34.52
1.04183	34.52
1.05850	34.52
1.07517	34.52
1.09183	34.52
1.10850	34.52
1.12517	34.52
1.14183	34.52
1.15850	34.52
1.17517	34.52
1.19183	34.51
1.20850	34.52
1.22517	34.52
1.24183	34.53
1.25850	34.52
1.27517	34.52
1.29183	34.52
1.30850	34.52
1.32517	34.52
1.34183	34.52
1.35850	34.52
1.37517	34.52
1.39183	34.52
1.40850	34.52
1.42517	34.52
1.44183	34.52
1.45850	34.52
1.47517	34.52
1.49183	34.52
1.50850	34.51
1.52517	34.52
1.54183	34.52
1.55850	34.51
1.57517	34.52
1.59183	34.52
1.60850	34.51
1.62517	34.52
1.64183	34.52
1.65850	34.52
1.67517	34.52
1.69183	34.52
1.70850	34.52
1.72517	34.52
1.74183	34.52
1.75850	34.52
1.77517	34.52
1.79183	34.52
1.80850	34.52
1.82517	34.51
1.84183	34.52
1.85850	34.52
1.87517	34.52
1.89183	34.52
1.90850	34.52
1.92517	34.51
1.94183	34.52
1.95850	34.52
1.97517	34.52
1.99183	34.51
2.00850	34.52
2.02517	34.52
2.04183	34.52
2.05850	34.52
2.07517	34.52
2.09183	34.52
2.10850	34.51
2.12517	34.52
2.14183	34.52
2.15850	34.51
2.17517	34.52
2.19183	34.52
2.20850	34.52
2.22517	34.52
2.24183	34.52
2.25850	34.52
2.27517	34.52
2.29183	34.53
2.30850	34.52
2.32517	34.51
2.34183	34.52
2.35850	34.52
2.37517	34.52
2.39183	34.52
2.40850	34.52
2.42517	34.52
2.44183	34.52
2.45850	34.52
2.47517	34.52
2.49183	34.52
2.50850	34.43
2.52517	34.52
2.54183	34.52
2.55850	34.52
2.57517	34.52
2.59183	34.52
2.60850	34.52
2.62517	34.52
2.64183	34.52
2.65850	34.52
2.67517	34.52
2.69183	34.51
2.70850	34.52
2.72517	34.52
2.74183	34.51
2.75850	34.52
2.77517	34.52
2.79183	34.52
2.80850	34.52
2.82517	34.52
2.84183	34.51
2.85850	34.52
2.87517	34.52
2.89183	34.52
2.90850	34.52
2.92517	34.52
2.94183	34.52
2.95850	34.52
2.97517	34.52
2.99183	34.52
3.00850	34.52
3.02517	34.52
3.04183	34.52
3.05850	34.52
3.07517	34.52
3.09183	34.52
3.10850	34.52
3.12517	34.52
3.14183	34.52
3.15850	34.52
3.17517	34.52
3.19183	34.52
3.20850	34.52
3.22517	34.52
3.24183	34.52
3.25850	34.52
3.27517	34.52
3.29183	34.52
3.30850	34.52
3.32517	34.52
3.34183	34.52
3.35850	34.52
3.37517	34.52
3.39183	34.51
3.40850	34.52
3.42517	34.52
3.44183	34.52
3.45850	34.52
3.47517	34.53
3.49183	34.51
3.50850	34.51
3.52517	34.51
3.54183	34.52
3.55850	34.52
3.57517	34.52
3.59183	34.52
3.60850	34.52
3.62517	34.52
3.64183	34.52
3.65850	34.52
3.67517	34.52
3.69183	34.52
3.70850	34.53
3.72517	34.52
3.74183	34.52
3.75850	34.52
3.77517	34.53
3.79183	34.52
3.80850	34.52
3.82517	34.52
3.84183	34.52
3.85850	34.52
3.87517	34.52
3.89183	34.52
3.90850	34.52
3.92517	34.52
3.94183	34.52
3.95850	34.53
3.97517	34.51
3.99183	34.52

[Status Trace (Column Flow)]
Interval(msec)	1000
# of Points	240
Start Time(min)	0.009
End Time(min)	3.992
Intensity Units	
Intensity Multiplier	1
R.Time (min)	Intensity
0.00850	5.51
0.02517	5.20
0.04183	5.41
0.05850	5.66
0.07517	5.68
0.09183	5.52
0.10850	5.51
0.12517	5.51
0.14183	5.51
0.15850	5.51
0.17517	5.51
0.19183	5.51
0.20850	5.51
0.22517	5.51
0.24183	5.51
0.25850	5.51
0.27517	5.51
0.29183	5.51
0.30850	5.51
0.32517	5.51
0.34183	5.51
0.35850	5.51
0.37517	5.51
0.39183	5.51
0.40850	5.51
0.42517	5.51
0.44183	5.51
0.45850	5.51
0.47517	5.51
0.49183	5.51
0.50850	5.51
0.52517	5.51
0.54183	5.51
0.55850	5.51
0.57517	5.51
0.59183	5.51
0.60850	5.51
0.62517	5.51
0.64183	5.51
0.65850	5.51
0.67517	5.51
0.69183	5.51
0.70850	5.51
0.72517	5.51
0.74183	5.51
0.75850	5.51
0.77517	5.51
0.79183	5.51
0.80850	5.51
0.82517	5.51
0.84183	5.51
0.85850	5.51
0.87517	5.51
0.89183	5.51
0.90850	5.51
0.92517	5.51
0.94183	5.51
0.95850	5.51
0.97517	5.51
0.99183	5.51
1.00850	5.51
1.02517	5.51
1.04183	5.51
1.05850	5.51
1.07517	5.51
1.09183	5.51
1.10850	5.51
1.12517	5.51
1.14183	5.51
1.15850	5.51
1.17517	5.51
1.19183	5.51
1.20850	5.51
1.22517	5.51
1.24183	5.51
1.25850	5.51
1.27517	5.51
1.29183	5.51
1.30850	5.51
1.32517	5.51
1.34183	5.51
1.35850	5.51
1.37517	5.51
1.39183	5.51
1.40850	5.51
1.42517	5.51
1.44183	5.51
1.45850	5.51
1.47517	5.51
1.49183	5.51
1.50850	5.51
1.52517	5.51
1.54183	5.51
1.55850	5.51
1.57517	5.51
1.59183	5.51
1.60850	5.51
1.62517	5.51
1.64183	5.50
1.65850	5.49
1.67517	5.48
1.69183	5.47
1.70850	5.46
1.72517	5.45
1.74183	5.44
1.75850	5.43
1.77517	5.42
1.79183	5.41
1.80850	5.40
1.82517	5.39
1.84183	5.38
1.85850	5.37
1.87517	5.36
1.89183	5.35
1.90850	5.34
1.92517	5.33
1.94183	5.32
1.95850	5.31
1.97517	5.30
1.99183	5.29
2.00850	5.28
2.02517	5.27
2.04183	5.26
2.05850	5.25
2.07517	5.24
2.09183	5.24
2.10850	5.22
2.12517	5.22
2.14183	5.21
2.15850	5.20
2.17517	5.19
2.19183	5.18
2.20850	5.17
2.22517	5.16
2.24183	5.15
2.25850	5.14
2.27517	5.13
2.29183	5.12
2.30850	5.11
2.32517	5.10
2.34183	5.10
2.35850	5.09
2.37517	5.08
2.39183	5.08
2.40850	5.08
2.42517	5.08
2.44183	5.08
2.45850	5.08
2.47517	5.08
2.49183	5.08
2.50850	5.08
2.52517	5.08
2.54183	5.08
2.55850	5.08
2.57517	5.08
2.59183	5.08
2.60850	5.08
2.62517	5.08
2.64183	5.08
2.65850	5.08
2.67517	5.08
2.69183	5.08
2.70850	5.08
2.72517	5.08
2.74183	5.07
2.75850	5.07
2.77517	5.07
2.79183	5.07
2.80850	5.07
2.82517	5.07
2.84183	5.07
2.85850	5.07
2.87517	5.07
2.89183	5.07
2.90850	5.07
2.92517	5.07
2.94183	5.07
2.95850	5.07
2.97517	5.07
2.99183	5.07
3.00850	5.07
3.02517	5.07
3.04183	5.07
3.05850	5.07
3.07517	5.07
3.09183	5.07
3.10850	5.07
3.12517	5.07
3.14183	5.07
3.15850	5.07
3.17517	5.07
3.19183	5.07
3.20850	5.07
3.22517	5.07
3.24183	5.07
3.25850	5.07
3.27517	5.07
3.29183	5.07
3.30850	5.07
3.32517	5.07
3.34183	5.07
3.35850	5.07
3.37517	5.07
3.39183	5.07
3.40850	5.07
3.42517	5.07
3.44183	5.07
3.45850	5.07
3.47517	5.07
3.49183	5.07
3.50850	5.07
3.52517	5.07
3.54183	5.07
3.55850	5.07
3.57517	5.07
3.59183	5.07
3.60850	5.07
3.62517	5.07
3.64183	5.07
3.65850	5.07
3.67517	5.07
3.69183	5.07
3.70850	5.07
3.72517	5.07
3.74183	5.07
3.75850	5.07
3.77517	5.07
3.79183	5.07
3.80850	5.07
3.82517	5.07
3.84183	5.07
3.85850	5.07
3.87517	5.07
3.89183	5.07
3.90850	5.07
3.92517	5.07
3.94183	5.07
3.95850	5.07
3.97517	5.07
3.99183	5.07

[Status Trace (Linear Velocity)]
Interval(msec)	1000
# of Points	240
Start Time(min)	0.009
End Time(min)	3.992
Intensity Units	
Intensity Multiplier	1
R.Time (min)	Intensity
0.00850	39.01
0.02517	37.21
0.04183	38.42
0.05850	39.84
0.07517	39.92
0.09183	39.06
0.10850	39.00
0.12517	39.02
0.14183	39.02
0.15850	39.02
0.17517	39.02
0.19183	39.02
0.20850	39.02
0.22517	39.01
0.24183	39.01
0.25850	39.01
0.27517	39.02
0.29183	39.01
0.30850	39.01
0.32517	39.01
0.34183	39.01
0.35850	39.01
0.37517	39.01
0.39183	39.01
0.40850	39.01
0.42517	39.01
0.44183	39.01
0.45850	39.01
0.47517	39.01
0.49183	39.01
0.50850	39.01
0.52517	39.01
0.54183	39.02
0.55850	39.02
0.57517	39.01
0.59183	39.02
0.60850	39.01
0.62517	39.01
0.64183	39.01
0.65850	39.01
0.67517	39.01
0.69183	39.01
0.70850	39.02
0.72517	39.01
0.74183	39.01
0.75850	39.02
0.77517	39.02
0.79183	39.02
0.80850	39.02
0.82517	39.02
0.84183	39.01
0.85850	39.01
0.87517	39.01
0.89183	39.01
0.90850	39.01
0.92517	39.02
0.94183	39.02
0.95850	39.02
0.97517	39.02
0.99183	39.01
1.00850	39.02
1.02517	39.01
1.04183	39.01
1.05850	39.01
1.07517	39.01
1.09183	39.02
1.10850	39.02
1.12517	39.02
1.14183	39.02
1.15850	39.02
1.17517	39.02
1.19183	39.01
1.20850	39.01
1.22517	39.01
1.24183	39.02
1.25850	39.02
1.27517	39.02
1.29183	39.02
1.30850	39.02
1.32517	39.02
1.34183	39.02
1.35850	39.02
1.37517	39.01
1.39183	39.02
1.40850	39.01
1.42517	39.02
1.44183	39.02
1.45850	39.02
1.47517	39.02
1.49183	39.01
1.50850	39.02
1.52517	39.02
1.54183	39.02
1.55850	39.02
1.57517	39.01
1.59183	39.01
1.60850	39.01
1.62517	39.00
1.64183	38.98
1.65850	38.96
1.67517	38.93
1.69183	38.89
1.70850	38.85
1.72517	38.82
1.74183	38.79
1.75850	38.76
1.77517	38.73
1.79183	38.70
1.80850	38.66
1.82517	38.63
1.84183	38.61
1.85850	38.57
1.87517	38.54
1.89183	38.51
1.90850	38.48
1.92517	38.45
1.94183	38.42
1.95850	38.39
1.97517	38.36
1.99183	38.33
2.00850	38.30
2.02517	38.27
2.04183	38.24
2.05850	38.21
2.07517	38.18
2.09183	38.15
2.10850	38.12
2.12517	38.09
2.14183	38.06
2.15850	38.03
2.17517	38.00
2.19183	37.97
2.20850	37.94
2.22517	37.91
2.24183	37.89
2.25850	37.85
2.27517	37.82
2.29183	37.80
2.30850	37.76
2.32517	37.73
2.34183	37.71
2.35850	37.68
2.37517	37.66
2.39183	37.65
2.40850	37.65
2.42517	37.66
2.44183	37.66
2.45850	37.65
2.47517	37.66
2.49183	37.65
2.50850	37.65
2.52517	37.64
2.54183	37.65
2.55850	37.65
2.57517	37.65
2.59183	37.65
2.60850	37.65
2.62517	37.65
2.64183	37.64
2.65850	37.64
2.67517	37.64
2.69183	37.64
2.70850	37.64
2.72517	37.64
2.74183	37.64
2.75850	37.64
2.77517	37.64
2.79183	37.64
2.80850	37.64
2.82517	37.64
2.84183	37.64
2.85850	37.64
2.87517	37.64
2.89183	37.64
2.90850	37.63
2.92517	37.63
2.94183	37.63
2.95850	37.63
2.97517	37.63
2.99183	37.63
3.00850	37.63
3.02517	37.63
3.04183	37.63
3.05850	37.63
3.07517	37.63
3.09183	37.63
3.10850	37.62
3.12517	37.62
3.14183	37.62
3.15850	37.62
3.17517	37.62
3.19183	37.62
3.20850	37.62
3.22517	37.62
3.24183	37.62
3.25850	37.62
3.27517	37.62
3.29183	37.63
3.30850	37.63
3.32517	37.63
3.34183	37.63
3.35850	37.63
3.37517	37.62
3.39183	37.62
3.40850	37.62
3.42517	37.62
3.44183	37.62
3.45850	37.63
3.47517	37.62
3.49183	37.62
3.50850	37.62
3.52517	37.62
3.54183	37.62
3.55850	37.62
3.57517	37.63
3.59183	37.63
3.60850	37.62
3.62517	37.62
3.64183	37.62
3.65850	37.62
3.67517	37.62
3.69183	37.62
3.70850	37.62
3.72517	37.62
3.74183	37.62
3.75850	37.62
3.77517	37.62
3.79183	37.62
3.80850	37.62
3.82517	37.62
3.84183	37.62
3.85850	37.62
3.87517	37.62
3.89183	37.62
3.90850	37.62
3.92517	37.62
3.94183	37.62
3.95850	37.62
3.97517	37.62
3.99183	37.62

