[Header]
Application Name	LabSolutions
Version	5.110
Data File Name	C:\Users\User\Desktop\Junior\UIC Prairie Sampling\2023\8.18.23\081823_071.gcd
Output Date	8/31/2023
Output Time	12:48:11 PM

[File Information]
Type	Data File
Generated	8/30/2023 11:43:34 PM
Generated by	System Administrator
Modified	8/30/2023 11:49:57 PM
Modified by	System Administrator

[Sample Information]
Operator Name	System Administrator
Acquired	8/30/2023 11:45:56 PM
Sample Type	0:Unknown
Level	0
Sample Name	071
Sample ID	071
ISTD Amount1	1
ISTD Amount2	1
ISTD Amount3	1
ISTD Amount4	1
ISTD Amount5	1
ISTD Amount6	1
ISTD Amount7	1
ISTD Amount8	1
ISTD Amount9	1
ISTD Amount10	1
ISTD Amount11	1
ISTD Amount12	1
ISTD Amount13	1
ISTD Amount14	1
ISTD Amount15	1
ISTD Amount16	1
ISTD Amount17	1
ISTD Amount18	1
ISTD Amount19	1
ISTD Amount20	1
ISTD Amount21	1
ISTD Amount22	1
ISTD Amount23	1
ISTD Amount24	1
ISTD Amount25	1
ISTD Amount26	1
ISTD Amount27	1
ISTD Amount28	1
ISTD Amount29	1
ISTD Amount30	1
ISTD Amount31	1
ISTD Amount32	1
Sample Amount	1
Dilution Factor	1
Vial#	70
Injection Volume	1
Injection Count	1
Bar Code	

[Original Files]
Data File	C:\Users\User\Desktop\Junior\UIC Prairie Sampling\8.18.23\081823_071.gcd
Method File	C:\LabSolutions\Data\GHG_4min_2022\ghg3_togas_w_acet_4 min_new_int.gcm
Batch File	C:\LabSolutions\Data\BATCH FILES\081823.gcb
Report Format File	c:\LabSolutions\System\DEFAULT.lsr

[File Description]


[Configuration]
Instrument Name	C0B7VH3-Instrument1
Instrument #	1
Line #	1
# of Detectors	3
Detector ID	DET#1	DET#2	DET#3
Detector Name	FID	PTCD	ECD
# of Channels	1	1	1

[Peak Table(Ch1)]
# of Peaks	3
Peak#	R.Time	I.Time	F.Time	Area	Height	A/H	Conc.	Mark	ID#	Name	k'	Plate #	Plate Ht.	Tailing	Resolution	Sep.Factor	Area Ratio	Height Ratio	Conc. %	Norm Conc.
1	1.498	1.468	1.512	698	343	2.034	0.000	   	1	CO	0.000	372	403.568	0.000	0.000	0.000	0	0	0.000	0.000
2	1.564	1.512	1.644	5604	2400	2.335	27.322	 V 	2	CH4	0.044	9919	15.122	0.000	0.353	0.000	0	0	14.596	14.596
3	1.989	1.945	2.502	829505	394381	2.103	159.861	   	3	CO2	0.328	17612	8.517	1.333	6.930	7.444	0	0	85.404	85.404

[Peak Table(Ch2)]
# of Peaks	0

[Peak Table(Ch3)]
# of Peaks	5
Peak#	R.Time	I.Time	F.Time	Area	Height	A/H	Conc.	Mark	ID#	Name	k'	Plate #	Plate Ht.	Tailing	Resolution	Sep.Factor	Area Ratio	Height Ratio	Conc. %	Norm Conc.
1	2.458	2.440	2.510	805	306	2.630	0.000	   			0.000	13489	11.120	0.000	0.000	0.000	0	0	0.000	0.000
2	2.528	2.510	2.568	315	130	2.418	0.000	 V 			0.028	5402	27.768	0.000	0.627	0.000	0	0	0.000	0.000
3	2.627	2.568	2.700	407	101	4.034	0.000	 V 			0.069	8614	17.413	0.000	0.789	2.421	0	0	0.000	0.000
4	2.891	2.766	3.074	14811	4000	3.703	0.219	   	1	N2O	0.176	13858	10.824	1.511	2.497	2.565	0	0	100.000	100.000
5	3.265	3.181	3.958	18414	848	21.707	0.000	   			0.328	389	385.137	4.591	0.984	1.864	0	0	0.000	0.000

[Compound Results(Ch1)]
# of IDs	6
ID#	Name	R.Time	Area	Height	Conc.	Curve	3rd	2nd	1st	Constant	Area Ratio	Height Ratio	Conc. %	Norm Conc.
1	CO	1.498	698	343	0.000	Linear	0.000000e+00	0.000000e+00	0.000000e+00	0.000000e+00	0	0	0.000	0.000
2	CH4	1.564	5604	2400	27.322	Linear	0.000000e+00	0.000000e+00	2.051179e+002	0.000000e+00	0	0	14.596	14.596
3	CO2	1.989	829505	394381	159.861	Linear	0.000000e+00	0.000000e+00	5.188919e+003	0.000000e+00	0	0	85.404	85.404
4	Ethylene	0.000	0	0	0.000	Linear	0.000000e+00	0.000000e+00	0.000000e+00	0.000000e+00	0	0	0.000	0.000
5	Acetylene	0.000	0	0	0.000	Linear	0.000000e+00	0.000000e+00	0.000000e+00	0.000000e+00	0	0	0.000	0.000
6	Ethane	0.000	0	0	0.000	Linear	0.000000e+00	0.000000e+00	0.000000e+00	0.000000e+00	0	0	0.000	0.000

[Compound Results(Ch2)]
# of IDs	5
ID#	Name	R.Time	Area	Height	Conc.	Curve	3rd	2nd	1st	Constant	Area Ratio	Height Ratio	Conc. %	Norm Conc.
1	Hydrogen	0.000	0	0	0.000	Linear	0.000000e+00	0.000000e+00	0.000000e+00	0.000000e+00	0	0	0.000	0.000
2	Oxygen	0.000	0	0	0.000	Linear	0.000000e+00	0.000000e+00	0.000000e+00	0.000000e+00	0	0	0.000	0.000
3	Nitrogen	0.000	0	0	0.000	Linear	0.000000e+00	0.000000e+00	0.000000e+00	0.000000e+00	0	0	0.000	0.000
4	Methane	0.000	0	0	0.000	Linear	0.000000e+00	0.000000e+00	0.000000e+00	0.000000e+00	0	0	0.000	0.000
5	Carbon Monoxide	0.000	0	0	0.000	Linear	0.000000e+00	0.000000e+00	0.000000e+00	0.000000e+00	0	0	0.000	0.000

[Compound Results(Ch3)]
# of IDs	2
ID#	Name	R.Time	Area	Height	Conc.	Curve	3rd	2nd	1st	Constant	Area Ratio	Height Ratio	Conc. %	Norm Conc.
1	N2O	2.891	14811	4000	0.219	Linear	0.000000e+00	0.000000e+00	6.759880e+004	0.000000e+00	0	0	100.000	100.000
2	SF6	0.000	0	0	0.000	Linear	0.000000e+00	0.000000e+00	0.000000e+00	0.000000e+00	0	0	0.000	0.000

[Group Results(Ch1)]
# of Groups	0

[Group Results(Ch2)]
# of Groups	0

[Group Results(Ch3)]
# of Groups	0

[Chromatogram (Ch1)]
Interval(msec)	220
# of Points	1091
Start Time(min)	0.002
End Time(min)	3.998
R.Time (min)	Intensity
0.00167	12
0.00533	14
0.00900	15
0.01267	16
0.01633	18
0.02000	17
0.02367	16
0.02733	16
0.03100	16
0.03467	16
0.03833	18
0.04200	21
0.04567	21
0.04933	18
0.05300	12
0.05667	9
0.06033	8
0.06400	8
0.06767	6
0.07133	4
0.07500	2
0.07867	3
0.08233	7
0.08600	12
0.08967	17
0.09333	22
0.09700	26
0.10067	26
0.10433	21
0.10800	15
0.11167	11
0.11533	8
0.11900	4
0.12267	-1
0.12633	-4
0.13000	-3
0.13367	0
0.13733	4
0.14100	7
0.14467	7
0.14833	9
0.15200	12
0.15567	15
0.15933	16
0.16300	16
0.16667	17
0.17033	18
0.17400	19
0.17767	21
0.18133	21
0.18500	19
0.18867	14
0.19233	9
0.19600	7
0.19967	6
0.20333	8
0.20700	9
0.21067	10
0.21433	8
0.21800	7
0.22167	6
0.22533	6
0.22900	6
0.23267	8
0.23633	10
0.24000	12
0.24367	11
0.24733	9
0.25100	5
0.25467	5
0.25833	8
0.26200	12
0.26567	15
0.26933	18
0.27300	21
0.27667	22
0.28033	21
0.28400	19
0.28767	16
0.29133	12
0.29500	10
0.29867	10
0.30233	11
0.30600	12
0.30967	13
0.31333	15
0.31700	21
0.32067	27
0.32433	30
0.32800	29
0.33167	27
0.33533	24
0.33900	21
0.34267	19
0.34633	17
0.35000	12
0.35367	7
0.35733	3
0.36100	2
0.36467	2
0.36833	3
0.37200	5
0.37567	7
0.37933	7
0.38300	7
0.38667	11
0.39033	12
0.39400	8
0.39767	4
0.40133	3
0.40500	4
0.40867	7
0.41233	12
0.41600	13
0.41967	11
0.42333	7
0.42700	4
0.43067	3
0.43433	2
0.43800	3
0.44167	4
0.44533	7
0.44900	9
0.45267	8
0.45633	4
0.46000	1
0.46367	-1
0.46733	-2
0.47100	-1
0.47467	-1
0.47833	1
0.48200	6
0.48567	13
0.48933	23
0.49300	32
0.49667	36
0.50033	34
0.50400	28
0.50767	21
0.51133	14
0.51500	7
0.51867	1
0.52233	-2
0.52600	-3
0.52967	-1
0.53333	1
0.53700	4
0.54067	4
0.54433	4
0.54800	2
0.55167	-1
0.55533	-3
0.55900	-6
0.56267	-9
0.56633	-9
0.57000	-6
0.57367	-6
0.57733	-5
0.58100	-4
0.58467	-5
0.58833	-7
0.59200	-9
0.59567	-9
0.59933	-6
0.60300	-3
0.60667	1
0.61033	4
0.61400	5
0.61767	7
0.62133	13
0.62500	19
0.62867	24
0.63233	26
0.63600	27
0.63967	23
0.64333	16
0.64700	10
0.65067	7
0.65433	8
0.65800	6
0.66167	4
0.66533	3
0.66900	5
0.67267	7
0.67633	7
0.68000	4
0.68367	4
0.68733	4
0.69100	4
0.69467	2
0.69833	0
0.70200	-0
0.70567	-0
0.70933	2
0.71300	3
0.71667	2
0.72033	3
0.72400	6
0.72767	7
0.73133	8
0.73500	6
0.73867	1
0.74233	-6
0.74600	-10
0.74967	-10
0.75333	-9
0.75700	-13
0.76067	-16
0.76433	-14
0.76800	-9
0.77167	-7
0.77533	-8
0.77900	-10
0.78267	-7
0.78633	-2
0.79000	1
0.79367	3
0.79733	3
0.80100	6
0.80467	11
0.80833	14
0.81200	17
0.81567	19
0.81933	17
0.82300	12
0.82667	10
0.83033	11
0.83400	10
0.83767	8
0.84133	8
0.84500	7
0.84867	4
0.85233	2
0.85600	1
0.85967	2
0.86333	4
0.86700	6
0.87067	8
0.87433	8
0.87800	7
0.88167	6
0.88533	2
0.88900	1
0.89267	3
0.89633	8
0.90000	13
0.90367	16
0.90733	17
0.91100	16
0.91467	12
0.91833	9
0.92200	7
0.92567	5
0.92933	4
0.93300	6
0.93667	7
0.94033	5
0.94400	2
0.94767	-2
0.95133	-7
0.95500	-14
0.95867	-22
0.96233	-29
0.96600	-31
0.96967	-26
0.97333	-16
0.97700	-5
0.98067	-1
0.98433	-1
0.98800	-4
0.99167	-9
0.99533	-12
0.99900	-15
1.00267	-17
1.00633	-19
1.01000	-19
1.01367	-18
1.01733	-17
1.02100	-14
1.02467	-9
1.02833	-7
1.03200	-10
1.03567	-16
1.03933	-21
1.04300	-23
1.04667	-22
1.05033	-21
1.05400	-19
1.05767	-16
1.06133	-14
1.06500	-9
1.06867	-4
1.07233	-1
1.07600	2
1.07967	6
1.08333	8
1.08700	8
1.09067	6
1.09433	2
1.09800	-2
1.10167	-4
1.10533	-5
1.10900	-7
1.11267	-10
1.11633	-16
1.12000	-21
1.12367	-23
1.12733	-21
1.13100	-15
1.13467	-11
1.13833	-7
1.14200	-4
1.14567	0
1.14933	3
1.15300	3
1.15667	3
1.16033	1
1.16400	-4
1.16767	-10
1.17133	-15
1.17500	-20
1.17867	-22
1.18233	-22
1.18600	-20
1.18967	-18
1.19333	-17
1.19700	-18
1.20067	-18
1.20433	-15
1.20800	-11
1.21167	-7
1.21533	-4
1.21900	-2
1.22267	-2
1.22633	-4
1.23000	-7
1.23367	-11
1.23733	-16
1.24100	-20
1.24467	-18
1.24833	-16
1.25200	-16
1.25567	-17
1.25933	-16
1.26300	-7
1.26667	2
1.27033	6
1.27400	5
1.27767	4
1.28133	4
1.28500	4
1.28867	2
1.29233	-1
1.29600	-3
1.29967	-3
1.30333	-2
1.30700	-1
1.31067	-2
1.31433	-4
1.31800	-7
1.32167	-10
1.32533	-10
1.32900	-7
1.33267	-5
1.33633	-2
1.34000	-2
1.34367	-6
1.34733	-14
1.35100	-22
1.35467	-27
1.35833	-28
1.36200	-26
1.36567	-23
1.36933	-19
1.37300	-14
1.37667	-10
1.38033	-9
1.38400	-10
1.38767	-7
1.39133	-4
1.39500	-1
1.39867	-1
1.40233	-2
1.40600	-3
1.40967	-6
1.41333	-9
1.41700	-13
1.42067	-16
1.42433	-19
1.42800	-18
1.43167	-14
1.43533	-4
1.43900	7
1.44267	-22
1.44633	-109
1.45000	-222
1.45367	-325
1.45733	-404
1.46100	-450
1.46467	-460
1.46833	-431
1.47200	-365
1.47567	-279
1.47933	-197
1.48300	-132
1.48667	-84
1.49033	-52
1.49400	-32
1.49767	-22
1.50133	-14
1.50500	-9
1.50867	-3
1.51233	0
1.51600	5
1.51967	14
1.52333	19
1.52700	21
1.53067	24
1.53433	59
1.53800	181
1.54167	444
1.54533	831
1.54900	1262
1.55267	1653
1.55633	1955
1.56000	2141
1.56367	2183
1.56733	2057
1.57100	1780
1.57467	1418
1.57833	1050
1.58200	734
1.58567	491
1.58933	316
1.59300	199
1.59667	124
1.60033	76
1.60400	46
1.60767	25
1.61133	8
1.61500	-6
1.61867	-19
1.62233	-27
1.62600	-32
1.62967	-37
1.63333	-43
1.63700	-44
1.64067	-41
1.64433	-36
1.64800	-28
1.65167	-21
1.65533	-19
1.65900	-21
1.66267	-22
1.66633	-21
1.67000	-22
1.67367	-26
1.67733	-30
1.68100	-32
1.68467	-33
1.68833	-33
1.69200	-32
1.69567	-33
1.69933	-34
1.70300	-35
1.70667	-34
1.71033	-32
1.71400	-29
1.71767	-30
1.72133	-31
1.72500	-28
1.72867	-24
1.73233	-19
1.73600	-16
1.73967	-15
1.74333	-17
1.74700	-21
1.75067	-27
1.75433	-34
1.75800	-38
1.76167	-42
1.76533	-45
1.76900	-45
1.77267	-43
1.77633	-40
1.78000	-34
1.78367	-30
1.78733	-25
1.79100	-20
1.79467	-16
1.79833	-14
1.80200	-15
1.80567	-19
1.80933	-20
1.81300	-20
1.81667	-21
1.82033	-23
1.82400	-28
1.82767	-33
1.83133	-38
1.83500	-44
1.83867	-49
1.84233	-55
1.84600	-56
1.84967	-52
1.85333	-46
1.85700	-39
1.86067	-31
1.86433	-25
1.86800	-20
1.87167	-14
1.87533	-9
1.87900	-4
1.88267	-3
1.88633	-5
1.89000	-5
1.89367	-3
1.89733	-4
1.90100	-9
1.90467	-17
1.90833	-25
1.91200	-29
1.91567	-27
1.91933	-25
1.92300	-21
1.92667	-18
1.93033	-15
1.93400	-14
1.93767	-18
1.94133	-23
1.94500	-18
1.94867	36
1.95233	342
1.95600	1788
1.95967	6987
1.96333	21187
1.96700	51361
1.97067	101949
1.97433	170099
1.97800	245726
1.98167	315612
1.98533	367871
1.98900	394384
1.99267	391558
1.99633	361474
2.00000	311545
2.00367	252372
2.00733	194046
2.01100	143274
2.01467	102824
2.01833	72571
2.02200	50909
2.02567	35843
2.02933	25552
2.03300	18585
2.03667	13874
2.04033	10671
2.04400	8466
2.04767	6925
2.05133	5821
2.05500	5013
2.05867	4405
2.06233	3932
2.06600	3555
2.06967	3245
2.07333	2988
2.07700	2767
2.08067	2575
2.08433	2404
2.08800	2256
2.09167	2125
2.09533	2010
2.09900	1907
2.10267	1813
2.10633	1729
2.11000	1653
2.11367	1582
2.11733	1516
2.12100	1457
2.12467	1402
2.12833	1351
2.13200	1299
2.13567	1250
2.13933	1204
2.14300	1162
2.14667	1126
2.15033	1092
2.15400	1059
2.15767	1028
2.16133	998
2.16500	969
2.16867	943
2.17233	918
2.17600	895
2.17967	871
2.18333	847
2.18700	826
2.19067	808
2.19433	790
2.19800	769
2.20167	747
2.20533	728
2.20900	712
2.21267	696
2.21633	680
2.22000	666
2.22367	658
2.22733	652
2.23100	641
2.23467	629
2.23833	619
2.24200	607
2.24567	592
2.24933	576
2.25300	560
2.25667	545
2.26033	530
2.26400	517
2.26767	505
2.27133	493
2.27500	484
2.27867	477
2.28233	474
2.28600	476
2.28967	480
2.29333	481
2.29700	474
2.30067	464
2.30433	454
2.30800	446
2.31167	438
2.31533	428
2.31900	418
2.32267	409
2.32633	403
2.33000	396
2.33367	388
2.33733	379
2.34100	371
2.34467	367
2.34833	366
2.35200	364
2.35567	362
2.35933	361
2.36300	359
2.36667	356
2.37033	351
2.37400	347
2.37767	344
2.38133	343
2.38500	341
2.38867	339
2.39233	338
2.39600	337
2.39967	338
2.40333	338
2.40700	332
2.41067	324
2.41433	316
2.41800	308
2.42167	300
2.42533	296
2.42900	293
2.43267	291
2.43633	292
2.44000	289
2.44367	286
2.44733	286
2.45100	290
2.45467	292
2.45833	292
2.46200	288
2.46567	283
2.46933	278
2.47300	275
2.47667	271
2.48033	268
2.48400	268
2.48767	267
2.49133	264
2.49500	259
2.49867	256
2.50233	254
2.50600	253
2.50967	255
2.51333	258
2.51700	260
2.52067	258
2.52433	253
2.52800	248
2.53167	245
2.53533	244
2.53900	245
2.54267	247
2.54633	246
2.55000	245
2.55367	244
2.55733	241
2.56100	236
2.56467	231
2.56833	228
2.57200	222
2.57567	216
2.57933	211
2.58300	210
2.58667	216
2.59033	226
2.59400	236
2.59767	241
2.60133	236
2.60500	225
2.60867	213
2.61233	205
2.61600	200
2.61967	199
2.62333	202
2.62700	207
2.63067	212
2.63433	219
2.63800	223
2.64167	224
2.64533	222
2.64900	219
2.65267	214
2.65633	210
2.66000	209
2.66367	210
2.66733	215
2.67100	216
2.67467	216
2.67833	217
2.68200	217
2.68567	218
2.68933	219
2.69300	219
2.69667	216
2.70033	213
2.70400	210
2.70767	209
2.71133	208
2.71500	205
2.71867	201
2.72233	200
2.72600	202
2.72967	205
2.73333	210
2.73700	214
2.74067	219
2.74433	220
2.74800	217
2.75167	212
2.75533	206
2.75900	200
2.76267	194
2.76633	192
2.77000	195
2.77367	196
2.77733	195
2.78100	195
2.78467	194
2.78833	195
2.79200	198
2.79567	204
2.79933	207
2.80300	206
2.80667	202
2.81033	199
2.81400	197
2.81767	196
2.82133	197
2.82500	198
2.82867	198
2.83233	199
2.83600	203
2.83967	210
2.84333	217
2.84700	219
2.85067	219
2.85433	218
2.85800	218
2.86167	218
2.86533	219
2.86900	221
2.87267	222
2.87633	218
2.88000	212
2.88367	210
2.88733	213
2.89100	215
2.89467	213
2.89833	209
2.90200	205
2.90567	201
2.90933	199
2.91300	198
2.91667	202
2.92033	207
2.92400	210
2.92767	212
2.93133	213
2.93500	215
2.93867	215
2.94233	213
2.94600	210
2.94967	209
2.95333	214
2.95700	222
2.96067	223
2.96433	222
2.96800	220
2.97167	216
2.97533	214
2.97900	213
2.98267	212
2.98633	207
2.99000	205
2.99367	207
2.99733	207
3.00100	207
3.00467	210
3.00833	214
3.01200	218
3.01567	223
3.01933	229
3.02300	237
3.02667	243
3.03033	244
3.03400	241
3.03767	236
3.04133	232
3.04500	226
3.04867	219
3.05233	211
3.05600	203
3.05967	201
3.06333	204
3.06700	208
3.07067	212
3.07433	216
3.07800	223
3.08167	228
3.08533	228
3.08900	227
3.09267	227
3.09633	229
3.10000	228
3.10367	226
3.10733	226
3.11100	228
3.11467	234
3.11833	238
3.12200	235
3.12567	227
3.12933	220
3.13300	215
3.13667	212
3.14033	210
3.14400	211
3.14767	213
3.15133	215
3.15500	218
3.15867	221
3.16233	223
3.16600	221
3.16967	218
3.17333	218
3.17700	222
3.18067	229
3.18433	237
3.18800	242
3.19167	241
3.19533	241
3.19900	239
3.20267	233
3.20633	227
3.21000	226
3.21367	228
3.21733	232
3.22100	237
3.22467	244
3.22833	248
3.23200	247
3.23567	244
3.23933	238
3.24300	231
3.24667	226
3.25033	225
3.25400	227
3.25767	230
3.26133	231
3.26500	233
3.26867	233
3.27233	232
3.27600	233
3.27967	234
3.28333	236
3.28700	236
3.29067	234
3.29433	232
3.29800	230
3.30167	228
3.30533	226
3.30900	226
3.31267	229
3.31633	233
3.32000	234
3.32367	235
3.32733	238
3.33100	243
3.33467	248
3.33833	249
3.34200	250
3.34567	251
3.34933	254
3.35300	253
3.35667	253
3.36033	251
3.36400	247
3.36767	238
3.37133	228
3.37500	219
3.37867	213
3.38233	214
3.38600	216
3.38967	220
3.39333	223
3.39700	225
3.40067	227
3.40433	228
3.40800	226
3.41167	223
3.41533	221
3.41900	220
3.42267	221
3.42633	222
3.43000	224
3.43367	224
3.43733	222
3.44100	220
3.44467	223
3.44833	227
3.45200	230
3.45567	228
3.45933	225
3.46300	225
3.46667	228
3.47033	233
3.47400	235
3.47767	234
3.48133	233
3.48500	235
3.48867	235
3.49233	234
3.49600	232
3.49967	230
3.50333	227
3.50700	224
3.51067	221
3.51433	218
3.51800	217
3.52167	217
3.52533	219
3.52900	221
3.53267	225
3.53633	229
3.54000	231
3.54367	234
3.54733	239
3.55100	246
3.55467	251
3.55833	252
3.56200	251
3.56567	248
3.56933	244
3.57300	237
3.57667	226
3.58033	216
3.58400	213
3.58767	214
3.59133	214
3.59500	212
3.59867	211
3.60233	213
3.60600	216
3.60967	218
3.61333	219
3.61700	218
3.62067	218
3.62433	216
3.62800	213
3.63167	210
3.63533	209
3.63900	210
3.64267	212
3.64633	214
3.65000	219
3.65367	223
3.65733	224
3.66100	223
3.66467	223
3.66833	222
3.67200	221
3.67567	223
3.67933	226
3.68300	229
3.68667	230
3.69033	230
3.69400	230
3.69767	232
3.70133	234
3.70500	236
3.70867	239
3.71233	242
3.71600	242
3.71967	240
3.72333	240
3.72700	240
3.73067	240
3.73433	237
3.73800	236
3.74167	237
3.74533	238
3.74900	235
3.75267	228
3.75633	220
3.76000	212
3.76367	208
3.76733	204
3.77100	196
3.77467	190
3.77833	192
3.78200	195
3.78567	198
3.78933	199
3.79300	201
3.79667	200
3.80033	198
3.80400	195
3.80767	193
3.81133	190
3.81500	188
3.81867	190
3.82233	191
3.82600	194
3.82967	194
3.83333	193
3.83700	192
3.84067	192
3.84433	190
3.84800	186
3.85167	183
3.85533	184
3.85900	187
3.86267	190
3.86633	193
3.87000	195
3.87367	195
3.87733	196
3.88100	198
3.88467	199
3.88833	201
3.89200	205
3.89567	212
3.89933	218
3.90300	221
3.90667	225
3.91033	230
3.91400	234
3.91767	232
3.92133	225
3.92500	218
3.92867	209
3.93233	204
3.93600	200
3.93967	195
3.94333	193
3.94700	191
3.95067	190
3.95433	189
3.95800	188
3.96167	191
3.96533	194
3.96900	198
3.97267	202
3.97633	206
3.98000	209
3.98367	211
3.98733	211
3.99100	207
3.99467	204
3.99833	202

[Chromatogram (Ch2)]
Interval(msec)	220
# of Points	1091
Start Time(min)	0.002
End Time(min)	3.998
R.Time (min)	Intensity
0.00167	0
0.00533	0
0.00900	0
0.01267	0
0.01633	-0
0.02000	-1
0.02367	-1
0.02733	-1
0.03100	-1
0.03467	-1
0.03833	-1
0.04200	-1
0.04567	-1
0.04933	-1
0.05300	-1
0.05667	-1
0.06033	-1
0.06400	-1
0.06767	-0
0.07133	-0
0.07500	-1
0.07867	-1
0.08233	-1
0.08600	-1
0.08967	-1
0.09333	-1
0.09700	-1
0.10067	-0
0.10433	-0
0.10800	-0
0.11167	-1
0.11533	-1
0.11900	-1
0.12267	-2
0.12633	-2
0.13000	-2
0.13367	-2
0.13733	-2
0.14100	-2
0.14467	-2
0.14833	-2
0.15200	-2
0.15567	-2
0.15933	-2
0.16300	-2
0.16667	-2
0.17033	-2
0.17400	-2
0.17767	-2
0.18133	-2
0.18500	-2
0.18867	-2
0.19233	-2
0.19600	-2
0.19967	-2
0.20333	-2
0.20700	-2
0.21067	-2
0.21433	-2
0.21800	-2
0.22167	-2
0.22533	-2
0.22900	-2
0.23267	-2
0.23633	-2
0.24000	-2
0.24367	-2
0.24733	-2
0.25100	-2
0.25467	-2
0.25833	-2
0.26200	-2
0.26567	-2
0.26933	-2
0.27300	-3
0.27667	-3
0.28033	-3
0.28400	-3
0.28767	-3
0.29133	-3
0.29500	-3
0.29867	-3
0.30233	-3
0.30600	-3
0.30967	-3
0.31333	-3
0.31700	-3
0.32067	-3
0.32433	-3
0.32800	-3
0.33167	-3
0.33533	-3
0.33900	-3
0.34267	-3
0.34633	-3
0.35000	-3
0.35367	-3
0.35733	-3
0.36100	-3
0.36467	-3
0.36833	-3
0.37200	-3
0.37567	-3
0.37933	-2
0.38300	-2
0.38667	-2
0.39033	-2
0.39400	-2
0.39767	-3
0.40133	-3
0.40500	-3
0.40867	-3
0.41233	-3
0.41600	-3
0.41967	-3
0.42333	-3
0.42700	-2
0.43067	-2
0.43433	-2
0.43800	-2
0.44167	-2
0.44533	-2
0.44900	-2
0.45267	-2
0.45633	-2
0.46000	-2
0.46367	-2
0.46733	-2
0.47100	-2
0.47467	-2
0.47833	-3
0.48200	-3
0.48567	-3
0.48933	-3
0.49300	-4
0.49667	-4
0.50033	-4
0.50400	-4
0.50767	-4
0.51133	-4
0.51500	-3
0.51867	-3
0.52233	-3
0.52600	-3
0.52967	-3
0.53333	-3
0.53700	-4
0.54067	-4
0.54433	-4
0.54800	-4
0.55167	-4
0.55533	-4
0.55900	-3
0.56267	-3
0.56633	-3
0.57000	-3
0.57367	-3
0.57733	-3
0.58100	-4
0.58467	-4
0.58833	-4
0.59200	-5
0.59567	-5
0.59933	-5
0.60300	-5
0.60667	-5
0.61033	-5
0.61400	-4
0.61767	-4
0.62133	-4
0.62500	-4
0.62867	-4
0.63233	-3
0.63600	-3
0.63967	-3
0.64333	-3
0.64700	-3
0.65067	-2
0.65433	-2
0.65800	-2
0.66167	-2
0.66533	-2
0.66900	-2
0.67267	-2
0.67633	-2
0.68000	-2
0.68367	-2
0.68733	-2
0.69100	-2
0.69467	-2
0.69833	-2
0.70200	-2
0.70567	-3
0.70933	-3
0.71300	-3
0.71667	-2
0.72033	-2
0.72400	-2
0.72767	-2
0.73133	-2
0.73500	-2
0.73867	-2
0.74233	-2
0.74600	-2
0.74967	-2
0.75333	-2
0.75700	-2
0.76067	-2
0.76433	-2
0.76800	-3
0.77167	-3
0.77533	-3
0.77900	-4
0.78267	-4
0.78633	-4
0.79000	-4
0.79367	-4
0.79733	-4
0.80100	-4
0.80467	-4
0.80833	-4
0.81200	-4
0.81567	-4
0.81933	-4
0.82300	-4
0.82667	-5
0.83033	-5
0.83400	-5
0.83767	-6
0.84133	-6
0.84500	-6
0.84867	-6
0.85233	-5
0.85600	-5
0.85967	-4
0.86333	-4
0.86700	-4
0.87067	-4
0.87433	-3
0.87800	-3
0.88167	-3
0.88533	-3
0.88900	-3
0.89267	-3
0.89633	-3
0.90000	-3
0.90367	-3
0.90733	-3
0.91100	-3
0.91467	-3
0.91833	-3
0.92200	-2
0.92567	-2
0.92933	-2
0.93300	-2
0.93667	-3
0.94033	-3
0.94400	-3
0.94767	-3
0.95133	-3
0.95500	-3
0.95867	-3
0.96233	-3
0.96600	-3
0.96967	-3
0.97333	-3
0.97700	-3
0.98067	-3
0.98433	-3
0.98800	-3
0.99167	-4
0.99533	-4
0.99900	-4
1.00267	-4
1.00633	-4
1.01000	-4
1.01367	-4
1.01733	-4
1.02100	-4
1.02467	-4
1.02833	-3
1.03200	-4
1.03567	-4
1.03933	-4
1.04300	-4
1.04667	-4
1.05033	-4
1.05400	-4
1.05767	-4
1.06133	-4
1.06500	-4
1.06867	-4
1.07233	-4
1.07600	-4
1.07967	-4
1.08333	-4
1.08700	-3
1.09067	-3
1.09433	-3
1.09800	-3
1.10167	-4
1.10533	-4
1.10900	-4
1.11267	-4
1.11633	-4
1.12000	-4
1.12367	-4
1.12733	-4
1.13100	-4
1.13467	-4
1.13833	-4
1.14200	-4
1.14567	-4
1.14933	-4
1.15300	-4
1.15667	-4
1.16033	-4
1.16400	-4
1.16767	-4
1.17133	-5
1.17500	-5
1.17867	-5
1.18233	-5
1.18600	-5
1.18967	-5
1.19333	-5
1.19700	-5
1.20067	-5
1.20433	-5
1.20800	-4
1.21167	-4
1.21533	-4
1.21900	-4
1.22267	-4
1.22633	-4
1.23000	-4
1.23367	-4
1.23733	-4
1.24100	-5
1.24467	-5
1.24833	-4
1.25200	-4
1.25567	-4
1.25933	-4
1.26300	-4
1.26667	-4
1.27033	-4
1.27400	-4
1.27767	-4
1.28133	-4
1.28500	-4
1.28867	-3
1.29233	-3
1.29600	-3
1.29967	-3
1.30333	-3
1.30700	-3
1.31067	-3
1.31433	-3
1.31800	-3
1.32167	-3
1.32533	-3
1.32900	-3
1.33267	-4
1.33633	-4
1.34000	-4
1.34367	-4
1.34733	-4
1.35100	-4
1.35467	-4
1.35833	-4
1.36200	-4
1.36567	-4
1.36933	-4
1.37300	-4
1.37667	-4
1.38033	-4
1.38400	-4
1.38767	-5
1.39133	-5
1.39500	-5
1.39867	-5
1.40233	-5
1.40600	-5
1.40967	-5
1.41333	-6
1.41700	-6
1.42067	-6
1.42433	-5
1.42800	-5
1.43167	-5
1.43533	-4
1.43900	-4
1.44267	-4
1.44633	-4
1.45000	-4
1.45367	-4
1.45733	-4
1.46100	-4
1.46467	-4
1.46833	-4
1.47200	-4
1.47567	-5
1.47933	-5
1.48300	-5
1.48667	-5
1.49033	-4
1.49400	-4
1.49767	-4
1.50133	-4
1.50500	-4
1.50867	-4
1.51233	-4
1.51600	-4
1.51967	-5
1.52333	-5
1.52700	-5
1.53067	-6
1.53433	-6
1.53800	-6
1.54167	-5
1.54533	-5
1.54900	-5
1.55267	-5
1.55633	-4
1.56000	-4
1.56367	-3
1.56733	-3
1.57100	-3
1.57467	-4
1.57833	-4
1.58200	-4
1.58567	-4
1.58933	-4
1.59300	-5
1.59667	-6
1.60033	-6
1.60400	-8
1.60767	-9
1.61133	-10
1.61500	-12
1.61867	-14
1.62233	-17
1.62600	-20
1.62967	-23
1.63333	-26
1.63700	-30
1.64067	-33
1.64433	-36
1.64800	-40
1.65167	-43
1.65533	-46
1.65900	-49
1.66267	-53
1.66633	-56
1.67000	-60
1.67367	-64
1.67733	-69
1.68100	-73
1.68467	-77
1.68833	-82
1.69200	-86
1.69567	-89
1.69933	-92
1.70300	-95
1.70667	-97
1.71033	-98
1.71400	-99
1.71767	-100
1.72133	-100
1.72500	-100
1.72867	-100
1.73233	-99
1.73600	-99
1.73967	-98
1.74333	-98
1.74700	-97
1.75067	-97
1.75433	-96
1.75800	-95
1.76167	-94
1.76533	-93
1.76900	-93
1.77267	-92
1.77633	-92
1.78000	-93
1.78367	-95
1.78733	-97
1.79100	-98
1.79467	-100
1.79833	-101
1.80200	-102
1.80567	-102
1.80933	-102
1.81300	-102
1.81667	-102
1.82033	-102
1.82400	-102
1.82767	-102
1.83133	-102
1.83500	-102
1.83867	-103
1.84233	-103
1.84600	-103
1.84967	-104
1.85333	-103
1.85700	-103
1.86067	-103
1.86433	-103
1.86800	-103
1.87167	-103
1.87533	-103
1.87900	-102
1.88267	-102
1.88633	-102
1.89000	-101
1.89367	-101
1.89733	-100
1.90100	-100
1.90467	-100
1.90833	-100
1.91200	-100
1.91567	-101
1.91933	-101
1.92300	-101
1.92667	-101
1.93033	-100
1.93400	-100
1.93767	-99
1.94133	-98
1.94500	-98
1.94867	-97
1.95233	-97
1.95600	-97
1.95967	-96
1.96333	-96
1.96700	-96
1.97067	-95
1.97433	-95
1.97800	-96
1.98167	-96
1.98533	-97
1.98900	-97
1.99267	-97
1.99633	-97
2.00000	-97
2.00367	-97
2.00733	-97
2.01100	-97
2.01467	-96
2.01833	-96
2.02200	-95
2.02567	-95
2.02933	-95
2.03300	-95
2.03667	-94
2.04033	-94
2.04400	-93
2.04767	-92
2.05133	-92
2.05500	-91
2.05867	-91
2.06233	-90
2.06600	-90
2.06967	-90
2.07333	-90
2.07700	-89
2.08067	-89
2.08433	-89
2.08800	-89
2.09167	-88
2.09533	-87
2.09900	-87
2.10267	-87
2.10633	-87
2.11000	-87
2.11367	-87
2.11733	-87
2.12100	-87
2.12467	-87
2.12833	-87
2.13200	-86
2.13567	-86
2.13933	-85
2.14300	-84
2.14667	-83
2.15033	-83
2.15400	-83
2.15767	-83
2.16133	-82
2.16500	-82
2.16867	-82
2.17233	-82
2.17600	-82
2.17967	-82
2.18333	-81
2.18700	-81
2.19067	-81
2.19433	-81
2.19800	-81
2.20167	-81
2.20533	-80
2.20900	-80
2.21267	-80
2.21633	-79
2.22000	-78
2.22367	-78
2.22733	-77
2.23100	-76
2.23467	-75
2.23833	-75
2.24200	-76
2.24567	-76
2.24933	-77
2.25300	-77
2.25667	-77
2.26033	-76
2.26400	-76
2.26767	-76
2.27133	-75
2.27500	-75
2.27867	-74
2.28233	-74
2.28600	-73
2.28967	-73
2.29333	-72
2.29700	-72
2.30067	-71
2.30433	-71
2.30800	-71
2.31167	-70
2.31533	-70
2.31900	-70
2.32267	-70
2.32633	-69
2.33000	-69
2.33367	-68
2.33733	-68
2.34100	-67
2.34467	-66
2.34833	-65
2.35200	-64
2.35567	-63
2.35933	-63
2.36300	-62
2.36667	-62
2.37033	-60
2.37400	-58
2.37767	-56
2.38133	-52
2.38500	-48
2.38867	-45
2.39233	-41
2.39600	-37
2.39967	-33
2.40333	-29
2.40700	-25
2.41067	-21
2.41433	-17
2.41800	-14
2.42167	-11
2.42533	-8
2.42900	-6
2.43267	-3
2.43633	-2
2.44000	-0
2.44367	1
2.44733	2
2.45100	2
2.45467	3
2.45833	4
2.46200	5
2.46567	6
2.46933	7
2.47300	8
2.47667	9
2.48033	10
2.48400	11
2.48767	12
2.49133	12
2.49500	13
2.49867	14
2.50233	15
2.50600	15
2.50967	15
2.51333	16
2.51700	16
2.52067	16
2.52433	16
2.52800	15
2.53167	15
2.53533	15
2.53900	14
2.54267	14
2.54633	13
2.55000	13
2.55367	13
2.55733	12
2.56100	12
2.56467	12
2.56833	12
2.57200	11
2.57567	11
2.57933	11
2.58300	10
2.58667	10
2.59033	11
2.59400	11
2.59767	12
2.60133	13
2.60500	14
2.60867	15
2.61233	15
2.61600	15
2.61967	15
2.62333	15
2.62700	16
2.63067	16
2.63433	16
2.63800	17
2.64167	17
2.64533	18
2.64900	18
2.65267	18
2.65633	19
2.66000	19
2.66367	18
2.66733	18
2.67100	18
2.67467	19
2.67833	19
2.68200	19
2.68567	20
2.68933	20
2.69300	21
2.69667	21
2.70033	22
2.70400	23
2.70767	23
2.71133	24
2.71500	25
2.71867	25
2.72233	26
2.72600	26
2.72967	26
2.73333	25
2.73700	25
2.74067	24
2.74433	24
2.74800	23
2.75167	23
2.75533	23
2.75900	23
2.76267	23
2.76633	23
2.77000	23
2.77367	24
2.77733	24
2.78100	24
2.78467	25
2.78833	25
2.79200	25
2.79567	25
2.79933	25
2.80300	25
2.80667	25
2.81033	25
2.81400	25
2.81767	25
2.82133	25
2.82500	25
2.82867	24
2.83233	24
2.83600	24
2.83967	24
2.84333	24
2.84700	24
2.85067	24
2.85433	23
2.85800	22
2.86167	19
2.86533	14
2.86900	6
2.87267	-6
2.87633	-22
2.88000	-42
2.88367	-68
2.88733	-100
2.89100	-137
2.89467	-180
2.89833	-227
2.90200	-279
2.90567	-334
2.90933	-393
2.91300	-455
2.91667	-519
2.92033	-584
2.92400	-650
2.92767	-714
2.93133	-777
2.93500	-837
2.93867	-894
2.94233	-949
2.94600	-1005
2.94967	-1060
2.95333	-1104
2.95700	-1128
2.96067	-1128
2.96433	-1103
2.96800	-1056
2.97167	-992
2.97533	-917
2.97900	-836
2.98267	-753
2.98633	-672
2.99000	-595
2.99367	-523
2.99733	-456
3.00100	-396
3.00467	-342
3.00833	-295
3.01200	-253
3.01567	-216
3.01933	-183
3.02300	-155
3.02667	-131
3.03033	-110
3.03400	-92
3.03767	-76
3.04133	-63
3.04500	-52
3.04867	-42
3.05233	-34
3.05600	-27
3.05967	-21
3.06333	-16
3.06700	-11
3.07067	-7
3.07433	-4
3.07800	-2
3.08167	1
3.08533	3
3.08900	4
3.09267	6
3.09633	7
3.10000	8
3.10367	9
3.10733	10
3.11100	11
3.11467	11
3.11833	12
3.12200	13
3.12567	13
3.12933	14
3.13300	14
3.13667	15
3.14033	15
3.14400	16
3.14767	16
3.15133	17
3.15500	17
3.15867	17
3.16233	18
3.16600	18
3.16967	18
3.17333	18
3.17700	18
3.18067	19
3.18433	19
3.18800	19
3.19167	19
3.19533	20
3.19900	20
3.20267	20
3.20633	20
3.21000	20
3.21367	21
3.21733	21
3.22100	21
3.22467	22
3.22833	22
3.23200	22
3.23567	23
3.23933	23
3.24300	23
3.24667	23
3.25033	24
3.25400	24
3.25767	24
3.26133	25
3.26500	25
3.26867	25
3.27233	26
3.27600	26
3.27967	26
3.28333	27
3.28700	27
3.29067	27
3.29433	28
3.29800	28
3.30167	28
3.30533	28
3.30900	28
3.31267	28
3.31633	28
3.32000	28
3.32367	28
3.32733	28
3.33100	28
3.33467	28
3.33833	28
3.34200	28
3.34567	28
3.34933	28
3.35300	28
3.35667	27
3.36033	27
3.36400	27
3.36767	27
3.37133	27
3.37500	27
3.37867	26
3.38233	26
3.38600	26
3.38967	26
3.39333	26
3.39700	26
3.40067	26
3.40433	26
3.40800	26
3.41167	26
3.41533	26
3.41900	26
3.42267	26
3.42633	26
3.43000	26
3.43367	26
3.43733	26
3.44100	27
3.44467	27
3.44833	27
3.45200	27
3.45567	27
3.45933	27
3.46300	26
3.46667	26
3.47033	26
3.47400	26
3.47767	26
3.48133	26
3.48500	26
3.48867	26
3.49233	26
3.49600	26
3.49967	27
3.50333	27
3.50700	27
3.51067	27
3.51433	26
3.51800	26
3.52167	26
3.52533	26
3.52900	26
3.53267	26
3.53633	26
3.54000	26
3.54367	26
3.54733	26
3.55100	26
3.55467	26
3.55833	26
3.56200	26
3.56567	25
3.56933	25
3.57300	26
3.57667	26
3.58033	26
3.58400	26
3.58767	26
3.59133	26
3.59500	26
3.59867	26
3.60233	26
3.60600	26
3.60967	26
3.61333	26
3.61700	26
3.62067	26
3.62433	26
3.62800	26
3.63167	26
3.63533	26
3.63900	26
3.64267	26
3.64633	27
3.65000	27
3.65367	27
3.65733	26
3.66100	26
3.66467	26
3.66833	26
3.67200	26
3.67567	26
3.67933	26
3.68300	26
3.68667	26
3.69033	25
3.69400	25
3.69767	25
3.70133	25
3.70500	25
3.70867	25
3.71233	25
3.71600	25
3.71967	25
3.72333	26
3.72700	26
3.73067	26
3.73433	26
3.73800	26
3.74167	26
3.74533	26
3.74900	26
3.75267	26
3.75633	26
3.76000	26
3.76367	26
3.76733	26
3.77100	26
3.77467	26
3.77833	26
3.78200	26
3.78567	26
3.78933	26
3.79300	26
3.79667	26
3.80033	26
3.80400	26
3.80767	26
3.81133	26
3.81500	26
3.81867	26
3.82233	26
3.82600	26
3.82967	26
3.83333	26
3.83700	26
3.84067	26
3.84433	26
3.84800	26
3.85167	27
3.85533	27
3.85900	27
3.86267	27
3.86633	27
3.87000	27
3.87367	27
3.87733	27
3.88100	27
3.88467	27
3.88833	27
3.89200	27
3.89567	27
3.89933	27
3.90300	27
3.90667	27
3.91033	27
3.91400	27
3.91767	27
3.92133	27
3.92500	27
3.92867	27
3.93233	27
3.93600	27
3.93967	27
3.94333	27
3.94700	27
3.95067	27
3.95433	27
3.95800	27
3.96167	27
3.96533	27
3.96900	27
3.97267	27
3.97633	27
3.98000	27
3.98367	27
3.98733	27
3.99100	27
3.99467	27
3.99833	27

[Chromatogram (Ch3)]
Interval(msec)	220
# of Points	1091
Start Time(min)	0.002
End Time(min)	3.998
R.Time (min)	Intensity
0.00167	-1
0.00533	-2
0.00900	-2
0.01267	-3
0.01633	-2
0.02000	-3
0.02367	-3
0.02733	-2
0.03100	-1
0.03467	-3
0.03833	-4
0.04200	-1
0.04567	1
0.04933	4
0.05300	6
0.05667	6
0.06033	2
0.06400	1
0.06767	1
0.07133	0
0.07500	-2
0.07867	-4
0.08233	-3
0.08600	-5
0.08967	-7
0.09333	-8
0.09700	-9
0.10067	-8
0.10433	-6
0.10800	-4
0.11167	-2
0.11533	-2
0.11900	-3
0.12267	-4
0.12633	-2
0.13000	1
0.13367	4
0.13733	4
0.14100	3
0.14467	1
0.14833	-3
0.15200	-6
0.15567	-5
0.15933	-4
0.16300	-2
0.16667	0
0.17033	-1
0.17400	-5
0.17767	-5
0.18133	-5
0.18500	-5
0.18867	-5
0.19233	-5
0.19600	-7
0.19967	-7
0.20333	-8
0.20700	-8
0.21067	-8
0.21433	-6
0.21800	-4
0.22167	-3
0.22533	-4
0.22900	-5
0.23267	-5
0.23633	-3
0.24000	-0
0.24367	1
0.24733	-0
0.25100	-2
0.25467	-3
0.25833	-3
0.26200	-1
0.26567	2
0.26933	3
0.27300	1
0.27667	-2
0.28033	-3
0.28400	-4
0.28767	-2
0.29133	-1
0.29500	-1
0.29867	-1
0.30233	-3
0.30600	-5
0.30967	-5
0.31333	-6
0.31700	-6
0.32067	-3
0.32433	-4
0.32800	-7
0.33167	-8
0.33533	-8
0.33900	-9
0.34267	-9
0.34633	-11
0.35000	-13
0.35367	-11
0.35733	-7
0.36100	-4
0.36467	-4
0.36833	-5
0.37200	-5
0.37567	-5
0.37933	-6
0.38300	-6
0.38667	-5
0.39033	-5
0.39400	-4
0.39767	-4
0.40133	-5
0.40500	-4
0.40867	-4
0.41233	-3
0.41600	-4
0.41967	-5
0.42333	-6
0.42700	-8
0.43067	-7
0.43433	-4
0.43800	-3
0.44167	-4
0.44533	-3
0.44900	-5
0.45267	-7
0.45633	-8
0.46000	-7
0.46367	-6
0.46733	-6
0.47100	-7
0.47467	-8
0.47833	-6
0.48200	-6
0.48567	-4
0.48933	-4
0.49300	-6
0.49667	-6
0.50033	-5
0.50400	-3
0.50767	-1
0.51133	2
0.51500	2
0.51867	0
0.52233	-3
0.52600	-5
0.52967	-6
0.53333	-3
0.53700	-0
0.54067	1
0.54433	1
0.54800	1
0.55167	-1
0.55533	-2
0.55900	-2
0.56267	-3
0.56633	-3
0.57000	0
0.57367	2
0.57733	2
0.58100	-1
0.58467	-4
0.58833	-6
0.59200	-6
0.59567	-5
0.59933	-5
0.60300	-7
0.60667	-8
0.61033	-7
0.61400	-7
0.61767	-7
0.62133	-6
0.62500	-6
0.62867	-7
0.63233	-7
0.63600	-6
0.63967	-1
0.64333	2
0.64700	3
0.65067	6
0.65433	5
0.65800	3
0.66167	-0
0.66533	-1
0.66900	0
0.67267	1
0.67633	1
0.68000	1
0.68367	1
0.68733	-2
0.69100	-4
0.69467	-4
0.69833	-3
0.70200	-3
0.70567	-5
0.70933	-4
0.71300	-3
0.71667	-3
0.72033	-2
0.72400	-1
0.72767	-1
0.73133	-2
0.73500	-3
0.73867	-2
0.74233	-4
0.74600	-5
0.74967	-2
0.75333	1
0.75700	2
0.76067	2
0.76433	3
0.76800	4
0.77167	5
0.77533	5
0.77900	3
0.78267	1
0.78633	1
0.79000	-2
0.79367	-5
0.79733	-4
0.80100	-2
0.80467	-1
0.80833	1
0.81200	3
0.81567	4
0.81933	2
0.82300	0
0.82667	-1
0.83033	-1
0.83400	1
0.83767	4
0.84133	5
0.84500	6
0.84867	5
0.85233	3
0.85600	2
0.85967	1
0.86333	-0
0.86700	-0
0.87067	1
0.87433	4
0.87800	7
0.88167	7
0.88533	5
0.88900	4
0.89267	1
0.89633	-2
0.90000	-1
0.90367	-1
0.90733	1
0.91100	3
0.91467	4
0.91833	3
0.92200	2
0.92567	2
0.92933	1
0.93300	0
0.93667	-1
0.94033	-1
0.94400	1
0.94767	5
0.95133	7
0.95500	9
0.95867	10
0.96233	10
0.96600	8
0.96967	5
0.97333	1
0.97700	-0
0.98067	0
0.98433	-0
0.98800	-2
0.99167	-3
0.99533	-5
0.99900	-7
1.00267	-7
1.00633	-7
1.01000	-6
1.01367	-3
1.01733	-2
1.02100	-2
1.02467	-2
1.02833	-2
1.03200	-1
1.03567	1
1.03933	2
1.04300	2
1.04667	2
1.05033	3
1.05400	4
1.05767	3
1.06133	2
1.06500	-1
1.06867	-2
1.07233	1
1.07600	4
1.07967	5
1.08333	5
1.08700	5
1.09067	4
1.09433	1
1.09800	-1
1.10167	-2
1.10533	-2
1.10900	-1
1.11267	0
1.11633	3
1.12000	4
1.12367	2
1.12733	0
1.13100	-0
1.13467	-1
1.13833	-0
1.14200	-1
1.14567	-1
1.14933	1
1.15300	4
1.15667	4
1.16033	3
1.16400	2
1.16767	2
1.17133	2
1.17500	1
1.17867	1
1.18233	1
1.18600	3
1.18967	4
1.19333	7
1.19700	8
1.20067	7
1.20433	8
1.20800	6
1.21167	1
1.21533	-0
1.21900	-0
1.22267	1
1.22633	3
1.23000	5
1.23367	7
1.23733	9
1.24100	9
1.24467	6
1.24833	4
1.25200	3
1.25567	5
1.25933	5
1.26300	5
1.26667	5
1.27033	5
1.27400	5
1.27767	7
1.28133	9
1.28500	9
1.28867	10
1.29233	8
1.29600	5
1.29967	3
1.30333	2
1.30700	2
1.31067	0
1.31433	1
1.31800	2
1.32167	3
1.32533	4
1.32900	7
1.33267	7
1.33633	7
1.34000	6
1.34367	6
1.34733	5
1.35100	4
1.35467	5
1.35833	5
1.36200	5
1.36567	5
1.36933	6
1.37300	6
1.37667	4
1.38033	3
1.38400	1
1.38767	-0
1.39133	-1
1.39500	-1
1.39867	1
1.40233	4
1.40600	5
1.40967	4
1.41333	5
1.41700	5
1.42067	2
1.42433	1
1.42800	-1
1.43167	-0
1.43533	-0
1.43900	2
1.44267	5
1.44633	8
1.45000	11
1.45367	12
1.45733	12
1.46100	11
1.46467	11
1.46833	9
1.47200	7
1.47567	5
1.47933	5
1.48300	6
1.48667	7
1.49033	8
1.49400	7
1.49767	7
1.50133	7
1.50500	7
1.50867	9
1.51233	11
1.51600	12
1.51967	12
1.52333	10
1.52700	5
1.53067	3
1.53433	4
1.53800	6
1.54167	7
1.54533	7
1.54900	7
1.55267	6
1.55633	5
1.56000	5
1.56367	7
1.56733	12
1.57100	17
1.57467	19
1.57833	20
1.58200	20
1.58567	20
1.58933	23
1.59300	24
1.59667	24
1.60033	23
1.60400	21
1.60767	19
1.61133	18
1.61500	18
1.61867	18
1.62233	16
1.62600	17
1.62967	18
1.63333	16
1.63700	13
1.64067	11
1.64433	9
1.64800	8
1.65167	8
1.65533	8
1.65900	7
1.66267	5
1.66633	5
1.67000	9
1.67367	11
1.67733	13
1.68100	15
1.68467	16
1.68833	17
1.69200	16
1.69567	16
1.69933	15
1.70300	12
1.70667	11
1.71033	10
1.71400	10
1.71767	13
1.72133	16
1.72500	17
1.72867	17
1.73233	15
1.73600	12
1.73967	11
1.74333	11
1.74700	11
1.75067	11
1.75433	12
1.75800	14
1.76167	16
1.76533	17
1.76900	17
1.77267	18
1.77633	18
1.78000	21
1.78367	23
1.78733	24
1.79100	23
1.79467	25
1.79833	26
1.80200	25
1.80567	22
1.80933	23
1.81300	26
1.81667	28
1.82033	27
1.82400	27
1.82767	25
1.83133	24
1.83500	24
1.83867	24
1.84233	23
1.84600	20
1.84967	17
1.85333	15
1.85700	15
1.86067	15
1.86433	14
1.86800	14
1.87167	14
1.87533	15
1.87900	17
1.88267	19
1.88633	21
1.89000	25
1.89367	28
1.89733	30
1.90100	32
1.90467	33
1.90833	32
1.91200	31
1.91567	30
1.91933	27
1.92300	27
1.92667	28
1.93033	29
1.93400	33
1.93767	37
1.94133	38
1.94500	35
1.94867	32
1.95233	30
1.95600	28
1.95967	26
1.96333	27
1.96700	31
1.97067	31
1.97433	31
1.97800	33
1.98167	34
1.98533	36
1.98900	37
1.99267	39
1.99633	40
2.00000	42
2.00367	43
2.00733	42
2.01100	42
2.01467	42
2.01833	43
2.02200	45
2.02567	47
2.02933	49
2.03300	49
2.03667	50
2.04033	49
2.04400	47
2.04767	41
2.05133	38
2.05500	40
2.05867	43
2.06233	45
2.06600	46
2.06967	46
2.07333	49
2.07700	54
2.08067	55
2.08433	56
2.08800	57
2.09167	57
2.09533	56
2.09900	55
2.10267	56
2.10633	57
2.11000	54
2.11367	53
2.11733	56
2.12100	58
2.12467	58
2.12833	59
2.13200	61
2.13567	63
2.13933	65
2.14300	65
2.14667	65
2.15033	67
2.15400	70
2.15767	71
2.16133	74
2.16500	74
2.16867	71
2.17233	70
2.17600	71
2.17967	72
2.18333	75
2.18700	77
2.19067	77
2.19433	77
2.19800	78
2.20167	79
2.20533	80
2.20900	81
2.21267	82
2.21633	83
2.22000	84
2.22367	84
2.22733	83
2.23100	82
2.23467	83
2.23833	84
2.24200	88
2.24567	90
2.24933	92
2.25300	92
2.25667	94
2.26033	95
2.26400	96
2.26767	96
2.27133	100
2.27500	104
2.27867	104
2.28233	104
2.28600	102
2.28967	101
2.29333	101
2.29700	101
2.30067	102
2.30433	103
2.30800	102
2.31167	103
2.31533	104
2.31900	106
2.32267	107
2.32633	105
2.33000	105
2.33367	107
2.33733	111
2.34100	113
2.34467	115
2.34833	115
2.35200	114
2.35567	113
2.35933	114
2.36300	115
2.36667	115
2.37033	113
2.37400	111
2.37767	108
2.38133	106
2.38500	107
2.38867	104
2.39233	105
2.39600	109
2.39967	115
2.40333	120
2.40700	124
2.41067	128
2.41433	132
2.41800	134
2.42167	137
2.42533	138
2.42900	135
2.43267	133
2.43633	131
2.44000	137
2.44367	187
2.44733	277
2.45100	358
2.45467	415
2.45833	443
2.46200	439
2.46567	421
2.46933	402
2.47300	387
2.47667	375
2.48033	362
2.48400	344
2.48767	322
2.49133	299
2.49500	276
2.49867	259
2.50233	251
2.50600	247
2.50967	249
2.51333	254
2.51700	259
2.52067	264
2.52433	267
2.52800	267
2.53167	262
2.53533	252
2.53900	241
2.54267	227
2.54633	214
2.55000	200
2.55367	188
2.55733	179
2.56100	174
2.56467	170
2.56833	168
2.57200	169
2.57567	169
2.57933	171
2.58300	175
2.58667	178
2.59033	182
2.59400	186
2.59767	191
2.60133	199
2.60500	207
2.60867	215
2.61233	223
2.61600	230
2.61967	236
2.62333	238
2.62700	239
2.63067	239
2.63433	235
2.63800	227
2.64167	218
2.64533	210
2.64900	204
2.65267	197
2.65633	190
2.66000	183
2.66367	176
2.66733	170
2.67100	163
2.67467	158
2.67833	155
2.68200	152
2.68567	147
2.68933	143
2.69300	140
2.69667	139
2.70033	138
2.70400	138
2.70767	137
2.71133	136
2.71500	138
2.71867	137
2.72233	137
2.72600	137
2.72967	138
2.73333	140
2.73700	142
2.74067	145
2.74433	145
2.74800	145
2.75167	143
2.75533	143
2.75900	142
2.76267	143
2.76633	144
2.77000	145
2.77367	146
2.77733	149
2.78100	152
2.78467	155
2.78833	160
2.79200	163
2.79567	164
2.79933	164
2.80300	168
2.80667	172
2.81033	176
2.81400	178
2.81767	182
2.82133	185
2.82500	185
2.82867	186
2.83233	191
2.83600	200
2.83967	221
2.84333	262
2.84700	341
2.85067	477
2.85433	686
2.85800	984
2.86167	1369
2.86533	1825
2.86900	2324
2.87267	2829
2.87633	3293
2.88000	3676
2.88367	3956
2.88733	4115
2.89100	4151
2.89467	4078
2.89833	3917
2.90200	3690
2.90567	3421
2.90933	3131
2.91300	2835
2.91667	2545
2.92033	2273
2.92400	2021
2.92767	1788
2.93133	1578
2.93500	1390
2.93867	1224
2.94233	1078
2.94600	955
2.94967	847
2.95333	754
2.95700	672
2.96067	601
2.96433	537
2.96800	482
2.97167	435
2.97533	394
2.97900	360
2.98267	332
2.98633	308
2.99000	287
2.99367	269
2.99733	254
3.00100	240
3.00467	228
3.00833	218
3.01200	209
3.01567	202
3.01933	200
3.02300	197
3.02667	192
3.03033	187
3.03400	183
3.03767	180
3.04133	176
3.04500	174
3.04867	174
3.05233	172
3.05600	170
3.05967	168
3.06333	166
3.06700	164
3.07067	162
3.07433	160
3.07800	158
3.08167	158
3.08533	160
3.08900	163
3.09267	165
3.09633	166
3.10000	165
3.10367	164
3.10733	165
3.11100	165
3.11467	164
3.11833	165
3.12200	165
3.12567	166
3.12933	166
3.13300	166
3.13667	167
3.14033	168
3.14400	168
3.14767	168
3.15133	168
3.15500	170
3.15867	173
3.16233	173
3.16600	173
3.16967	173
3.17333	169
3.17700	157
3.18067	157
3.18433	178
3.18800	222
3.19167	280
3.19533	344
3.19900	410
3.20267	476
3.20633	543
3.21000	612
3.21367	682
3.21733	747
3.22100	803
3.22467	851
3.22833	894
3.23200	933
3.23567	965
3.23933	990
3.24300	1007
3.24667	1020
3.25033	1032
3.25400	1041
3.25767	1047
3.26133	1053
3.26500	1056
3.26867	1055
3.27233	1052
3.27600	1050
3.27967	1048
3.28333	1048
3.28700	1047
3.29067	1045
3.29433	1041
3.29800	1038
3.30167	1033
3.30533	1029
3.30900	1025
3.31267	1019
3.31633	1014
3.32000	1008
3.32367	1002
3.32733	997
3.33100	992
3.33467	987
3.33833	982
3.34200	979
3.34567	975
3.34933	972
3.35300	968
3.35667	965
3.36033	959
3.36400	955
3.36767	953
3.37133	949
3.37500	944
3.37867	939
3.38233	935
3.38600	928
3.38967	921
3.39333	912
3.39700	909
3.40067	907
3.40433	902
3.40800	897
3.41167	895
3.41533	892
3.41900	889
3.42267	885
3.42633	880
3.43000	878
3.43367	873
3.43733	867
3.44100	861
3.44467	858
3.44833	857
3.45200	854
3.45567	852
3.45933	850
3.46300	847
3.46667	844
3.47033	839
3.47400	835
3.47767	835
3.48133	834
3.48500	834
3.48867	834
3.49233	832
3.49600	830
3.49967	827
3.50333	822
3.50700	817
3.51067	815
3.51433	815
3.51800	814
3.52167	812
3.52533	807
3.52900	804
3.53267	803
3.53633	803
3.54000	802
3.54367	801
3.54733	803
3.55100	802
3.55467	799
3.55833	797
3.56200	795
3.56567	795
3.56933	791
3.57300	790
3.57667	789
3.58033	788
3.58400	785
3.58767	783
3.59133	780
3.59500	776
3.59867	775
3.60233	775
3.60600	775
3.60967	776
3.61333	774
3.61700	772
3.62067	770
3.62433	768
3.62800	767
3.63167	768
3.63533	768
3.63900	764
3.64267	761
3.64633	759
3.65000	760
3.65367	759
3.65733	756
3.66100	755
3.66467	757
3.66833	755
3.67200	753
3.67567	752
3.67933	751
3.68300	747
3.68667	744
3.69033	742
3.69400	739
3.69767	737
3.70133	739
3.70500	738
3.70867	732
3.71233	728
3.71600	725
3.71967	723
3.72333	724
3.72700	723
3.73067	723
3.73433	721
3.73800	719
3.74167	717
3.74533	713
3.74900	710
3.75267	705
3.75633	702
3.76000	700
3.76367	699
3.76733	699
3.77100	696
3.77467	693
3.77833	690
3.78200	689
3.78567	689
3.78933	689
3.79300	686
3.79667	685
3.80033	682
3.80400	680
3.80767	679
3.81133	677
3.81500	677
3.81867	674
3.82233	673
3.82600	670
3.82967	667
3.83333	664
3.83700	663
3.84067	662
3.84433	661
3.84800	660
3.85167	657
3.85533	656
3.85900	657
3.86267	656
3.86633	654
3.87000	653
3.87367	651
3.87733	649
3.88100	645
3.88467	644
3.88833	644
3.89200	642
3.89567	640
3.89933	640
3.90300	639
3.90667	637
3.91033	636
3.91400	632
3.91767	630
3.92133	628
3.92500	628
3.92867	630
3.93233	632
3.93600	633
3.93967	629
3.94333	625
3.94700	622
3.95067	622
3.95433	624
3.95800	624
3.96167	623
3.96533	621
3.96900	620
3.97267	619
3.97633	618
3.98000	615
3.98367	611
3.98733	608
3.99100	604
3.99467	598
3.99833	594

[Status Trace (Column Oven Temperature)]
Interval(msec)	1000
# of Points	240
Start Time(min)	0.015
End Time(min)	3.998
Intensity Units	
Intensity Multiplier	1
R.Time (min)	Intensity
0.01510	35.03
0.03177	35.02
0.04843	35.01
0.06510	35.01
0.08177	35.02
0.09843	35.02
0.11510	35.02
0.13177	35.02
0.14843	35.02
0.16510	35.02
0.18177	35.01
0.19843	35.01
0.21510	35.00
0.23177	35.01
0.24843	35.00
0.26510	35.01
0.28177	35.01
0.29843	35.01
0.31510	35.01
0.33177	35.01
0.34843	35.01
0.36510	35.01
0.38177	35.01
0.39843	35.00
0.41510	35.00
0.43177	34.99
0.44843	34.99
0.46510	34.99
0.48177	35.00
0.49843	35.01
0.51510	35.01
0.53177	35.00
0.54843	35.01
0.56510	35.00
0.58177	35.01
0.59843	35.01
0.61510	35.00
0.63177	34.99
0.64843	34.99
0.66510	34.99
0.68177	35.00
0.69843	34.99
0.71510	34.99
0.73177	34.99
0.74843	34.98
0.76510	34.98
0.78177	34.98
0.79843	34.98
0.81510	34.99
0.83177	34.99
0.84843	34.99
0.86510	35.00
0.88177	35.01
0.89843	35.00
0.91510	35.00
0.93177	35.00
0.94843	35.00
0.96510	35.01
0.98177	35.00
0.99843	35.00
1.01510	34.99
1.03177	34.98
1.04843	34.99
1.06510	34.99
1.08177	34.98
1.09843	34.98
1.11510	34.98
1.13177	34.99
1.14843	34.99
1.16510	35.00
1.18177	34.99
1.19843	34.99
1.21510	35.00
1.23177	35.00
1.24843	34.99
1.26510	34.99
1.28177	34.99
1.29843	34.99
1.31510	34.99
1.33177	34.99
1.34843	34.99
1.36510	34.99
1.38177	35.00
1.39843	35.01
1.41510	35.01
1.43177	35.01
1.44843	35.00
1.46510	35.00
1.48177	35.00
1.49843	34.99
1.51510	34.99
1.53177	34.99
1.54843	35.00
1.56510	35.00
1.58177	35.00
1.59843	35.03
1.61510	35.12
1.63177	35.27
1.64843	35.49
1.66510	35.76
1.68177	36.13
1.69843	36.51
1.71510	36.87
1.73177	37.19
1.74843	37.51
1.76510	37.79
1.78177	38.13
1.79843	38.47
1.81510	38.81
1.83177	39.14
1.84843	39.49
1.86510	39.82
1.88177	40.16
1.89843	40.47
1.91510	40.82
1.93177	41.14
1.94843	41.47
1.96510	41.78
1.98177	42.12
1.99843	42.46
2.01510	42.79
2.03177	43.12
2.04843	43.44
2.06510	43.77
2.08177	44.10
2.09843	44.42
2.11510	44.75
2.13177	45.07
2.14843	45.40
2.16510	45.74
2.18177	46.05
2.19843	46.40
2.21510	46.71
2.23177	47.03
2.24843	47.36
2.26510	47.69
2.28177	48.03
2.29843	48.35
2.31510	48.69
2.33177	48.98
2.34843	49.27
2.36510	49.54
2.38177	49.67
2.39843	49.71
2.41510	49.71
2.43177	49.70
2.44843	49.73
2.46510	49.74
2.48177	49.75
2.49843	49.75
2.51510	49.77
2.53177	49.80
2.54843	49.81
2.56510	49.80
2.58177	49.83
2.59843	49.82
2.61510	49.84
2.63177	49.84
2.64843	49.84
2.66510	49.86
2.68177	49.87
2.69843	49.86
2.71510	49.85
2.73177	49.85
2.74843	49.87
2.76510	49.87
2.78177	49.88
2.79843	49.89
2.81510	49.89
2.83177	49.90
2.84843	49.91
2.86510	49.92
2.88177	49.93
2.89843	49.94
2.91510	49.95
2.93177	49.97
2.94843	49.98
2.96510	49.99
2.98177	50.00
2.99843	50.00
3.01510	50.01
3.03177	50.02
3.04843	50.02
3.06510	50.03
3.08177	50.04
3.09843	50.05
3.11510	50.06
3.13177	50.07
3.14843	50.08
3.16510	50.09
3.18177	50.10
3.19843	50.10
3.21510	50.11
3.23177	50.11
3.24843	50.10
3.26510	50.09
3.28177	50.08
3.29843	50.06
3.31510	50.05
3.33177	50.03
3.34843	50.02
3.36510	50.02
3.38177	50.02
3.39843	50.02
3.41510	50.02
3.43177	50.01
3.44843	50.02
3.46510	50.02
3.48177	50.02
3.49843	50.02
3.51510	50.03
3.53177	50.03
3.54843	50.04
3.56510	50.05
3.58177	50.05
3.59843	50.05
3.61510	50.05
3.63177	50.04
3.64843	50.04
3.66510	50.04
3.68177	50.04
3.69843	50.05
3.71510	50.05
3.73177	50.04
3.74843	50.05
3.76510	50.05
3.78177	50.05
3.79843	50.06
3.81510	50.06
3.83177	50.06
3.84843	50.06
3.86510	50.06
3.88177	50.06
3.89843	50.06
3.91510	50.05
3.93177	50.06
3.94843	50.06
3.96510	50.06
3.98177	50.05
3.99843	50.05

[Status Trace (Injection Unit Temperature)]
Interval(msec)	1000
# of Points	240
Start Time(min)	0.015
End Time(min)	3.998
Intensity Units	
Intensity Multiplier	1
R.Time (min)	Intensity
0.01510	99.98
0.03177	99.98
0.04843	99.98
0.06510	99.97
0.08177	99.97
0.09843	99.98
0.11510	99.97
0.13177	99.98
0.14843	99.97
0.16510	99.98
0.18177	99.97
0.19843	99.98
0.21510	99.98
0.23177	99.98
0.24843	99.98
0.26510	99.98
0.28177	99.98
0.29843	99.98
0.31510	99.98
0.33177	99.98
0.34843	99.98
0.36510	99.98
0.38177	99.98
0.39843	99.98
0.41510	99.98
0.43177	99.98
0.44843	99.98
0.46510	99.98
0.48177	99.98
0.49843	99.98
0.51510	99.98
0.53177	99.98
0.54843	99.98
0.56510	99.98
0.58177	99.98
0.59843	99.98
0.61510	99.98
0.63177	99.98
0.64843	99.98
0.66510	99.98
0.68177	99.98
0.69843	99.98
0.71510	99.98
0.73177	99.98
0.74843	99.98
0.76510	99.98
0.78177	99.98
0.79843	99.98
0.81510	99.98
0.83177	99.98
0.84843	99.98
0.86510	99.99
0.88177	99.98
0.89843	99.98
0.91510	99.98
0.93177	99.98
0.94843	99.98
0.96510	99.98
0.98177	99.98
0.99843	99.98
1.01510	99.98
1.03177	99.99
1.04843	99.98
1.06510	99.98
1.08177	99.98
1.09843	99.98
1.11510	99.98
1.13177	99.99
1.14843	99.99
1.16510	99.98
1.18177	99.98
1.19843	99.98
1.21510	99.98
1.23177	99.98
1.24843	99.98
1.26510	99.98
1.28177	99.98
1.29843	99.98
1.31510	99.98
1.33177	99.98
1.34843	99.98
1.36510	99.98
1.38177	99.98
1.39843	99.98
1.41510	99.98
1.43177	99.98
1.44843	99.98
1.46510	99.98
1.48177	99.98
1.49843	99.98
1.51510	99.98
1.53177	99.98
1.54843	99.98
1.56510	99.98
1.58177	99.98
1.59843	99.99
1.61510	99.98
1.63177	99.98
1.64843	99.98
1.66510	99.99
1.68177	99.98
1.69843	99.99
1.71510	99.98
1.73177	99.98
1.74843	99.99
1.76510	99.98
1.78177	99.98
1.79843	99.98
1.81510	99.98
1.83177	99.98
1.84843	99.98
1.86510	99.98
1.88177	99.98
1.89843	99.98
1.91510	99.98
1.93177	99.98
1.94843	99.98
1.96510	99.98
1.98177	99.97
1.99843	99.97
2.01510	99.97
2.03177	99.97
2.04843	99.97
2.06510	99.97
2.08177	99.97
2.09843	99.97
2.11510	99.97
2.13177	99.97
2.14843	99.97
2.16510	99.96
2.18177	99.96
2.19843	99.97
2.21510	99.96
2.23177	99.96
2.24843	99.96
2.26510	99.96
2.28177	99.96
2.29843	99.96
2.31510	99.96
2.33177	99.96
2.34843	99.96
2.36510	99.96
2.38177	99.96
2.39843	99.96
2.41510	99.96
2.43177	99.96
2.44843	99.96
2.46510	99.96
2.48177	99.96
2.49843	99.97
2.51510	99.96
2.53177	99.97
2.54843	99.96
2.56510	99.97
2.58177	99.97
2.59843	99.97
2.61510	99.97
2.63177	99.97
2.64843	99.98
2.66510	99.98
2.68177	99.98
2.69843	99.98
2.71510	99.98
2.73177	99.98
2.74843	99.98
2.76510	99.98
2.78177	99.99
2.79843	99.99
2.81510	99.99
2.83177	99.99
2.84843	99.99
2.86510	100.00
2.88177	100.00
2.89843	99.99
2.91510	100.00
2.93177	100.00
2.94843	100.00
2.96510	100.00
2.98177	100.00
2.99843	100.01
3.01510	100.01
3.03177	100.01
3.04843	100.01
3.06510	100.01
3.08177	100.01
3.09843	100.01
3.11510	100.01
3.13177	100.01
3.14843	100.01
3.16510	100.02
3.18177	100.02
3.19843	100.02
3.21510	100.02
3.23177	100.02
3.24843	100.02
3.26510	100.02
3.28177	100.02
3.29843	100.02
3.31510	100.02
3.33177	100.02
3.34843	100.02
3.36510	100.02
3.38177	100.03
3.39843	100.02
3.41510	100.03
3.43177	100.03
3.44843	100.03
3.46510	100.03
3.48177	100.03
3.49843	100.03
3.51510	100.03
3.53177	100.03
3.54843	100.03
3.56510	100.03
3.58177	100.03
3.59843	100.04
3.61510	100.03
3.63177	100.03
3.64843	100.03
3.66510	100.04
3.68177	100.04
3.69843	100.04
3.71510	100.04
3.73177	100.04
3.74843	100.04
3.76510	100.04
3.78177	100.04
3.79843	100.04
3.81510	100.04
3.83177	100.04
3.84843	100.04
3.86510	100.04
3.88177	100.04
3.89843	100.04
3.91510	100.05
3.93177	100.04
3.94843	100.04
3.96510	100.04
3.98177	100.04
3.99843	100.04

[Status Trace (Carrier Gas Pressure)]
Interval(msec)	1000
# of Points	240
Start Time(min)	0.015
End Time(min)	3.998
Intensity Units	
Intensity Multiplier	1
R.Time (min)	Intensity
0.01510	57.36
0.03177	55.59
0.04843	58.05
0.06510	59.84
0.08177	58.67
0.09843	57.98
0.11510	57.99
0.13177	58.01
0.14843	58.01
0.16510	58.00
0.18177	58.00
0.19843	58.00
0.21510	58.00
0.23177	58.00
0.24843	58.00
0.26510	58.00
0.28177	58.00
0.29843	58.00
0.31510	58.00
0.33177	58.00
0.34843	58.00
0.36510	58.00
0.38177	58.00
0.39843	58.00
0.41510	58.00
0.43177	58.00
0.44843	58.00
0.46510	58.00
0.48177	58.00
0.49843	58.00
0.51510	58.00
0.53177	58.00
0.54843	58.00
0.56510	58.00
0.58177	58.00
0.59843	58.00
0.61510	58.00
0.63177	58.00
0.64843	58.00
0.66510	58.00
0.68177	58.00
0.69843	58.00
0.71510	58.00
0.73177	58.00
0.74843	58.00
0.76510	58.00
0.78177	58.00
0.79843	58.00
0.81510	58.00
0.83177	58.00
0.84843	58.00
0.86510	58.00
0.88177	58.00
0.89843	58.00
0.91510	58.00
0.93177	58.00
0.94843	58.00
0.96510	58.00
0.98177	58.00
0.99843	58.00
1.01510	58.00
1.03177	58.00
1.04843	58.00
1.06510	58.00
1.08177	58.00
1.09843	58.00
1.11510	58.00
1.13177	58.00
1.14843	58.00
1.16510	58.00
1.18177	58.00
1.19843	58.00
1.21510	58.00
1.23177	58.00
1.24843	58.00
1.26510	58.00
1.28177	58.00
1.29843	58.00
1.31510	58.00
1.33177	58.00
1.34843	58.00
1.36510	58.00
1.38177	58.00
1.39843	58.00
1.41510	58.00
1.43177	58.00
1.44843	58.00
1.46510	58.00
1.48177	58.00
1.49843	58.00
1.51510	58.00
1.53177	58.00
1.54843	58.00
1.56510	58.00
1.58177	58.00
1.59843	58.00
1.61510	58.00
1.63177	58.01
1.64843	58.00
1.66510	58.00
1.68177	58.01
1.69843	58.00
1.71510	58.00
1.73177	58.00
1.74843	58.00
1.76510	58.00
1.78177	58.00
1.79843	58.00
1.81510	58.00
1.83177	58.00
1.84843	58.00
1.86510	58.00
1.88177	58.00
1.89843	58.00
1.91510	58.00
1.93177	58.00
1.94843	58.00
1.96510	58.00
1.98177	58.00
1.99843	58.00
2.01510	58.00
2.03177	58.00
2.04843	58.00
2.06510	58.00
2.08177	58.00
2.09843	58.00
2.11510	58.00
2.13177	58.00
2.14843	58.00
2.16510	58.00
2.18177	58.00
2.19843	58.00
2.21510	58.00
2.23177	58.00
2.24843	58.00
2.26510	58.00
2.28177	58.00
2.29843	58.00
2.31510	58.00
2.33177	58.00
2.34843	58.00
2.36510	58.00
2.38177	57.99
2.39843	57.99
2.41510	58.00
2.43177	58.00
2.44843	58.00
2.46510	58.00
2.48177	58.00
2.49843	58.00
2.51510	57.99
2.53177	57.99
2.54843	58.00
2.56510	58.00
2.58177	58.00
2.59843	58.00
2.61510	58.00
2.63177	58.00
2.64843	58.00
2.66510	58.00
2.68177	58.00
2.69843	58.00
2.71510	58.00
2.73177	58.00
2.74843	58.00
2.76510	58.00
2.78177	58.00
2.79843	58.00
2.81510	58.00
2.83177	58.00
2.84843	58.00
2.86510	58.00
2.88177	58.00
2.89843	58.00
2.91510	58.00
2.93177	58.00
2.94843	58.00
2.96510	58.00
2.98177	58.00
2.99843	58.00
3.01510	58.00
3.03177	58.00
3.04843	58.00
3.06510	58.00
3.08177	58.00
3.09843	58.00
3.11510	58.00
3.13177	58.00
3.14843	58.00
3.16510	58.00
3.18177	58.00
3.19843	58.00
3.21510	58.00
3.23177	58.00
3.24843	58.00
3.26510	58.00
3.28177	58.00
3.29843	58.00
3.31510	58.00
3.33177	58.00
3.34843	58.00
3.36510	58.00
3.38177	58.00
3.39843	58.00
3.41510	58.00
3.43177	58.00
3.44843	58.00
3.46510	58.00
3.48177	58.00
3.49843	58.00
3.51510	58.00
3.53177	58.00
3.54843	58.00
3.56510	58.00
3.58177	58.00
3.59843	58.00
3.61510	58.00
3.63177	58.00
3.64843	58.00
3.66510	58.00
3.68177	58.00
3.69843	58.00
3.71510	58.00
3.73177	58.00
3.74843	58.00
3.76510	58.00
3.78177	58.00
3.79843	58.00
3.81510	58.00
3.83177	58.00
3.84843	58.00
3.86510	58.00
3.88177	58.00
3.89843	58.00
3.91510	58.00
3.93177	58.00
3.94843	58.00
3.96510	58.00
3.98177	58.00
3.99843	58.00

[Status Trace (Carrier Gas Flow)]
Interval(msec)	1000
# of Points	240
Start Time(min)	0.015
End Time(min)	3.998
Intensity Units	
Intensity Multiplier	1
R.Time (min)	Intensity
0.01510	33.99
0.03177	34.54
0.04843	34.55
0.06510	34.51
0.08177	34.51
0.09843	34.52
0.11510	34.52
0.13177	34.51
0.14843	34.52
0.16510	34.52
0.18177	34.52
0.19843	34.52
0.21510	34.52
0.23177	34.52
0.24843	34.52
0.26510	34.52
0.28177	34.52
0.29843	34.52
0.31510	34.52
0.33177	34.51
0.34843	34.52
0.36510	34.52
0.38177	34.52
0.39843	34.52
0.41510	34.52
0.43177	34.52
0.44843	34.52
0.46510	34.51
0.48177	34.52
0.49843	34.52
0.51510	34.52
0.53177	34.52
0.54843	34.52
0.56510	34.52
0.58177	34.52
0.59843	34.52
0.61510	34.52
0.63177	34.52
0.64843	34.52
0.66510	34.52
0.68177	34.52
0.69843	34.52
0.71510	34.52
0.73177	34.52
0.74843	34.52
0.76510	34.52
0.78177	34.52
0.79843	34.52
0.81510	34.52
0.83177	34.52
0.84843	34.52
0.86510	34.52
0.88177	34.52
0.89843	34.52
0.91510	34.52
0.93177	34.52
0.94843	34.52
0.96510	34.52
0.98177	34.52
0.99843	34.52
1.01510	34.52
1.03177	34.52
1.04843	34.51
1.06510	34.52
1.08177	34.52
1.09843	34.52
1.11510	34.52
1.13177	34.52
1.14843	34.52
1.16510	34.52
1.18177	34.51
1.19843	34.52
1.21510	34.52
1.23177	34.52
1.24843	34.52
1.26510	34.52
1.28177	34.52
1.29843	34.52
1.31510	34.52
1.33177	34.52
1.34843	34.52
1.36510	34.52
1.38177	34.52
1.39843	34.52
1.41510	34.52
1.43177	34.52
1.44843	34.52
1.46510	34.52
1.48177	34.52
1.49843	34.52
1.51510	34.52
1.53177	34.52
1.54843	34.52
1.56510	34.52
1.58177	34.51
1.59843	34.52
1.61510	34.52
1.63177	34.52
1.64843	34.51
1.66510	34.52
1.68177	34.52
1.69843	34.52
1.71510	34.52
1.73177	34.52
1.74843	34.52
1.76510	34.52
1.78177	34.52
1.79843	34.52
1.81510	34.52
1.83177	34.52
1.84843	34.52
1.86510	34.52
1.88177	34.52
1.89843	34.52
1.91510	34.52
1.93177	34.52
1.94843	34.52
1.96510	34.52
1.98177	34.51
1.99843	34.51
2.01510	34.52
2.03177	34.52
2.04843	34.52
2.06510	34.52
2.08177	34.52
2.09843	34.52
2.11510	34.52
2.13177	34.52
2.14843	34.52
2.16510	34.52
2.18177	34.52
2.19843	34.52
2.21510	34.52
2.23177	34.52
2.24843	34.52
2.26510	34.52
2.28177	34.52
2.29843	34.52
2.31510	34.51
2.33177	34.52
2.34843	34.52
2.36510	34.52
2.38177	34.52
2.39843	34.51
2.41510	34.52
2.43177	34.52
2.44843	34.52
2.46510	34.52
2.48177	34.52
2.49843	34.52
2.51510	34.52
2.53177	34.52
2.54843	34.52
2.56510	34.52
2.58177	34.52
2.59843	34.52
2.61510	34.51
2.63177	34.52
2.64843	34.52
2.66510	34.52
2.68177	34.52
2.69843	34.52
2.71510	34.52
2.73177	34.52
2.74843	34.52
2.76510	34.52
2.78177	34.51
2.79843	34.51
2.81510	34.52
2.83177	34.51
2.84843	34.52
2.86510	34.52
2.88177	34.52
2.89843	34.52
2.91510	34.52
2.93177	34.52
2.94843	34.52
2.96510	34.52
2.98177	34.52
2.99843	34.52
3.01510	34.52
3.03177	34.52
3.04843	34.52
3.06510	34.52
3.08177	34.52
3.09843	34.52
3.11510	34.52
3.13177	34.52
3.14843	34.52
3.16510	34.52
3.18177	34.52
3.19843	34.52
3.21510	34.51
3.23177	34.52
3.24843	34.52
3.26510	34.52
3.28177	34.52
3.29843	34.51
3.31510	34.52
3.33177	34.52
3.34843	34.52
3.36510	34.52
3.38177	34.52
3.39843	34.51
3.41510	34.52
3.43177	34.52
3.44843	34.52
3.46510	34.52
3.48177	34.52
3.49843	34.52
3.51510	34.52
3.53177	34.52
3.54843	34.52
3.56510	34.51
3.58177	34.52
3.59843	34.52
3.61510	34.51
3.63177	34.51
3.64843	34.52
3.66510	34.52
3.68177	34.51
3.69843	34.52
3.71510	34.52
3.73177	34.51
3.74843	34.52
3.76510	34.52
3.78177	34.52
3.79843	34.51
3.81510	34.53
3.83177	34.52
3.84843	34.52
3.86510	34.52
3.88177	34.52
3.89843	34.51
3.91510	34.52
3.93177	34.52
3.94843	34.52
3.96510	34.52
3.98177	34.52
3.99843	34.52

[Status Trace (Column Flow)]
Interval(msec)	1000
# of Points	240
Start Time(min)	0.015
End Time(min)	3.998
Intensity Units	
Intensity Multiplier	1
R.Time (min)	Intensity
0.01510	5.44
0.03177	5.24
0.04843	5.52
0.06510	5.73
0.08177	5.59
0.09843	5.51
0.11510	5.51
0.13177	5.52
0.14843	5.52
0.16510	5.52
0.18177	5.52
0.19843	5.52
0.21510	5.52
0.23177	5.52
0.24843	5.52
0.26510	5.52
0.28177	5.52
0.29843	5.52
0.31510	5.52
0.33177	5.52
0.34843	5.52
0.36510	5.51
0.38177	5.52
0.39843	5.52
0.41510	5.52
0.43177	5.52
0.44843	5.52
0.46510	5.52
0.48177	5.52
0.49843	5.52
0.51510	5.52
0.53177	5.52
0.54843	5.52
0.56510	5.52
0.58177	5.52
0.59843	5.52
0.61510	5.52
0.63177	5.52
0.64843	5.52
0.66510	5.52
0.68177	5.52
0.69843	5.52
0.71510	5.52
0.73177	5.52
0.74843	5.52
0.76510	5.52
0.78177	5.52
0.79843	5.52
0.81510	5.52
0.83177	5.52
0.84843	5.52
0.86510	5.52
0.88177	5.52
0.89843	5.52
0.91510	5.52
0.93177	5.52
0.94843	5.52
0.96510	5.52
0.98177	5.52
0.99843	5.52
1.01510	5.52
1.03177	5.52
1.04843	5.52
1.06510	5.52
1.08177	5.52
1.09843	5.52
1.11510	5.52
1.13177	5.52
1.14843	5.52
1.16510	5.52
1.18177	5.52
1.19843	5.52
1.21510	5.52
1.23177	5.52
1.24843	5.52
1.26510	5.52
1.28177	5.52
1.29843	5.52
1.31510	5.52
1.33177	5.52
1.34843	5.52
1.36510	5.52
1.38177	5.52
1.39843	5.52
1.41510	5.52
1.43177	5.52
1.44843	5.52
1.46510	5.52
1.48177	5.52
1.49843	5.52
1.51510	5.52
1.53177	5.52
1.54843	5.52
1.56510	5.52
1.58177	5.52
1.59843	5.51
1.61510	5.51
1.63177	5.51
1.64843	5.50
1.66510	5.49
1.68177	5.48
1.69843	5.47
1.71510	5.46
1.73177	5.45
1.74843	5.44
1.76510	5.43
1.78177	5.42
1.79843	5.41
1.81510	5.40
1.83177	5.39
1.84843	5.38
1.86510	5.37
1.88177	5.36
1.89843	5.35
1.91510	5.34
1.93177	5.33
1.94843	5.32
1.96510	5.31
1.98177	5.30
1.99843	5.29
2.01510	5.28
2.03177	5.27
2.04843	5.26
2.06510	5.25
2.08177	5.24
2.09843	5.23
2.11510	5.22
2.13177	5.21
2.14843	5.20
2.16510	5.19
2.18177	5.18
2.19843	5.17
2.21510	5.17
2.23177	5.16
2.24843	5.15
2.26510	5.14
2.28177	5.13
2.29843	5.12
2.31510	5.11
2.33177	5.10
2.34843	5.09
2.36510	5.09
2.38177	5.08
2.39843	5.08
2.41510	5.08
2.43177	5.08
2.44843	5.08
2.46510	5.08
2.48177	5.08
2.49843	5.08
2.51510	5.08
2.53177	5.08
2.54843	5.08
2.56510	5.08
2.58177	5.08
2.59843	5.08
2.61510	5.08
2.63177	5.08
2.64843	5.08
2.66510	5.08
2.68177	5.08
2.69843	5.08
2.71510	5.08
2.73177	5.08
2.74843	5.08
2.76510	5.08
2.78177	5.08
2.79843	5.08
2.81510	5.08
2.83177	5.08
2.84843	5.08
2.86510	5.08
2.88177	5.07
2.89843	5.07
2.91510	5.07
2.93177	5.07
2.94843	5.07
2.96510	5.07
2.98177	5.07
2.99843	5.07
3.01510	5.07
3.03177	5.07
3.04843	5.07
3.06510	5.07
3.08177	5.07
3.09843	5.07
3.11510	5.07
3.13177	5.07
3.14843	5.07
3.16510	5.07
3.18177	5.07
3.19843	5.07
3.21510	5.07
3.23177	5.07
3.24843	5.07
3.26510	5.07
3.28177	5.07
3.29843	5.07
3.31510	5.07
3.33177	5.07
3.34843	5.07
3.36510	5.07
3.38177	5.07
3.39843	5.07
3.41510	5.07
3.43177	5.07
3.44843	5.07
3.46510	5.07
3.48177	5.07
3.49843	5.07
3.51510	5.07
3.53177	5.07
3.54843	5.07
3.56510	5.07
3.58177	5.07
3.59843	5.07
3.61510	5.07
3.63177	5.07
3.64843	5.07
3.66510	5.07
3.68177	5.07
3.69843	5.07
3.71510	5.07
3.73177	5.07
3.74843	5.07
3.76510	5.07
3.78177	5.07
3.79843	5.07
3.81510	5.07
3.83177	5.07
3.84843	5.07
3.86510	5.07
3.88177	5.07
3.89843	5.07
3.91510	5.07
3.93177	5.07
3.94843	5.07
3.96510	5.07
3.98177	5.07
3.99843	5.07

[Status Trace (Linear Velocity)]
Interval(msec)	1000
# of Points	240
Start Time(min)	0.015
End Time(min)	3.998
Intensity Units	
Intensity Multiplier	1
R.Time (min)	Intensity
0.01510	38.59
0.03177	37.43
0.04843	39.04
0.06510	40.22
0.08177	39.45
0.09843	39.00
0.11510	39.01
0.13177	39.02
0.14843	39.02
0.16510	39.02
0.18177	39.02
0.19843	39.02
0.21510	39.02
0.23177	39.02
0.24843	39.02
0.26510	39.02
0.28177	39.01
0.29843	39.01
0.31510	39.02
0.33177	39.02
0.34843	39.01
0.36510	39.01
0.38177	39.01
0.39843	39.02
0.41510	39.02
0.43177	39.02
0.44843	39.02
0.46510	39.02
0.48177	39.02
0.49843	39.01
0.51510	39.02
0.53177	39.02
0.54843	39.01
0.56510	39.02
0.58177	39.01
0.59843	39.01
0.61510	39.01
0.63177	39.02
0.64843	39.02
0.66510	39.02
0.68177	39.02
0.69843	39.02
0.71510	39.02
0.73177	39.02
0.74843	39.02
0.76510	39.02
0.78177	39.02
0.79843	39.02
0.81510	39.02
0.83177	39.02
0.84843	39.02
0.86510	39.01
0.88177	39.01
0.89843	39.01
0.91510	39.01
0.93177	39.02
0.94843	39.01
0.96510	39.01
0.98177	39.02
0.99843	39.02
1.01510	39.02
1.03177	39.02
1.04843	39.02
1.06510	39.02
1.08177	39.02
1.09843	39.02
1.11510	39.02
1.13177	39.02
1.14843	39.02
1.16510	39.02
1.18177	39.02
1.19843	39.02
1.21510	39.02
1.23177	39.02
1.24843	39.02
1.26510	39.02
1.28177	39.02
1.29843	39.02
1.31510	39.02
1.33177	39.02
1.34843	39.02
1.36510	39.02
1.38177	39.01
1.39843	39.01
1.41510	39.01
1.43177	39.01
1.44843	39.01
1.46510	39.02
1.48177	39.02
1.49843	39.02
1.51510	39.02
1.53177	39.02
1.54843	39.01
1.56510	39.02
1.58177	39.02
1.59843	39.01
1.61510	39.01
1.63177	38.99
1.64843	38.97
1.66510	38.95
1.68177	38.91
1.69843	38.87
1.71510	38.84
1.73177	38.81
1.74843	38.78
1.76510	38.75
1.78177	38.72
1.79843	38.69
1.81510	38.65
1.83177	38.62
1.84843	38.59
1.86510	38.56
1.88177	38.53
1.89843	38.50
1.91510	38.47
1.93177	38.43
1.94843	38.40
1.96510	38.38
1.98177	38.34
1.99843	38.31
2.01510	38.28
2.03177	38.25
2.04843	38.22
2.06510	38.19
2.08177	38.16
2.09843	38.13
2.11510	38.11
2.13177	38.07
2.14843	38.04
2.16510	38.02
2.18177	37.98
2.19843	37.95
2.21510	37.93
2.23177	37.90
2.24843	37.87
2.26510	37.84
2.28177	37.81
2.29843	37.78
2.31510	37.75
2.33177	37.72
2.34843	37.69
2.36510	37.67
2.38177	37.66
2.39843	37.65
2.41510	37.65
2.43177	37.66
2.44843	37.65
2.46510	37.65
2.48177	37.65
2.49843	37.65
2.51510	37.65
2.53177	37.64
2.54843	37.65
2.56510	37.65
2.58177	37.65
2.59843	37.65
2.61510	37.65
2.63177	37.64
2.64843	37.65
2.66510	37.65
2.68177	37.64
2.69843	37.64
2.71510	37.64
2.73177	37.65
2.74843	37.64
2.76510	37.64
2.78177	37.64
2.79843	37.64
2.81510	37.64
2.83177	37.64
2.84843	37.64
2.86510	37.64
2.88177	37.64
2.89843	37.64
2.91510	37.64
2.93177	37.63
2.94843	37.63
2.96510	37.63
2.98177	37.63
2.99843	37.63
3.01510	37.63
3.03177	37.63
3.04843	37.63
3.06510	37.63
3.08177	37.63
3.09843	37.63
3.11510	37.63
3.13177	37.63
3.14843	37.62
3.16510	37.62
3.18177	37.62
3.19843	37.62
3.21510	37.62
3.23177	37.62
3.24843	37.62
3.26510	37.62
3.28177	37.62
3.29843	37.63
3.31510	37.63
3.33177	37.63
3.34843	37.63
3.36510	37.63
3.38177	37.63
3.39843	37.63
3.41510	37.63
3.43177	37.63
3.44843	37.63
3.46510	37.63
3.48177	37.63
3.49843	37.63
3.51510	37.63
3.53177	37.63
3.54843	37.63
3.56510	37.63
3.58177	37.63
3.59843	37.63
3.61510	37.63
3.63177	37.63
3.64843	37.63
3.66510	37.63
3.68177	37.63
3.69843	37.63
3.71510	37.63
3.73177	37.63
3.74843	37.63
3.76510	37.63
3.78177	37.63
3.79843	37.63
3.81510	37.63
3.83177	37.63
3.84843	37.63
3.86510	37.63
3.88177	37.63
3.89843	37.63
3.91510	37.63
3.93177	37.63
3.94843	37.63
3.96510	37.63
3.98177	37.63
3.99843	37.63

