[Header]
Application Name	LabSolutions
Version	5.110
Data File Name	C:\Users\User\Desktop\Junior\UIC Prairie Sampling\2023\8.18.23\081823b_001.gcd
Output Date	8/31/2023
Output Time	12:48:13 PM

[File Information]
Type	Data File
Generated	8/31/2023 10:52:11 AM
Generated by	System Administrator
Modified	8/31/2023 10:56:27 AM
Modified by	System Administrator

[Sample Information]
Operator Name	System Administrator
Acquired	8/31/2023 10:52:12 AM
Sample Type	0:Unknown
Level	0
Sample Name	087
Sample ID	087
ISTD Amount1	1
ISTD Amount2	1
ISTD Amount3	1
ISTD Amount4	1
ISTD Amount5	1
ISTD Amount6	1
ISTD Amount7	1
ISTD Amount8	1
ISTD Amount9	1
ISTD Amount10	1
ISTD Amount11	1
ISTD Amount12	1
ISTD Amount13	1
ISTD Amount14	1
ISTD Amount15	1
ISTD Amount16	1
ISTD Amount17	1
ISTD Amount18	1
ISTD Amount19	1
ISTD Amount20	1
ISTD Amount21	1
ISTD Amount22	1
ISTD Amount23	1
ISTD Amount24	1
ISTD Amount25	1
ISTD Amount26	1
ISTD Amount27	1
ISTD Amount28	1
ISTD Amount29	1
ISTD Amount30	1
ISTD Amount31	1
ISTD Amount32	1
Sample Amount	1
Dilution Factor	1
Vial#	86
Injection Volume	1
Injection Count	1
Bar Code	

[Original Files]
Data File	C:\Users\User\Desktop\Junior\UIC Prairie Sampling\8.18.23\081823b_001.gcd
Method File	C:\LabSolutions\Data\GHG_4min_2022\ghg3_togas_w_acet_4 min_new_int.gcm
Batch File	C:\LabSolutions\Data\BATCH FILES\081823b.gcb
Report Format File	c:\LabSolutions\System\DEFAULT.lsr

[File Description]


[Configuration]
Instrument Name	C0B7VH3-Instrument1
Instrument #	1
Line #	1
# of Detectors	3
Detector ID	DET#1	DET#2	DET#3
Detector Name	FID	PTCD	ECD
# of Channels	1	1	1

[Peak Table(Ch1)]
# of Peaks	3
Peak#	R.Time	I.Time	F.Time	Area	Height	A/H	Conc.	Mark	ID#	Name	k'	Plate #	Plate Ht.	Tailing	Resolution	Sep.Factor	Area Ratio	Height Ratio	Conc. %	Norm Conc.
1	1.472	1.432	1.523	2751	1025	2.685	0.000	   	1	CO	0.000	6766	22.171	1.150	0.000	0.000	0	0	0.000	0.000
2	1.560	1.523	1.622	19897	10101	1.970	97.004	 V 	2	CH4	0.060	11436	13.116	1.270	1.355	0.000	0	0	19.917	19.917
3	1.989	1.941	2.532	2023841	964651	2.098	390.031	   	3	CO2	0.351	17058	8.794	1.260	7.194	5.875	0	0	80.083	80.083

[Peak Table(Ch2)]
# of Peaks	0

[Peak Table(Ch3)]
# of Peaks	5
Peak#	R.Time	I.Time	F.Time	Area	Height	A/H	Conc.	Mark	ID#	Name	k'	Plate #	Plate Ht.	Tailing	Resolution	Sep.Factor	Area Ratio	Height Ratio	Conc. %	Norm Conc.
1	2.458	2.396	2.502	1070	371	2.888	0.000	   			0.000	10456	14.346	0.000	0.000	0.000	0	0	0.000	0.000
2	2.521	2.502	2.572	726	259	2.801	0.000	 V 			0.025	6687	22.432	0.000	0.568	0.000	0	0	0.000	0.000
3	2.623	2.572	2.722	889	213	4.173	0.000	 V 			0.067	7566	19.824	0.000	0.842	2.647	0	0	0.000	0.000
4	2.891	2.733	3.115	48676	12653	3.847	0.720	   	1	N2O	0.176	12972	11.564	1.497	2.410	2.622	0	0	100.000	100.000
5	3.346	3.159	3.533	664	54	12.284	0.000	   			0.361	1964	76.370	0.967	2.254	2.051	0	0	0.000	0.000

[Compound Results(Ch1)]
# of IDs	6
ID#	Name	R.Time	Area	Height	Conc.	Curve	3rd	2nd	1st	Constant	Area Ratio	Height Ratio	Conc. %	Norm Conc.
1	CO	1.472	2751	1025	0.000	Linear	0.000000e+00	0.000000e+00	0.000000e+00	0.000000e+00	0	0	0.000	0.000
2	CH4	1.560	19897	10101	97.004	Linear	0.000000e+00	0.000000e+00	2.051179e+002	0.000000e+00	0	0	19.917	19.917
3	CO2	1.989	2023841	964651	390.031	Linear	0.000000e+00	0.000000e+00	5.188919e+003	0.000000e+00	0	0	80.083	80.083
4	Ethylene	0.000	0	0	0.000	Linear	0.000000e+00	0.000000e+00	0.000000e+00	0.000000e+00	0	0	0.000	0.000
5	Acetylene	0.000	0	0	0.000	Linear	0.000000e+00	0.000000e+00	0.000000e+00	0.000000e+00	0	0	0.000	0.000
6	Ethane	0.000	0	0	0.000	Linear	0.000000e+00	0.000000e+00	0.000000e+00	0.000000e+00	0	0	0.000	0.000

[Compound Results(Ch2)]
# of IDs	5
ID#	Name	R.Time	Area	Height	Conc.	Curve	3rd	2nd	1st	Constant	Area Ratio	Height Ratio	Conc. %	Norm Conc.
1	Hydrogen	0.000	0	0	0.000	Linear	0.000000e+00	0.000000e+00	0.000000e+00	0.000000e+00	0	0	0.000	0.000
2	Oxygen	0.000	0	0	0.000	Linear	0.000000e+00	0.000000e+00	0.000000e+00	0.000000e+00	0	0	0.000	0.000
3	Nitrogen	0.000	0	0	0.000	Linear	0.000000e+00	0.000000e+00	0.000000e+00	0.000000e+00	0	0	0.000	0.000
4	Methane	0.000	0	0	0.000	Linear	0.000000e+00	0.000000e+00	0.000000e+00	0.000000e+00	0	0	0.000	0.000
5	Carbon Monoxide	0.000	0	0	0.000	Linear	0.000000e+00	0.000000e+00	0.000000e+00	0.000000e+00	0	0	0.000	0.000

[Compound Results(Ch3)]
# of IDs	2
ID#	Name	R.Time	Area	Height	Conc.	Curve	3rd	2nd	1st	Constant	Area Ratio	Height Ratio	Conc. %	Norm Conc.
1	N2O	2.891	48676	12653	0.720	Linear	0.000000e+00	0.000000e+00	6.759880e+004	0.000000e+00	0	0	100.000	100.000
2	SF6	0.000	0	0	0.000	Linear	0.000000e+00	0.000000e+00	0.000000e+00	0.000000e+00	0	0	0.000	0.000

[Group Results(Ch1)]
# of Groups	0

[Group Results(Ch2)]
# of Groups	0

[Group Results(Ch3)]
# of Groups	0

[Chromatogram (Ch1)]
Interval(msec)	220
# of Points	1091
Start Time(min)	0.002
End Time(min)	3.998
R.Time (min)	Intensity
0.00167	-19
0.00533	-14
0.00900	-6
0.01267	-2
0.01633	-2
0.02000	-4
0.02367	-7
0.02733	-11
0.03100	-16
0.03467	-21
0.03833	-23
0.04200	-21
0.04567	-18
0.04933	-14
0.05300	-11
0.05667	-9
0.06033	-7
0.06400	-3
0.06767	-2
0.07133	-3
0.07500	-4
0.07867	-0
0.08233	5
0.08600	11
0.08967	15
0.09333	16
0.09700	14
0.10067	12
0.10433	10
0.10800	10
0.11167	13
0.11533	16
0.11900	16
0.12267	17
0.12633	18
0.13000	18
0.13367	16
0.13733	12
0.14100	5
0.14467	-3
0.14833	-6
0.15200	-8
0.15567	-12
0.15933	-19
0.16300	-24
0.16667	-23
0.17033	-21
0.17400	-19
0.17767	-17
0.18133	-13
0.18500	-9
0.18867	-6
0.19233	-4
0.19600	1
0.19967	7
0.20333	14
0.20700	19
0.21067	21
0.21433	18
0.21800	17
0.22167	17
0.22533	18
0.22900	18
0.23267	16
0.23633	13
0.24000	11
0.24367	7
0.24733	6
0.25100	7
0.25467	8
0.25833	8
0.26200	11
0.26567	14
0.26933	13
0.27300	11
0.27667	11
0.28033	12
0.28400	14
0.28767	15
0.29133	17
0.29500	17
0.29867	16
0.30233	11
0.30600	6
0.30967	0
0.31333	-7
0.31700	-14
0.32067	-15
0.32433	-10
0.32800	-7
0.33167	-5
0.33533	-1
0.33900	3
0.34267	7
0.34633	4
0.35000	-3
0.35367	-8
0.35733	-11
0.36100	-11
0.36467	-10
0.36833	-11
0.37200	-12
0.37567	-16
0.37933	-18
0.38300	-17
0.38667	-13
0.39033	-5
0.39400	6
0.39767	14
0.40133	15
0.40500	17
0.40867	21
0.41233	27
0.41600	32
0.41967	35
0.42333	35
0.42700	32
0.43067	24
0.43433	14
0.43800	8
0.44167	2
0.44533	-6
0.44900	-12
0.45267	-15
0.45633	-12
0.46000	-5
0.46367	2
0.46733	6
0.47100	6
0.47467	3
0.47833	2
0.48200	7
0.48567	13
0.48933	16
0.49300	16
0.49667	14
0.50033	11
0.50400	7
0.50767	2
0.51133	-4
0.51500	-4
0.51867	2
0.52233	10
0.52600	15
0.52967	15
0.53333	15
0.53700	17
0.54067	18
0.54433	17
0.54800	12
0.55167	6
0.55533	-0
0.55900	-5
0.56267	-8
0.56633	-5
0.57000	-1
0.57367	-2
0.57733	-7
0.58100	-14
0.58467	-18
0.58833	-23
0.59200	-27
0.59567	-27
0.59933	-25
0.60300	-24
0.60667	-22
0.61033	-19
0.61400	-14
0.61767	-9
0.62133	-3
0.62500	0
0.62867	-0
0.63233	-2
0.63600	-4
0.63967	-8
0.64333	-16
0.64700	-20
0.65067	-21
0.65433	-19
0.65800	-17
0.66167	-14
0.66533	-11
0.66900	-9
0.67267	-4
0.67633	2
0.68000	4
0.68367	6
0.68733	8
0.69100	9
0.69467	8
0.69833	4
0.70200	0
0.70567	-6
0.70933	-11
0.71300	-14
0.71667	-12
0.72033	-9
0.72400	-7
0.72767	-12
0.73133	-19
0.73500	-22
0.73867	-22
0.74233	-18
0.74600	-10
0.74967	-1
0.75333	4
0.75700	5
0.76067	5
0.76433	4
0.76800	0
0.77167	-0
0.77533	4
0.77900	9
0.78267	13
0.78633	16
0.79000	14
0.79367	8
0.79733	3
0.80100	-4
0.80467	-14
0.80833	-23
0.81200	-31
0.81567	-36
0.81933	-37
0.82300	-35
0.82667	-32
0.83033	-31
0.83400	-33
0.83767	-32
0.84133	-31
0.84500	-32
0.84867	-35
0.85233	-35
0.85600	-32
0.85967	-27
0.86333	-24
0.86700	-24
0.87067	-22
0.87433	-14
0.87800	-6
0.88167	1
0.88533	6
0.88900	10
0.89267	10
0.89633	8
0.90000	5
0.90367	1
0.90733	-7
0.91100	-17
0.91467	-26
0.91833	-32
0.92200	-37
0.92567	-38
0.92933	-33
0.93300	-24
0.93667	-16
0.94033	-12
0.94400	-11
0.94767	-8
0.95133	-5
0.95500	-0
0.95867	2
0.96233	3
0.96600	1
0.96967	-3
0.97333	-8
0.97700	-8
0.98067	-3
0.98433	-0
0.98800	-3
0.99167	-8
0.99533	-13
0.99900	-16
1.00267	-20
1.00633	-22
1.01000	-19
1.01367	-9
1.01733	5
1.02100	17
1.02467	20
1.02833	16
1.03200	8
1.03567	-0
1.03933	-8
1.04300	-13
1.04667	-16
1.05033	-16
1.05400	-16
1.05767	-16
1.06133	-17
1.06500	-17
1.06867	-16
1.07233	-16
1.07600	-16
1.07967	-14
1.08333	-11
1.08700	-6
1.09067	-4
1.09433	-5
1.09800	-11
1.10167	-18
1.10533	-22
1.10900	-25
1.11267	-27
1.11633	-29
1.12000	-31
1.12367	-31
1.12733	-27
1.13100	-23
1.13467	-22
1.13833	-23
1.14200	-23
1.14567	-22
1.14933	-16
1.15300	-11
1.15667	-7
1.16033	-8
1.16400	-10
1.16767	-11
1.17133	-11
1.17500	-10
1.17867	-8
1.18233	-6
1.18600	-7
1.18967	-8
1.19333	-13
1.19700	-18
1.20067	-24
1.20433	-28
1.20800	-27
1.21167	-25
1.21533	-23
1.21900	-19
1.22267	-14
1.22633	-11
1.23000	-11
1.23367	-11
1.23733	-12
1.24100	-16
1.24467	-21
1.24833	-21
1.25200	-18
1.25567	-15
1.25933	-11
1.26300	-7
1.26667	-5
1.27033	-6
1.27400	-9
1.27767	-12
1.28133	-18
1.28500	-24
1.28867	-22
1.29233	-14
1.29600	-8
1.29967	-7
1.30333	-9
1.30700	-11
1.31067	-12
1.31433	-11
1.31800	-8
1.32167	-4
1.32533	1
1.32900	4
1.33267	7
1.33633	13
1.34000	17
1.34367	16
1.34733	12
1.35100	5
1.35467	-1
1.35833	-7
1.36200	-13
1.36567	-15
1.36933	-12
1.37300	-8
1.37667	-4
1.38033	-3
1.38400	-3
1.38767	-6
1.39133	-8
1.39500	-9
1.39867	-9
1.40233	-7
1.40600	-2
1.40967	2
1.41333	2
1.41700	-1
1.42067	-4
1.42433	-6
1.42800	-5
1.43167	1
1.43533	45
1.43900	199
1.44267	434
1.44633	599
1.45000	687
1.45367	759
1.45733	831
1.46100	895
1.46467	953
1.46833	1006
1.47200	1036
1.47567	1016
1.47933	929
1.48300	792
1.48667	640
1.49033	502
1.49400	385
1.49767	291
1.50133	221
1.50500	170
1.50867	132
1.51233	106
1.51600	87
1.51967	74
1.52333	66
1.52700	69
1.53067	126
1.53433	398
1.53800	1177
1.54167	2638
1.54533	4575
1.54900	6556
1.55267	8244
1.55633	9472
1.56000	10135
1.56367	10091
1.56733	9282
1.57100	7875
1.57467	6210
1.57833	4612
1.58200	3272
1.58567	2249
1.58933	1514
1.59300	1008
1.59667	666
1.60033	440
1.60400	292
1.60767	196
1.61133	133
1.61500	90
1.61867	64
1.62233	50
1.62600	45
1.62967	46
1.63333	48
1.63700	49
1.64067	48
1.64433	42
1.64800	35
1.65167	30
1.65533	28
1.65900	25
1.66267	21
1.66633	16
1.67000	15
1.67367	15
1.67733	11
1.68100	5
1.68467	-2
1.68833	-6
1.69200	-9
1.69567	-8
1.69933	-9
1.70300	-12
1.70667	-13
1.71033	-12
1.71400	-9
1.71767	-3
1.72133	-2
1.72500	-5
1.72867	-8
1.73233	-9
1.73600	-7
1.73967	0
1.74333	6
1.74700	6
1.75067	5
1.75433	4
1.75800	4
1.76167	3
1.76533	-2
1.76900	-11
1.77267	-18
1.77633	-20
1.78000	-21
1.78367	-21
1.78733	-22
1.79100	-17
1.79467	-9
1.79833	2
1.80200	12
1.80567	20
1.80933	25
1.81300	26
1.81667	25
1.82033	21
1.82400	15
1.82767	9
1.83133	6
1.83500	4
1.83867	3
1.84233	3
1.84600	7
1.84967	8
1.85333	5
1.85700	2
1.86067	1
1.86433	2
1.86800	5
1.87167	5
1.87533	1
1.87900	-3
1.88267	-4
1.88633	-1
1.89000	8
1.89367	20
1.89733	30
1.90100	35
1.90467	31
1.90833	21
1.91200	16
1.91567	17
1.91933	19
1.92300	20
1.92667	19
1.93033	17
1.93400	15
1.93767	15
1.94133	17
1.94500	43
1.94867	242
1.95233	1442
1.95600	6873
1.95967	25189
1.96333	72412
1.96700	166205
1.97067	311707
1.97433	491937
1.97800	674906
1.98167	828621
1.98533	929592
1.98900	964707
1.99267	931412
1.99633	839575
2.00000	709481
2.00367	565810
2.00733	429740
2.01100	314277
2.01467	223874
2.01833	157074
2.02200	109667
2.02567	76907
2.02933	54633
2.03300	39603
2.03667	29464
2.04033	22577
2.04400	17842
2.04767	14529
2.05133	12161
2.05500	10426
2.05867	9120
2.06233	8109
2.06600	7310
2.06967	6662
2.07333	6123
2.07700	5667
2.08067	5277
2.08433	4940
2.08800	4638
2.09167	4367
2.09533	4124
2.09900	3910
2.10267	3719
2.10633	3545
2.11000	3384
2.11367	3237
2.11733	3103
2.12100	2978
2.12467	2860
2.12833	2749
2.13200	2645
2.13567	2546
2.13933	2452
2.14300	2366
2.14667	2285
2.15033	2208
2.15400	2138
2.15767	2076
2.16133	2020
2.16500	1967
2.16867	1915
2.17233	1865
2.17600	1817
2.17967	1771
2.18333	1727
2.18700	1686
2.19067	1647
2.19433	1607
2.19800	1569
2.20167	1537
2.20533	1506
2.20900	1472
2.21267	1438
2.21633	1402
2.22000	1364
2.22367	1321
2.22733	1281
2.23100	1250
2.23467	1228
2.23833	1210
2.24200	1195
2.24567	1180
2.24933	1161
2.25300	1135
2.25667	1107
2.26033	1081
2.26400	1058
2.26767	1040
2.27133	1031
2.27500	1025
2.27867	1016
2.28233	1005
2.28600	990
2.28967	972
2.29333	954
2.29700	938
2.30067	922
2.30433	906
2.30800	887
2.31167	870
2.31533	855
2.31900	845
2.32267	834
2.32633	818
2.33000	804
2.33367	793
2.33733	777
2.34100	759
2.34467	745
2.34833	738
2.35200	737
2.35567	736
2.35933	734
2.36300	729
2.36667	721
2.37033	710
2.37400	699
2.37767	689
2.38133	680
2.38500	672
2.38867	665
2.39233	659
2.39600	657
2.39967	659
2.40333	662
2.40700	661
2.41067	660
2.41433	655
2.41800	644
2.42167	629
2.42533	616
2.42900	607
2.43267	600
2.43633	593
2.44000	591
2.44367	596
2.44733	603
2.45100	603
2.45467	595
2.45833	586
2.46200	576
2.46567	568
2.46933	564
2.47300	562
2.47667	559
2.48033	553
2.48400	546
2.48767	542
2.49133	537
2.49500	532
2.49867	527
2.50233	521
2.50600	517
2.50967	514
2.51333	511
2.51700	505
2.52067	501
2.52433	498
2.52800	496
2.53167	495
2.53533	496
2.53900	496
2.54267	495
2.54633	494
2.55000	494
2.55367	496
2.55733	501
2.56100	505
2.56467	506
2.56833	505
2.57200	502
2.57567	497
2.57933	491
2.58300	483
2.58667	477
2.59033	474
2.59400	475
2.59767	479
2.60133	479
2.60500	476
2.60867	472
2.61233	470
2.61600	470
2.61967	471
2.62333	470
2.62700	466
2.63067	461
2.63433	456
2.63800	456
2.64167	460
2.64533	465
2.64900	469
2.65267	476
2.65633	483
2.66000	486
2.66367	486
2.66733	481
2.67100	475
2.67467	467
2.67833	463
2.68200	461
2.68567	458
2.68933	457
2.69300	461
2.69667	467
2.70033	473
2.70400	479
2.70767	483
2.71133	483
2.71500	477
2.71867	472
2.72233	469
2.72600	470
2.72967	472
2.73333	471
2.73700	467
2.74067	464
2.74433	465
2.74800	469
2.75167	474
2.75533	476
2.75900	470
2.76267	462
2.76633	459
2.77000	460
2.77367	462
2.77733	461
2.78100	458
2.78467	456
2.78833	456
2.79200	458
2.79567	464
2.79933	470
2.80300	476
2.80667	479
2.81033	479
2.81400	477
2.81767	475
2.82133	471
2.82500	467
2.82867	465
2.83233	463
2.83600	461
2.83967	460
2.84333	459
2.84700	462
2.85067	465
2.85433	472
2.85800	482
2.86167	489
2.86533	494
2.86900	498
2.87267	502
2.87633	503
2.88000	502
2.88367	499
2.88733	493
2.89100	489
2.89467	484
2.89833	478
2.90200	473
2.90567	471
2.90933	469
2.91300	465
2.91667	465
2.92033	469
2.92400	473
2.92767	475
2.93133	475
2.93500	477
2.93867	481
2.94233	485
2.94600	489
2.94967	493
2.95333	498
2.95700	502
2.96067	505
2.96433	504
2.96800	499
2.97167	493
2.97533	489
2.97900	486
2.98267	488
2.98633	492
2.99000	497
2.99367	506
2.99733	514
3.00100	514
3.00467	508
3.00833	499
3.01200	493
3.01567	493
3.01933	497
3.02300	501
3.02667	507
3.03033	512
3.03400	512
3.03767	509
3.04133	504
3.04500	501
3.04867	502
3.05233	501
3.05600	499
3.05967	498
3.06333	498
3.06700	496
3.07067	495
3.07433	496
3.07800	497
3.08167	499
3.08533	502
3.08900	507
3.09267	513
3.09633	514
3.10000	509
3.10367	497
3.10733	484
3.11100	473
3.11467	466
3.11833	465
3.12200	470
3.12567	478
3.12933	486
3.13300	493
3.13667	499
3.14033	507
3.14400	519
3.14767	534
3.15133	544
3.15500	544
3.15867	534
3.16233	516
3.16600	498
3.16967	486
3.17333	479
3.17700	477
3.18067	476
3.18433	475
3.18800	474
3.19167	472
3.19533	472
3.19900	473
3.20267	472
3.20633	471
3.21000	473
3.21367	477
3.21733	482
3.22100	487
3.22467	488
3.22833	486
3.23200	484
3.23567	487
3.23933	493
3.24300	499
3.24667	504
3.25033	506
3.25400	507
3.25767	509
3.26133	513
3.26500	515
3.26867	512
3.27233	508
3.27600	504
3.27967	502
3.28333	502
3.28700	502
3.29067	503
3.29433	505
3.29800	508
3.30167	509
3.30533	509
3.30900	507
3.31267	505
3.31633	503
3.32000	501
3.32367	499
3.32733	498
3.33100	500
3.33467	503
3.33833	505
3.34200	508
3.34567	509
3.34933	503
3.35300	495
3.35667	490
3.36033	486
3.36400	483
3.36767	482
3.37133	483
3.37500	483
3.37867	483
3.38233	485
3.38600	489
3.38967	493
3.39333	496
3.39700	497
3.40067	493
3.40433	485
3.40800	478
3.41167	474
3.41533	472
3.41900	472
3.42267	474
3.42633	477
3.43000	484
3.43367	491
3.43733	498
3.44100	501
3.44467	502
3.44833	501
3.45200	498
3.45567	496
3.45933	495
3.46300	494
3.46667	490
3.47033	483
3.47400	472
3.47767	462
3.48133	456
3.48500	455
3.48867	457
3.49233	460
3.49600	463
3.49967	468
3.50333	471
3.50700	471
3.51067	469
3.51433	469
3.51800	471
3.52167	475
3.52533	482
3.52900	488
3.53267	492
3.53633	493
3.54000	494
3.54367	494
3.54733	495
3.55100	495
3.55467	495
3.55833	495
3.56200	496
3.56567	497
3.56933	496
3.57300	494
3.57667	491
3.58033	489
3.58400	486
3.58767	485
3.59133	485
3.59500	484
3.59867	485
3.60233	488
3.60600	489
3.60967	487
3.61333	480
3.61700	472
3.62067	465
3.62433	462
3.62800	462
3.63167	464
3.63533	464
3.63900	465
3.64267	467
3.64633	473
3.65000	474
3.65367	473
3.65733	470
3.66100	468
3.66467	468
3.66833	469
3.67200	471
3.67567	477
3.67933	487
3.68300	499
3.68667	507
3.69033	512
3.69400	514
3.69767	511
3.70133	505
3.70500	494
3.70867	485
3.71233	476
3.71600	472
3.71967	471
3.72333	471
3.72700	470
3.73067	466
3.73433	462
3.73800	460
3.74167	456
3.74533	449
3.74900	440
3.75267	431
3.75633	427
3.76000	429
3.76367	433
3.76733	434
3.77100	434
3.77467	435
3.77833	435
3.78200	435
3.78567	435
3.78933	438
3.79300	445
3.79667	456
3.80033	466
3.80400	471
3.80767	469
3.81133	464
3.81500	458
3.81867	453
3.82233	451
3.82600	451
3.82967	448
3.83333	442
3.83700	437
3.84067	433
3.84433	430
3.84800	428
3.85167	426
3.85533	426
3.85900	429
3.86267	433
3.86633	436
3.87000	437
3.87367	435
3.87733	433
3.88100	435
3.88467	439
3.88833	442
3.89200	443
3.89567	440
3.89933	436
3.90300	431
3.90667	426
3.91033	421
3.91400	418
3.91767	419
3.92133	424
3.92500	433
3.92867	441
3.93233	443
3.93600	441
3.93967	435
3.94333	430
3.94700	425
3.95067	421
3.95433	420
3.95800	420
3.96167	421
3.96533	421
3.96900	423
3.97267	423
3.97633	422
3.98000	420
3.98367	420
3.98733	423
3.99100	425
3.99467	428
3.99833	426

[Chromatogram (Ch2)]
Interval(msec)	220
# of Points	1091
Start Time(min)	0.002
End Time(min)	3.998
R.Time (min)	Intensity
0.00167	-0
0.00533	-0
0.00900	-0
0.01267	-0
0.01633	0
0.02000	0
0.02367	0
0.02733	0
0.03100	0
0.03467	0
0.03833	-0
0.04200	-0
0.04567	-0
0.04933	-0
0.05300	-0
0.05667	-0
0.06033	-0
0.06400	-0
0.06767	-0
0.07133	-0
0.07500	0
0.07867	0
0.08233	0
0.08600	0
0.08967	1
0.09333	1
0.09700	1
0.10067	1
0.10433	1
0.10800	1
0.11167	1
0.11533	1
0.11900	1
0.12267	1
0.12633	1
0.13000	1
0.13367	1
0.13733	1
0.14100	1
0.14467	1
0.14833	1
0.15200	1
0.15567	1
0.15933	1
0.16300	1
0.16667	1
0.17033	1
0.17400	1
0.17767	0
0.18133	0
0.18500	0
0.18867	-0
0.19233	-0
0.19600	-0
0.19967	-1
0.20333	-1
0.20700	-1
0.21067	-1
0.21433	-1
0.21800	-0
0.22167	-0
0.22533	0
0.22900	0
0.23267	0
0.23633	0
0.24000	1
0.24367	0
0.24733	0
0.25100	0
0.25467	0
0.25833	-0
0.26200	-0
0.26567	-0
0.26933	-0
0.27300	-1
0.27667	-1
0.28033	-1
0.28400	-1
0.28767	-1
0.29133	-1
0.29500	-1
0.29867	-2
0.30233	-2
0.30600	-2
0.30967	-1
0.31333	-1
0.31700	-1
0.32067	-1
0.32433	-0
0.32800	-0
0.33167	0
0.33533	0
0.33900	0
0.34267	1
0.34633	1
0.35000	1
0.35367	1
0.35733	1
0.36100	0
0.36467	0
0.36833	-0
0.37200	0
0.37567	1
0.37933	1
0.38300	1
0.38667	1
0.39033	1
0.39400	1
0.39767	1
0.40133	1
0.40500	1
0.40867	1
0.41233	1
0.41600	1
0.41967	1
0.42333	1
0.42700	1
0.43067	1
0.43433	1
0.43800	1
0.44167	1
0.44533	1
0.44900	1
0.45267	1
0.45633	1
0.46000	1
0.46367	1
0.46733	1
0.47100	1
0.47467	1
0.47833	1
0.48200	1
0.48567	0
0.48933	0
0.49300	0
0.49667	0
0.50033	0
0.50400	0
0.50767	0
0.51133	0
0.51500	0
0.51867	0
0.52233	0
0.52600	-0
0.52967	-0
0.53333	-0
0.53700	0
0.54067	0
0.54433	0
0.54800	0
0.55167	0
0.55533	0
0.55900	0
0.56267	0
0.56633	0
0.57000	0
0.57367	0
0.57733	0
0.58100	0
0.58467	0
0.58833	0
0.59200	0
0.59567	0
0.59933	-0
0.60300	-0
0.60667	-0
0.61033	-0
0.61400	-0
0.61767	-0
0.62133	-0
0.62500	0
0.62867	0
0.63233	0
0.63600	0
0.63967	1
0.64333	1
0.64700	1
0.65067	1
0.65433	0
0.65800	0
0.66167	0
0.66533	0
0.66900	0
0.67267	0
0.67633	0
0.68000	0
0.68367	0
0.68733	0
0.69100	0
0.69467	0
0.69833	0
0.70200	0
0.70567	0
0.70933	-0
0.71300	-0
0.71667	-0
0.72033	0
0.72400	0
0.72767	0
0.73133	1
0.73500	1
0.73867	1
0.74233	1
0.74600	1
0.74967	1
0.75333	1
0.75700	1
0.76067	1
0.76433	1
0.76800	1
0.77167	1
0.77533	1
0.77900	1
0.78267	0
0.78633	0
0.79000	-0
0.79367	-0
0.79733	-0
0.80100	-0
0.80467	-0
0.80833	0
0.81200	0
0.81567	1
0.81933	1
0.82300	1
0.82667	1
0.83033	1
0.83400	1
0.83767	1
0.84133	1
0.84500	1
0.84867	1
0.85233	1
0.85600	1
0.85967	1
0.86333	1
0.86700	1
0.87067	1
0.87433	1
0.87800	1
0.88167	1
0.88533	1
0.88900	1
0.89267	1
0.89633	1
0.90000	1
0.90367	1
0.90733	1
0.91100	1
0.91467	1
0.91833	1
0.92200	1
0.92567	2
0.92933	2
0.93300	2
0.93667	2
0.94033	2
0.94400	2
0.94767	2
0.95133	2
0.95500	2
0.95867	2
0.96233	2
0.96600	1
0.96967	1
0.97333	1
0.97700	1
0.98067	1
0.98433	1
0.98800	1
0.99167	1
0.99533	1
0.99900	1
1.00267	1
1.00633	1
1.01000	1
1.01367	2
1.01733	2
1.02100	1
1.02467	1
1.02833	1
1.03200	1
1.03567	1
1.03933	1
1.04300	1
1.04667	0
1.05033	0
1.05400	0
1.05767	0
1.06133	0
1.06500	0
1.06867	0
1.07233	1
1.07600	1
1.07967	1
1.08333	1
1.08700	1
1.09067	1
1.09433	1
1.09800	1
1.10167	1
1.10533	1
1.10900	1
1.11267	1
1.11633	1
1.12000	1
1.12367	1
1.12733	1
1.13100	2
1.13467	1
1.13833	1
1.14200	1
1.14567	1
1.14933	2
1.15300	2
1.15667	2
1.16033	2
1.16400	2
1.16767	2
1.17133	2
1.17500	2
1.17867	2
1.18233	2
1.18600	2
1.18967	2
1.19333	2
1.19700	1
1.20067	1
1.20433	1
1.20800	1
1.21167	1
1.21533	1
1.21900	1
1.22267	1
1.22633	1
1.23000	1
1.23367	1
1.23733	1
1.24100	1
1.24467	1
1.24833	1
1.25200	1
1.25567	1
1.25933	1
1.26300	1
1.26667	1
1.27033	1
1.27400	1
1.27767	1
1.28133	1
1.28500	1
1.28867	1
1.29233	1
1.29600	1
1.29967	1
1.30333	0
1.30700	0
1.31067	0
1.31433	0
1.31800	0
1.32167	0
1.32533	1
1.32900	1
1.33267	1
1.33633	1
1.34000	1
1.34367	1
1.34733	1
1.35100	1
1.35467	1
1.35833	1
1.36200	1
1.36567	2
1.36933	2
1.37300	2
1.37667	2
1.38033	2
1.38400	2
1.38767	2
1.39133	2
1.39500	2
1.39867	1
1.40233	2
1.40600	2
1.40967	2
1.41333	2
1.41700	2
1.42067	2
1.42433	2
1.42800	2
1.43167	2
1.43533	2
1.43900	2
1.44267	1
1.44633	1
1.45000	1
1.45367	1
1.45733	1
1.46100	1
1.46467	1
1.46833	1
1.47200	1
1.47567	1
1.47933	1
1.48300	1
1.48667	1
1.49033	1
1.49400	1
1.49767	1
1.50133	1
1.50500	1
1.50867	0
1.51233	0
1.51600	1
1.51967	1
1.52333	1
1.52700	1
1.53067	1
1.53433	1
1.53800	1
1.54167	1
1.54533	1
1.54900	1
1.55267	1
1.55633	1
1.56000	1
1.56367	1
1.56733	1
1.57100	1
1.57467	1
1.57833	1
1.58200	1
1.58567	1
1.58933	1
1.59300	1
1.59667	0
1.60033	-1
1.60400	-2
1.60767	-3
1.61133	-4
1.61500	-6
1.61867	-8
1.62233	-11
1.62600	-13
1.62967	-16
1.63333	-19
1.63700	-22
1.64067	-25
1.64433	-28
1.64800	-31
1.65167	-35
1.65533	-38
1.65900	-41
1.66267	-45
1.66633	-49
1.67000	-54
1.67367	-59
1.67733	-63
1.68100	-68
1.68467	-72
1.68833	-76
1.69200	-79
1.69567	-82
1.69933	-85
1.70300	-87
1.70667	-88
1.71033	-89
1.71400	-90
1.71767	-90
1.72133	-91
1.72500	-91
1.72867	-92
1.73233	-93
1.73600	-94
1.73967	-94
1.74333	-94
1.74700	-94
1.75067	-94
1.75433	-94
1.75800	-95
1.76167	-95
1.76533	-96
1.76900	-96
1.77267	-96
1.77633	-97
1.78000	-97
1.78367	-97
1.78733	-97
1.79100	-97
1.79467	-97
1.79833	-96
1.80200	-96
1.80567	-95
1.80933	-95
1.81300	-95
1.81667	-95
1.82033	-96
1.82400	-96
1.82767	-97
1.83133	-98
1.83500	-98
1.83867	-98
1.84233	-98
1.84600	-97
1.84967	-96
1.85333	-95
1.85700	-94
1.86067	-94
1.86433	-94
1.86800	-94
1.87167	-95
1.87533	-96
1.87900	-96
1.88267	-97
1.88633	-97
1.89000	-97
1.89367	-97
1.89733	-96
1.90100	-96
1.90467	-95
1.90833	-95
1.91200	-94
1.91567	-94
1.91933	-94
1.92300	-94
1.92667	-93
1.93033	-93
1.93400	-93
1.93767	-93
1.94133	-94
1.94500	-94
1.94867	-95
1.95233	-95
1.95600	-95
1.95967	-94
1.96333	-94
1.96700	-94
1.97067	-93
1.97433	-93
1.97800	-93
1.98167	-93
1.98533	-93
1.98900	-92
1.99267	-91
1.99633	-91
2.00000	-90
2.00367	-89
2.00733	-89
2.01100	-89
2.01467	-89
2.01833	-89
2.02200	-88
2.02567	-88
2.02933	-87
2.03300	-87
2.03667	-86
2.04033	-86
2.04400	-86
2.04767	-86
2.05133	-85
2.05500	-85
2.05867	-85
2.06233	-85
2.06600	-85
2.06967	-85
2.07333	-85
2.07700	-84
2.08067	-84
2.08433	-84
2.08800	-84
2.09167	-84
2.09533	-84
2.09900	-83
2.10267	-83
2.10633	-82
2.11000	-82
2.11367	-81
2.11733	-81
2.12100	-81
2.12467	-81
2.12833	-80
2.13200	-80
2.13567	-80
2.13933	-79
2.14300	-79
2.14667	-78
2.15033	-78
2.15400	-78
2.15767	-78
2.16133	-78
2.16500	-77
2.16867	-77
2.17233	-77
2.17600	-77
2.17967	-77
2.18333	-77
2.18700	-76
2.19067	-76
2.19433	-75
2.19800	-74
2.20167	-73
2.20533	-73
2.20900	-72
2.21267	-72
2.21633	-72
2.22000	-72
2.22367	-72
2.22733	-72
2.23100	-72
2.23467	-72
2.23833	-71
2.24200	-71
2.24567	-70
2.24933	-69
2.25300	-69
2.25667	-68
2.26033	-68
2.26400	-68
2.26767	-68
2.27133	-68
2.27500	-67
2.27867	-67
2.28233	-67
2.28600	-67
2.28967	-67
2.29333	-67
2.29700	-67
2.30067	-66
2.30433	-66
2.30800	-66
2.31167	-66
2.31533	-66
2.31900	-66
2.32267	-66
2.32633	-66
2.33000	-65
2.33367	-65
2.33733	-64
2.34100	-63
2.34467	-62
2.34833	-61
2.35200	-60
2.35567	-59
2.35933	-59
2.36300	-57
2.36667	-56
2.37033	-54
2.37400	-52
2.37767	-49
2.38133	-46
2.38500	-43
2.38867	-39
2.39233	-35
2.39600	-31
2.39967	-27
2.40333	-22
2.40700	-18
2.41067	-15
2.41433	-11
2.41800	-9
2.42167	-6
2.42533	-4
2.42900	-2
2.43267	0
2.43633	2
2.44000	4
2.44367	6
2.44733	7
2.45100	9
2.45467	10
2.45833	11
2.46200	13
2.46567	14
2.46933	15
2.47300	15
2.47667	15
2.48033	16
2.48400	17
2.48767	18
2.49133	18
2.49500	20
2.49867	21
2.50233	21
2.50600	21
2.50967	21
2.51333	21
2.51700	21
2.52067	22
2.52433	22
2.52800	22
2.53167	22
2.53533	21
2.53900	20
2.54267	20
2.54633	19
2.55000	18
2.55367	18
2.55733	17
2.56100	17
2.56467	17
2.56833	17
2.57200	17
2.57567	17
2.57933	17
2.58300	17
2.58667	18
2.59033	19
2.59400	19
2.59767	20
2.60133	21
2.60500	22
2.60867	23
2.61233	23
2.61600	24
2.61967	24
2.62333	25
2.62700	25
2.63067	25
2.63433	25
2.63800	25
2.64167	24
2.64533	24
2.64900	24
2.65267	24
2.65633	24
2.66000	24
2.66367	25
2.66733	25
2.67100	26
2.67467	27
2.67833	28
2.68200	28
2.68567	29
2.68933	29
2.69300	29
2.69667	30
2.70033	30
2.70400	30
2.70767	30
2.71133	30
2.71500	30
2.71867	31
2.72233	31
2.72600	31
2.72967	31
2.73333	32
2.73700	32
2.74067	32
2.74433	32
2.74800	32
2.75167	32
2.75533	32
2.75900	32
2.76267	32
2.76633	31
2.77000	31
2.77367	31
2.77733	31
2.78100	30
2.78467	30
2.78833	30
2.79200	30
2.79567	30
2.79933	30
2.80300	30
2.80667	30
2.81033	30
2.81400	30
2.81767	30
2.82133	31
2.82500	31
2.82867	31
2.83233	31
2.83600	31
2.83967	32
2.84333	32
2.84700	32
2.85067	32
2.85433	30
2.85800	28
2.86167	23
2.86533	16
2.86900	5
2.87267	-11
2.87633	-32
2.88000	-59
2.88367	-92
2.88733	-133
2.89100	-179
2.89467	-233
2.89833	-293
2.90200	-359
2.90567	-431
2.90933	-509
2.91300	-591
2.91667	-677
2.92033	-768
2.92400	-862
2.92767	-959
2.93133	-1058
2.93500	-1160
2.93867	-1264
2.94233	-1369
2.94600	-1467
2.94967	-1546
2.95333	-1591
2.95700	-1598
2.96067	-1566
2.96433	-1502
2.96800	-1413
2.97167	-1308
2.97533	-1193
2.97900	-1076
2.98267	-961
2.98633	-851
2.99000	-748
2.99367	-654
2.99733	-568
3.00100	-492
3.00467	-424
3.00833	-364
3.01200	-312
3.01567	-266
3.01933	-226
3.02300	-192
3.02667	-162
3.03033	-136
3.03400	-114
3.03767	-95
3.04133	-79
3.04500	-65
3.04867	-53
3.05233	-43
3.05600	-35
3.05967	-28
3.06333	-21
3.06700	-15
3.07067	-10
3.07433	-6
3.07800	-2
3.08167	1
3.08533	4
3.08900	6
3.09267	8
3.09633	10
3.10000	11
3.10367	12
3.10733	14
3.11100	15
3.11467	16
3.11833	17
3.12200	17
3.12567	18
3.12933	19
3.13300	19
3.13667	20
3.14033	20
3.14400	21
3.14767	21
3.15133	22
3.15500	22
3.15867	23
3.16233	23
3.16600	24
3.16967	24
3.17333	25
3.17700	26
3.18067	26
3.18433	27
3.18800	27
3.19167	27
3.19533	28
3.19900	28
3.20267	28
3.20633	29
3.21000	29
3.21367	29
3.21733	29
3.22100	29
3.22467	30
3.22833	30
3.23200	30
3.23567	30
3.23933	31
3.24300	31
3.24667	31
3.25033	32
3.25400	32
3.25767	32
3.26133	32
3.26500	32
3.26867	32
3.27233	32
3.27600	32
3.27967	32
3.28333	33
3.28700	33
3.29067	33
3.29433	33
3.29800	33
3.30167	33
3.30533	33
3.30900	33
3.31267	32
3.31633	32
3.32000	32
3.32367	32
3.32733	32
3.33100	33
3.33467	33
3.33833	33
3.34200	33
3.34567	33
3.34933	33
3.35300	33
3.35667	33
3.36033	33
3.36400	33
3.36767	33
3.37133	33
3.37500	33
3.37867	33
3.38233	33
3.38600	33
3.38967	33
3.39333	33
3.39700	33
3.40067	33
3.40433	33
3.40800	33
3.41167	34
3.41533	34
3.41900	34
3.42267	34
3.42633	34
3.43000	34
3.43367	34
3.43733	34
3.44100	34
3.44467	34
3.44833	34
3.45200	34
3.45567	34
3.45933	34
3.46300	34
3.46667	34
3.47033	34
3.47400	34
3.47767	34
3.48133	34
3.48500	34
3.48867	34
3.49233	34
3.49600	34
3.49967	34
3.50333	34
3.50700	34
3.51067	34
3.51433	34
3.51800	34
3.52167	34
3.52533	34
3.52900	34
3.53267	34
3.53633	34
3.54000	34
3.54367	34
3.54733	34
3.55100	34
3.55467	35
3.55833	35
3.56200	35
3.56567	34
3.56933	34
3.57300	34
3.57667	35
3.58033	35
3.58400	35
3.58767	35
3.59133	35
3.59500	35
3.59867	36
3.60233	36
3.60600	37
3.60967	37
3.61333	37
3.61700	38
3.62067	38
3.62433	38
3.62800	39
3.63167	39
3.63533	39
3.63900	39
3.64267	39
3.64633	38
3.65000	38
3.65367	38
3.65733	38
3.66100	38
3.66467	37
3.66833	37
3.67200	37
3.67567	37
3.67933	37
3.68300	37
3.68667	37
3.69033	37
3.69400	37
3.69767	37
3.70133	38
3.70500	38
3.70867	38
3.71233	38
3.71600	38
3.71967	38
3.72333	38
3.72700	38
3.73067	37
3.73433	37
3.73800	37
3.74167	37
3.74533	37
3.74900	37
3.75267	37
3.75633	37
3.76000	37
3.76367	37
3.76733	37
3.77100	37
3.77467	37
3.77833	37
3.78200	37
3.78567	37
3.78933	37
3.79300	36
3.79667	36
3.80033	36
3.80400	36
3.80767	36
3.81133	36
3.81500	36
3.81867	36
3.82233	36
3.82600	36
3.82967	36
3.83333	36
3.83700	36
3.84067	36
3.84433	36
3.84800	36
3.85167	36
3.85533	36
3.85900	36
3.86267	36
3.86633	36
3.87000	36
3.87367	36
3.87733	35
3.88100	36
3.88467	36
3.88833	36
3.89200	36
3.89567	37
3.89933	36
3.90300	36
3.90667	36
3.91033	36
3.91400	36
3.91767	36
3.92133	36
3.92500	36
3.92867	36
3.93233	36
3.93600	36
3.93967	36
3.94333	36
3.94700	36
3.95067	36
3.95433	36
3.95800	36
3.96167	36
3.96533	36
3.96900	36
3.97267	35
3.97633	35
3.98000	35
3.98367	35
3.98733	35
3.99100	35
3.99467	35
3.99833	35

[Chromatogram (Ch3)]
Interval(msec)	220
# of Points	1091
Start Time(min)	0.002
End Time(min)	3.998
R.Time (min)	Intensity
0.00167	-1
0.00533	-2
0.00900	-1
0.01267	-1
0.01633	-1
0.02000	-2
0.02367	-4
0.02733	-5
0.03100	-7
0.03467	-7
0.03833	-6
0.04200	-4
0.04567	-1
0.04933	-1
0.05300	-0
0.05667	-0
0.06033	-2
0.06400	-4
0.06767	-4
0.07133	-2
0.07500	2
0.07867	5
0.08233	5
0.08600	5
0.08967	4
0.09333	4
0.09700	5
0.10067	6
0.10433	4
0.10800	1
0.11167	-1
0.11533	-2
0.11900	-2
0.12267	-1
0.12633	-0
0.13000	2
0.13367	3
0.13733	1
0.14100	-0
0.14467	-1
0.14833	-2
0.15200	-4
0.15567	-7
0.15933	-7
0.16300	-5
0.16667	-2
0.17033	-1
0.17400	-1
0.17767	-2
0.18133	-1
0.18500	-0
0.18867	-1
0.19233	-0
0.19600	-1
0.19967	0
0.20333	2
0.20700	3
0.21067	2
0.21433	-0
0.21800	-1
0.22167	1
0.22533	1
0.22900	0
0.23267	-1
0.23633	-2
0.24000	-1
0.24367	-1
0.24733	2
0.25100	5
0.25467	6
0.25833	6
0.26200	4
0.26567	3
0.26933	1
0.27300	0
0.27667	-0
0.28033	0
0.28400	1
0.28767	2
0.29133	3
0.29500	2
0.29867	3
0.30233	6
0.30600	6
0.30967	4
0.31333	4
0.31700	5
0.32067	7
0.32433	8
0.32800	8
0.33167	8
0.33533	7
0.33900	4
0.34267	2
0.34633	1
0.35000	-2
0.35367	-3
0.35733	-3
0.36100	-3
0.36467	-4
0.36833	-6
0.37200	-5
0.37567	-5
0.37933	-3
0.38300	-1
0.38667	1
0.39033	3
0.39400	2
0.39767	-2
0.40133	-3
0.40500	-4
0.40867	-4
0.41233	-3
0.41600	-1
0.41967	-1
0.42333	-0
0.42700	1
0.43067	2
0.43433	1
0.43800	-1
0.44167	-3
0.44533	-4
0.44900	-5
0.45267	-6
0.45633	-6
0.46000	-6
0.46367	-5
0.46733	-1
0.47100	-0
0.47467	-2
0.47833	-2
0.48200	-4
0.48567	-6
0.48933	-6
0.49300	-5
0.49667	-4
0.50033	-3
0.50400	-4
0.50767	-4
0.51133	-3
0.51500	-1
0.51867	1
0.52233	4
0.52600	4
0.52967	3
0.53333	4
0.53700	4
0.54067	3
0.54433	4
0.54800	5
0.55167	5
0.55533	7
0.55900	8
0.56267	7
0.56633	3
0.57000	2
0.57367	3
0.57733	5
0.58100	5
0.58467	5
0.58833	5
0.59200	5
0.59567	4
0.59933	4
0.60300	4
0.60667	2
0.61033	2
0.61400	4
0.61767	5
0.62133	6
0.62500	6
0.62867	7
0.63233	8
0.63600	8
0.63967	7
0.64333	7
0.64700	8
0.65067	8
0.65433	6
0.65800	2
0.66167	-2
0.66533	-4
0.66900	-2
0.67267	1
0.67633	4
0.68000	5
0.68367	3
0.68733	1
0.69100	3
0.69467	5
0.69833	5
0.70200	5
0.70567	5
0.70933	7
0.71300	7
0.71667	6
0.72033	5
0.72400	4
0.72767	3
0.73133	3
0.73500	3
0.73867	3
0.74233	2
0.74600	-1
0.74967	-1
0.75333	0
0.75700	3
0.76067	6
0.76433	7
0.76800	8
0.77167	9
0.77533	8
0.77900	6
0.78267	4
0.78633	4
0.79000	5
0.79367	7
0.79733	10
0.80100	11
0.80467	11
0.80833	10
0.81200	12
0.81567	13
0.81933	12
0.82300	11
0.82667	12
0.83033	11
0.83400	9
0.83767	8
0.84133	8
0.84500	7
0.84867	5
0.85233	5
0.85600	6
0.85967	5
0.86333	3
0.86700	1
0.87067	3
0.87433	4
0.87800	4
0.88167	4
0.88533	4
0.88900	5
0.89267	4
0.89633	3
0.90000	3
0.90367	4
0.90733	5
0.91100	4
0.91467	4
0.91833	3
0.92200	1
0.92567	0
0.92933	1
0.93300	2
0.93667	5
0.94033	5
0.94400	4
0.94767	1
0.95133	2
0.95500	6
0.95867	6
0.96233	3
0.96600	2
0.96967	4
0.97333	5
0.97700	3
0.98067	1
0.98433	0
0.98800	0
0.99167	0
0.99533	1
0.99900	1
1.00267	1
1.00633	-0
1.01000	-2
1.01367	-0
1.01733	2
1.02100	3
1.02467	3
1.02833	2
1.03200	2
1.03567	-0
1.03933	-3
1.04300	-4
1.04667	-6
1.05033	-7
1.05400	-5
1.05767	-4
1.06133	-5
1.06500	-5
1.06867	-4
1.07233	-1
1.07600	-1
1.07967	-2
1.08333	-3
1.08700	-5
1.09067	-5
1.09433	-2
1.09800	-1
1.10167	-1
1.10533	-3
1.10900	-4
1.11267	-4
1.11633	-6
1.12000	-6
1.12367	-6
1.12733	-4
1.13100	-2
1.13467	-2
1.13833	-2
1.14200	-1
1.14567	-1
1.14933	-2
1.15300	-3
1.15667	-2
1.16033	-1
1.16400	-1
1.16767	-1
1.17133	-1
1.17500	0
1.17867	1
1.18233	0
1.18600	-1
1.18967	-3
1.19333	-2
1.19700	-1
1.20067	-1
1.20433	-1
1.20800	-3
1.21167	-3
1.21533	-5
1.21900	-4
1.22267	-3
1.22633	-2
1.23000	-0
1.23367	0
1.23733	2
1.24100	-0
1.24467	-1
1.24833	-0
1.25200	-3
1.25567	-6
1.25933	-6
1.26300	-4
1.26667	-1
1.27033	2
1.27400	1
1.27767	-1
1.28133	-0
1.28500	-0
1.28867	-1
1.29233	-2
1.29600	-3
1.29967	-4
1.30333	-7
1.30700	-8
1.31067	-8
1.31433	-6
1.31800	-4
1.32167	-4
1.32533	-2
1.32900	0
1.33267	3
1.33633	4
1.34000	5
1.34367	6
1.34733	5
1.35100	4
1.35467	3
1.35833	1
1.36200	0
1.36567	1
1.36933	0
1.37300	-2
1.37667	-3
1.38033	-1
1.38400	0
1.38767	0
1.39133	-2
1.39500	-3
1.39867	-4
1.40233	-3
1.40600	-1
1.40967	2
1.41333	1
1.41700	-2
1.42067	-4
1.42433	-3
1.42800	-1
1.43167	-1
1.43533	0
1.43900	0
1.44267	1
1.44633	2
1.45000	1
1.45367	-1
1.45733	-3
1.46100	-4
1.46467	-4
1.46833	-5
1.47200	-7
1.47567	-9
1.47933	-8
1.48300	-6
1.48667	-4
1.49033	-2
1.49400	-0
1.49767	2
1.50133	2
1.50500	-1
1.50867	-3
1.51233	-4
1.51600	-4
1.51967	-3
1.52333	-2
1.52700	-3
1.53067	-2
1.53433	-1
1.53800	-2
1.54167	-2
1.54533	-1
1.54900	-0
1.55267	1
1.55633	3
1.56000	2
1.56367	2
1.56733	1
1.57100	0
1.57467	-1
1.57833	-1
1.58200	2
1.58567	2
1.58933	0
1.59300	-0
1.59667	1
1.60033	3
1.60400	3
1.60767	3
1.61133	1
1.61500	0
1.61867	0
1.62233	4
1.62600	8
1.62967	11
1.63333	13
1.63700	13
1.64067	13
1.64433	11
1.64800	10
1.65167	10
1.65533	9
1.65900	7
1.66267	6
1.66633	6
1.67000	8
1.67367	10
1.67733	11
1.68100	11
1.68467	11
1.68833	10
1.69200	9
1.69567	10
1.69933	10
1.70300	10
1.70667	8
1.71033	10
1.71400	11
1.71767	9
1.72133	6
1.72500	5
1.72867	4
1.73233	4
1.73600	6
1.73967	9
1.74333	10
1.74700	11
1.75067	8
1.75433	5
1.75800	4
1.76167	3
1.76533	3
1.76900	2
1.77267	3
1.77633	5
1.78000	7
1.78367	7
1.78733	7
1.79100	7
1.79467	5
1.79833	7
1.80200	8
1.80567	10
1.80933	13
1.81300	15
1.81667	14
1.82033	13
1.82400	14
1.82767	13
1.83133	12
1.83500	12
1.83867	11
1.84233	10
1.84600	8
1.84967	8
1.85333	9
1.85700	8
1.86067	8
1.86433	7
1.86800	5
1.87167	2
1.87533	-1
1.87900	-2
1.88267	-1
1.88633	1
1.89000	4
1.89367	6
1.89733	7
1.90100	6
1.90467	8
1.90833	10
1.91200	10
1.91567	10
1.91933	11
1.92300	12
1.92667	10
1.93033	9
1.93400	10
1.93767	8
1.94133	6
1.94500	7
1.94867	9
1.95233	12
1.95600	14
1.95967	15
1.96333	15
1.96700	18
1.97067	19
1.97433	16
1.97800	11
1.98167	10
1.98533	11
1.98900	15
1.99267	16
1.99633	16
2.00000	16
2.00367	17
2.00733	17
2.01100	15
2.01467	14
2.01833	14
2.02200	13
2.02567	12
2.02933	14
2.03300	16
2.03667	15
2.04033	15
2.04400	14
2.04767	13
2.05133	12
2.05500	12
2.05867	11
2.06233	13
2.06600	15
2.06967	16
2.07333	17
2.07700	19
2.08067	19
2.08433	19
2.08800	20
2.09167	21
2.09533	22
2.09900	21
2.10267	18
2.10633	15
2.11000	12
2.11367	11
2.11733	13
2.12100	14
2.12467	15
2.12833	14
2.13200	13
2.13567	13
2.13933	15
2.14300	16
2.14667	17
2.15033	17
2.15400	18
2.15767	17
2.16133	16
2.16500	17
2.16867	20
2.17233	22
2.17600	23
2.17967	21
2.18333	23
2.18700	24
2.19067	24
2.19433	23
2.19800	23
2.20167	22
2.20533	20
2.20900	17
2.21267	16
2.21633	17
2.22000	18
2.22367	18
2.22733	18
2.23100	18
2.23467	19
2.23833	20
2.24200	20
2.24567	21
2.24933	23
2.25300	24
2.25667	26
2.26033	26
2.26400	28
2.26767	26
2.27133	26
2.27500	25
2.27867	27
2.28233	28
2.28600	27
2.28967	28
2.29333	30
2.29700	30
2.30067	29
2.30433	26
2.30800	24
2.31167	26
2.31533	27
2.31900	27
2.32267	29
2.32633	29
2.33000	29
2.33367	29
2.33733	31
2.34100	31
2.34467	33
2.34833	34
2.35200	32
2.35567	31
2.35933	33
2.36300	35
2.36667	33
2.37033	31
2.37400	31
2.37767	31
2.38133	31
2.38500	29
2.38867	25
2.39233	25
2.39600	30
2.39967	36
2.40333	39
2.40700	43
2.41067	45
2.41433	46
2.41800	48
2.42167	52
2.42533	53
2.42900	53
2.43267	54
2.43633	54
2.44000	60
2.44367	112
2.44733	206
2.45100	294
2.45467	365
2.45833	399
2.46200	399
2.46567	385
2.46933	377
2.47300	375
2.47667	368
2.48033	351
2.48400	325
2.48767	294
2.49133	265
2.49500	242
2.49867	231
2.50233	229
2.50600	235
2.50967	249
2.51333	265
2.51700	280
2.52067	287
2.52433	283
2.52800	271
2.53167	252
2.53533	229
2.53900	205
2.54267	184
2.54633	163
2.55000	145
2.55367	133
2.55733	124
2.56100	117
2.56467	115
2.56833	114
2.57200	113
2.57567	114
2.57933	118
2.58300	124
2.58667	131
2.59033	140
2.59400	150
2.59767	165
2.60133	181
2.60500	197
2.60867	210
2.61233	221
2.61600	230
2.61967	237
2.62333	239
2.62700	236
2.63067	230
2.63433	222
2.63800	209
2.64167	193
2.64533	175
2.64900	157
2.65267	140
2.65633	125
2.66000	110
2.66367	95
2.66733	81
2.67100	70
2.67467	62
2.67833	56
2.68200	51
2.68567	49
2.68933	47
2.69300	44
2.69667	38
2.70033	34
2.70400	31
2.70767	29
2.71133	28
2.71500	28
2.71867	27
2.72233	24
2.72600	21
2.72967	21
2.73333	24
2.73700	28
2.74067	30
2.74433	32
2.74800	36
2.75167	37
2.75533	40
2.75900	43
2.76267	46
2.76633	50
2.77000	56
2.77367	59
2.77733	60
2.78100	64
2.78467	71
2.78833	78
2.79200	83
2.79567	89
2.79933	94
2.80300	100
2.80667	107
2.81033	113
2.81400	117
2.81767	119
2.82133	122
2.82500	129
2.82867	139
2.83233	159
2.83600	205
2.83967	306
2.84333	501
2.84700	848
2.85067	1407
2.85433	2214
2.85800	3283
2.86167	4590
2.86533	6066
2.86900	7615
2.87267	9121
2.87633	10466
2.88000	11550
2.88367	12296
2.88733	12670
2.89100	12687
2.89467	12391
2.89833	11845
2.90200	11123
2.90567	10291
2.90933	9407
2.91300	8513
2.91667	7640
2.92033	6813
2.92400	6042
2.92767	5335
2.93133	4697
2.93500	4123
2.93867	3610
2.94233	3156
2.94600	2755
2.94967	2401
2.95333	2088
2.95700	1815
2.96067	1578
2.96433	1370
2.96800	1189
2.97167	1031
2.97533	893
2.97900	773
2.98267	671
2.98633	585
2.99000	512
2.99367	450
2.99733	396
3.00100	348
3.00467	304
3.00833	267
3.01200	236
3.01567	208
3.01933	184
3.02300	166
3.02667	148
3.03033	134
3.03400	120
3.03767	111
3.04133	101
3.04500	94
3.04867	90
3.05233	84
3.05600	78
3.05967	73
3.06333	69
3.06700	65
3.07067	61
3.07433	61
3.07800	63
3.08167	60
3.08533	56
3.08900	53
3.09267	52
3.09633	52
3.10000	52
3.10367	51
3.10733	50
3.11100	50
3.11467	48
3.11833	46
3.12200	46
3.12567	47
3.12933	48
3.13300	50
3.13667	51
3.14033	51
3.14400	51
3.14767	53
3.15133	54
3.15500	53
3.15867	52
3.16233	53
3.16600	55
3.16967	59
3.17333	60
3.17700	62
3.18067	62
3.18433	64
3.18800	63
3.19167	62
3.19533	64
3.19900	65
3.20267	66
3.20633	69
3.21000	70
3.21367	70
3.21733	72
3.22100	73
3.22467	74
3.22833	75
3.23200	75
3.23567	77
3.23933	80
3.24300	82
3.24667	84
3.25033	88
3.25400	91
3.25767	93
3.26133	92
3.26500	92
3.26867	94
3.27233	97
3.27600	98
3.27967	99
3.28333	99
3.28700	98
3.29067	99
3.29433	100
3.29800	100
3.30167	101
3.30533	104
3.30900	107
3.31267	109
3.31633	109
3.32000	109
3.32367	108
3.32733	109
3.33100	109
3.33467	109
3.33833	110
3.34200	111
3.34567	113
3.34933	112
3.35300	110
3.35667	110
3.36033	109
3.36400	107
3.36767	105
3.37133	107
3.37500	108
3.37867	108
3.38233	107
3.38600	105
3.38967	104
3.39333	103
3.39700	102
3.40067	104
3.40433	106
3.40800	105
3.41167	103
3.41533	102
3.41900	100
3.42267	98
3.42633	95
3.43000	94
3.43367	95
3.43733	97
3.44100	97
3.44467	96
3.44833	96
3.45200	95
3.45567	91
3.45933	88
3.46300	86
3.46667	83
3.47033	79
3.47400	79
3.47767	79
3.48133	76
3.48500	73
3.48867	72
3.49233	73
3.49600	72
3.49967	73
3.50333	72
3.50700	70
3.51067	68
3.51433	67
3.51800	66
3.52167	67
3.52533	67
3.52900	66
3.53267	65
3.53633	64
3.54000	64
3.54367	65
3.54733	66
3.55100	65
3.55467	66
3.55833	66
3.56200	64
3.56567	60
3.56933	59
3.57300	58
3.57667	58
3.58033	59
3.58400	57
3.58767	57
3.59133	56
3.59500	57
3.59867	57
3.60233	55
3.60600	54
3.60967	52
3.61333	50
3.61700	52
3.62067	53
3.62433	54
3.62800	54
3.63167	57
3.63533	57
3.63900	56
3.64267	54
3.64633	51
3.65000	49
3.65367	49
3.65733	50
3.66100	50
3.66467	52
3.66833	55
3.67200	56
3.67567	55
3.67933	53
3.68300	50
3.68667	49
3.69033	50
3.69400	51
3.69767	50
3.70133	52
3.70500	52
3.70867	54
3.71233	54
3.71600	55
3.71967	53
3.72333	52
3.72700	52
3.73067	54
3.73433	55
3.73800	56
3.74167	58
3.74533	59
3.74900	58
3.75267	55
3.75633	54
3.76000	52
3.76367	53
3.76733	54
3.77100	53
3.77467	52
3.77833	50
3.78200	51
3.78567	53
3.78933	55
3.79300	57
3.79667	56
3.80033	55
3.80400	53
3.80767	54
3.81133	54
3.81500	53
3.81867	53
3.82233	54
3.82600	53
3.82967	55
3.83333	57
3.83700	57
3.84067	58
3.84433	58
3.84800	59
3.85167	59
3.85533	59
3.85900	60
3.86267	58
3.86633	57
3.87000	59
3.87367	60
3.87733	62
3.88100	62
3.88467	60
3.88833	58
3.89200	56
3.89567	57
3.89933	58
3.90300	60
3.90667	60
3.91033	60
3.91400	60
3.91767	62
3.92133	62
3.92500	59
3.92867	58
3.93233	55
3.93600	55
3.93967	56
3.94333	56
3.94700	55
3.95067	55
3.95433	57
3.95800	57
3.96167	57
3.96533	56
3.96900	55
3.97267	54
3.97633	55
3.98000	56
3.98367	58
3.98733	58
3.99100	60
3.99467	60
3.99833	57

[Status Trace (Column Oven Temperature)]
Interval(msec)	1000
# of Points	240
Start Time(min)	0.013
End Time(min)	3.997
Intensity Units	
Intensity Multiplier	1
R.Time (min)	Intensity
0.01335	35.01
0.03002	35.01
0.04668	35.01
0.06335	35.00
0.08002	35.00
0.09668	34.99
0.11335	35.00
0.13002	34.99
0.14668	34.98
0.16335	34.99
0.18002	35.00
0.19668	35.00
0.21335	35.00
0.23002	35.00
0.24668	35.00
0.26335	35.00
0.28002	35.01
0.29668	35.01
0.31335	35.01
0.33002	35.02
0.34668	35.02
0.36335	35.01
0.38002	35.01
0.39668	35.01
0.41335	35.00
0.43002	35.00
0.44668	35.00
0.46335	35.00
0.48002	35.00
0.49668	35.00
0.51335	34.99
0.53002	34.99
0.54668	35.00
0.56335	35.00
0.58002	34.99
0.59668	35.00
0.61335	34.99
0.63002	35.00
0.64668	35.01
0.66335	35.00
0.68002	35.00
0.69668	35.00
0.71335	35.01
0.73002	35.02
0.74668	35.01
0.76335	35.02
0.78002	35.02
0.79668	35.02
0.81335	35.02
0.83002	35.01
0.84668	35.01
0.86335	35.00
0.88002	35.00
0.89668	34.99
0.91335	35.00
0.93002	35.00
0.94668	35.00
0.96335	34.99
0.98002	34.99
0.99668	34.99
1.01335	34.99
1.03002	35.00
1.04668	35.01
1.06335	35.02
1.08002	35.01
1.09668	35.01
1.11335	35.01
1.13002	35.01
1.14668	35.01
1.16335	35.01
1.18002	35.00
1.19668	34.99
1.21335	34.99
1.23002	34.99
1.24668	34.99
1.26335	34.99
1.28002	35.00
1.29668	35.00
1.31335	34.99
1.33002	35.00
1.34668	35.01
1.36335	35.00
1.38002	34.99
1.39668	34.99
1.41335	34.99
1.43002	34.99
1.44668	34.99
1.46335	34.99
1.48002	35.00
1.49668	35.00
1.51335	35.01
1.53002	35.02
1.54668	35.02
1.56335	35.02
1.58002	35.01
1.59668	35.04
1.61335	35.10
1.63002	35.24
1.64668	35.45
1.66335	35.72
1.68002	36.08
1.69668	36.44
1.71335	36.77
1.73002	37.14
1.74668	37.46
1.76335	37.79
1.78002	38.13
1.79668	38.45
1.81335	38.78
1.83002	39.14
1.84668	39.44
1.86335	39.76
1.88002	40.11
1.89668	40.45
1.91335	40.77
1.93002	41.10
1.94668	41.45
1.96335	41.77
1.98002	42.10
1.99668	42.41
2.01335	42.74
2.03002	43.06
2.04668	43.39
2.06335	43.73
2.08002	44.06
2.09668	44.37
2.11335	44.69
2.13002	45.01
2.14668	45.34
2.16335	45.66
2.18002	46.01
2.19668	46.34
2.21335	46.65
2.23002	46.98
2.24668	47.30
2.26335	47.64
2.28002	47.98
2.29668	48.30
2.31335	48.63
2.33002	48.96
2.34668	49.26
2.36335	49.51
2.38002	49.67
2.39668	49.71
2.41335	49.72
2.43002	49.72
2.44668	49.72
2.46335	49.73
2.48002	49.75
2.49668	49.75
2.51335	49.77
2.53002	49.78
2.54668	49.80
2.56335	49.81
2.58002	49.82
2.59668	49.82
2.61335	49.82
2.63002	49.82
2.64668	49.85
2.66335	49.86
2.68002	49.86
2.69668	49.85
2.71335	49.86
2.73002	49.86
2.74668	49.86
2.76335	49.87
2.78002	49.89
2.79668	49.91
2.81335	49.92
2.83002	49.93
2.84668	49.94
2.86335	49.95
2.88002	49.96
2.89668	49.97
2.91335	49.99
2.93002	50.00
2.94668	50.01
2.96335	50.02
2.98002	50.02
2.99668	50.04
3.01335	50.05
3.03002	50.06
3.04668	50.07
3.06335	50.08
3.08002	50.08
3.09668	50.08
3.11335	50.10
3.13002	50.11
3.14668	50.11
3.16335	50.10
3.18002	50.09
3.19668	50.08
3.21335	50.07
3.23002	50.06
3.24668	50.05
3.26335	50.04
3.28002	50.04
3.29668	50.03
3.31335	50.04
3.33002	50.03
3.34668	50.03
3.36335	50.04
3.38002	50.05
3.39668	50.05
3.41335	50.05
3.43002	50.05
3.44668	50.06
3.46335	50.06
3.48002	50.07
3.49668	50.07
3.51335	50.08
3.53002	50.09
3.54668	50.09
3.56335	50.10
3.58002	50.11
3.59668	50.09
3.61335	50.08
3.63002	50.07
3.64668	50.07
3.66335	50.07
3.68002	50.06
3.69668	50.06
3.71335	50.05
3.73002	50.05
3.74668	50.04
3.76335	50.03
3.78002	50.03
3.79668	50.04
3.81335	50.03
3.83002	50.03
3.84668	50.03
3.86335	50.03
3.88002	50.04
3.89668	50.04
3.91335	50.04
3.93002	50.04
3.94668	50.04
3.96335	50.04
3.98002	50.05
3.99668	50.05

[Status Trace (Injection Unit Temperature)]
Interval(msec)	1000
# of Points	240
Start Time(min)	0.013
End Time(min)	3.997
Intensity Units	
Intensity Multiplier	1
R.Time (min)	Intensity
0.01335	100.00
0.03002	100.00
0.04668	100.00
0.06335	100.00
0.08002	100.00
0.09668	100.00
0.11335	100.00
0.13002	100.00
0.14668	100.00
0.16335	100.00
0.18002	100.00
0.19668	100.00
0.21335	100.00
0.23002	100.00
0.24668	100.00
0.26335	100.00
0.28002	100.01
0.29668	100.00
0.31335	100.00
0.33002	100.00
0.34668	100.01
0.36335	100.00
0.38002	100.00
0.39668	100.00
0.41335	100.00
0.43002	100.00
0.44668	100.00
0.46335	100.00
0.48002	100.00
0.49668	100.00
0.51335	100.00
0.53002	100.00
0.54668	100.00
0.56335	100.00
0.58002	100.00
0.59668	100.00
0.61335	100.00
0.63002	100.00
0.64668	100.01
0.66335	100.00
0.68002	100.00
0.69668	100.00
0.71335	100.00
0.73002	100.00
0.74668	100.01
0.76335	100.00
0.78002	100.00
0.79668	100.00
0.81335	100.00
0.83002	100.01
0.84668	100.00
0.86335	100.00
0.88002	100.00
0.89668	100.00
0.91335	100.01
0.93002	100.00
0.94668	100.01
0.96335	100.00
0.98002	100.00
0.99668	100.01
1.01335	100.01
1.03002	100.00
1.04668	100.00
1.06335	100.01
1.08002	100.00
1.09668	100.01
1.11335	100.00
1.13002	100.00
1.14668	100.00
1.16335	100.00
1.18002	100.00
1.19668	100.00
1.21335	100.00
1.23002	100.00
1.24668	100.00
1.26335	100.00
1.28002	100.00
1.29668	100.00
1.31335	100.00
1.33002	100.00
1.34668	100.00
1.36335	100.00
1.38002	100.00
1.39668	100.00
1.41335	100.00
1.43002	100.00
1.44668	100.00
1.46335	100.00
1.48002	100.00
1.49668	100.00
1.51335	100.00
1.53002	100.00
1.54668	100.00
1.56335	100.00
1.58002	100.00
1.59668	100.00
1.61335	100.00
1.63002	100.00
1.64668	100.00
1.66335	100.00
1.68002	100.00
1.69668	100.00
1.71335	100.00
1.73002	100.00
1.74668	100.00
1.76335	100.00
1.78002	100.00
1.79668	100.00
1.81335	100.00
1.83002	100.00
1.84668	100.00
1.86335	100.00
1.88002	100.00
1.89668	100.00
1.91335	100.00
1.93002	100.00
1.94668	100.00
1.96335	100.00
1.98002	99.99
1.99668	99.99
2.01335	99.99
2.03002	99.99
2.04668	99.99
2.06335	99.99
2.08002	99.99
2.09668	99.99
2.11335	99.99
2.13002	99.99
2.14668	99.99
2.16335	99.98
2.18002	99.98
2.19668	99.98
2.21335	99.98
2.23002	99.98
2.24668	99.98
2.26335	99.98
2.28002	99.98
2.29668	99.98
2.31335	99.98
2.33002	99.98
2.34668	99.98
2.36335	99.98
2.38002	99.97
2.39668	99.98
2.41335	99.98
2.43002	99.97
2.44668	99.98
2.46335	99.98
2.48002	99.98
2.49668	99.98
2.51335	99.97
2.53002	99.98
2.54668	99.98
2.56335	99.98
2.58002	99.98
2.59668	99.98
2.61335	99.98
2.63002	99.98
2.64668	99.98
2.66335	99.99
2.68002	99.99
2.69668	99.97
2.71335	99.99
2.73002	99.99
2.74668	99.99
2.76335	99.99
2.78002	100.00
2.79668	100.00
2.81335	100.00
2.83002	100.00
2.84668	100.01
2.86335	100.01
2.88002	100.01
2.89668	100.01
2.91335	100.01
2.93002	100.01
2.94668	100.01
2.96335	100.02
2.98002	100.02
2.99668	100.02
3.01335	100.03
3.03002	100.03
3.04668	100.03
3.06335	100.03
3.08002	100.03
3.09668	100.03
3.11335	100.03
3.13002	100.04
3.14668	100.04
3.16335	100.04
3.18002	100.04
3.19668	100.04
3.21335	100.04
3.23002	100.05
3.24668	100.05
3.26335	100.05
3.28002	100.05
3.29668	100.05
3.31335	100.05
3.33002	100.05
3.34668	100.05
3.36335	100.05
3.38002	100.05
3.39668	100.05
3.41335	100.05
3.43002	100.05
3.44668	100.06
3.46335	100.05
3.48002	100.06
3.49668	100.05
3.51335	100.06
3.53002	100.06
3.54668	100.06
3.56335	100.06
3.58002	100.06
3.59668	100.06
3.61335	100.06
3.63002	100.06
3.64668	100.06
3.66335	100.06
3.68002	100.06
3.69668	100.06
3.71335	100.06
3.73002	100.06
3.74668	100.07
3.76335	100.06
3.78002	100.06
3.79668	100.07
3.81335	100.07
3.83002	100.06
3.84668	100.06
3.86335	100.06
3.88002	100.07
3.89668	100.07
3.91335	100.07
3.93002	100.06
3.94668	100.07
3.96335	100.07
3.98002	100.07
3.99668	100.06

[Status Trace (Carrier Gas Pressure)]
Interval(msec)	1000
# of Points	240
Start Time(min)	0.013
End Time(min)	3.997
Intensity Units	
Intensity Multiplier	1
R.Time (min)	Intensity
0.01335	57.91
0.03002	55.30
0.04668	57.76
0.06335	59.77
0.08002	58.81
0.09668	57.99
0.11335	57.99
0.13002	58.01
0.14668	58.01
0.16335	58.00
0.18002	58.00
0.19668	58.00
0.21335	58.00
0.23002	58.00
0.24668	58.00
0.26335	58.00
0.28002	58.00
0.29668	58.00
0.31335	58.00
0.33002	58.00
0.34668	58.00
0.36335	58.00
0.38002	58.00
0.39668	58.00
0.41335	58.00
0.43002	58.00
0.44668	58.00
0.46335	58.00
0.48002	58.00
0.49668	58.00
0.51335	58.00
0.53002	58.00
0.54668	58.00
0.56335	58.00
0.58002	58.00
0.59668	58.00
0.61335	58.00
0.63002	58.00
0.64668	58.00
0.66335	58.00
0.68002	58.00
0.69668	58.00
0.71335	58.00
0.73002	58.00
0.74668	58.00
0.76335	58.00
0.78002	58.00
0.79668	58.00
0.81335	58.00
0.83002	58.00
0.84668	58.00
0.86335	58.00
0.88002	58.00
0.89668	58.00
0.91335	58.00
0.93002	58.00
0.94668	58.00
0.96335	58.00
0.98002	58.00
0.99668	58.00
1.01335	58.00
1.03002	58.00
1.04668	58.00
1.06335	58.00
1.08002	58.00
1.09668	58.00
1.11335	58.00
1.13002	58.00
1.14668	58.00
1.16335	58.00
1.18002	58.00
1.19668	58.00
1.21335	58.00
1.23002	58.00
1.24668	58.00
1.26335	58.00
1.28002	58.00
1.29668	58.00
1.31335	58.00
1.33002	58.00
1.34668	58.00
1.36335	58.00
1.38002	58.00
1.39668	58.00
1.41335	58.00
1.43002	58.00
1.44668	58.00
1.46335	58.00
1.48002	58.00
1.49668	58.00
1.51335	58.00
1.53002	58.00
1.54668	58.00
1.56335	58.00
1.58002	58.00
1.59668	58.00
1.61335	58.00
1.63002	58.00
1.64668	58.00
1.66335	58.01
1.68002	58.01
1.69668	58.00
1.71335	58.00
1.73002	58.00
1.74668	58.00
1.76335	58.00
1.78002	58.00
1.79668	58.00
1.81335	58.00
1.83002	58.00
1.84668	58.00
1.86335	58.00
1.88002	58.00
1.89668	58.00
1.91335	58.00
1.93002	58.00
1.94668	58.00
1.96335	58.00
1.98002	58.00
1.99668	58.00
2.01335	58.00
2.03002	58.00
2.04668	58.00
2.06335	58.00
2.08002	58.00
2.09668	58.00
2.11335	58.00
2.13002	58.00
2.14668	58.00
2.16335	58.00
2.18002	58.00
2.19668	58.00
2.21335	58.00
2.23002	58.00
2.24668	58.00
2.26335	58.00
2.28002	58.00
2.29668	58.00
2.31335	58.00
2.33002	58.00
2.34668	58.00
2.36335	58.00
2.38002	58.00
2.39668	57.99
2.41335	58.00
2.43002	58.00
2.44668	58.00
2.46335	58.00
2.48002	58.00
2.49668	58.00
2.51335	57.99
2.53002	57.99
2.54668	58.00
2.56335	58.00
2.58002	58.00
2.59668	58.00
2.61335	58.00
2.63002	58.00
2.64668	58.00
2.66335	58.00
2.68002	58.00
2.69668	58.00
2.71335	58.00
2.73002	58.00
2.74668	58.00
2.76335	58.00
2.78002	58.00
2.79668	58.00
2.81335	58.00
2.83002	58.00
2.84668	58.00
2.86335	58.00
2.88002	58.00
2.89668	58.00
2.91335	58.00
2.93002	58.00
2.94668	58.00
2.96335	58.00
2.98002	58.00
2.99668	58.00
3.01335	58.00
3.03002	58.00
3.04668	58.00
3.06335	58.00
3.08002	58.00
3.09668	58.00
3.11335	58.00
3.13002	58.00
3.14668	58.00
3.16335	58.00
3.18002	58.00
3.19668	58.00
3.21335	58.00
3.23002	58.00
3.24668	58.00
3.26335	58.00
3.28002	58.00
3.29668	58.00
3.31335	58.00
3.33002	58.00
3.34668	58.00
3.36335	58.00
3.38002	58.00
3.39668	58.00
3.41335	58.00
3.43002	58.00
3.44668	58.00
3.46335	58.00
3.48002	58.00
3.49668	58.00
3.51335	58.00
3.53002	58.00
3.54668	58.00
3.56335	58.00
3.58002	58.00
3.59668	58.00
3.61335	58.00
3.63002	58.00
3.64668	58.00
3.66335	58.00
3.68002	58.00
3.69668	58.00
3.71335	58.00
3.73002	58.00
3.74668	58.00
3.76335	58.00
3.78002	58.00
3.79668	58.00
3.81335	58.00
3.83002	58.00
3.84668	58.00
3.86335	58.00
3.88002	58.00
3.89668	58.00
3.91335	58.00
3.93002	58.00
3.94668	58.00
3.96335	58.00
3.98002	58.00
3.99668	58.00

[Status Trace (Carrier Gas Flow)]
Interval(msec)	1000
# of Points	240
Start Time(min)	0.013
End Time(min)	3.997
Intensity Units	
Intensity Multiplier	1
R.Time (min)	Intensity
0.01335	34.67
0.03002	34.54
0.04668	34.54
0.06335	34.53
0.08002	34.51
0.09668	34.52
0.11335	34.53
0.13002	34.52
0.14668	34.52
0.16335	34.52
0.18002	34.52
0.19668	34.53
0.21335	34.51
0.23002	34.52
0.24668	34.52
0.26335	34.51
0.28002	34.52
0.29668	34.52
0.31335	34.51
0.33002	34.52
0.34668	34.53
0.36335	34.52
0.38002	34.52
0.39668	34.53
0.41335	34.52
0.43002	34.52
0.44668	34.52
0.46335	34.52
0.48002	34.52
0.49668	34.52
0.51335	34.52
0.53002	34.51
0.54668	34.52
0.56335	34.52
0.58002	34.52
0.59668	34.51
0.61335	34.52
0.63002	34.52
0.64668	34.52
0.66335	34.53
0.68002	34.52
0.69668	34.52
0.71335	34.52
0.73002	34.51
0.74668	34.52
0.76335	34.52
0.78002	34.52
0.79668	34.51
0.81335	34.52
0.83002	34.52
0.84668	34.52
0.86335	34.52
0.88002	34.52
0.89668	34.52
0.91335	34.52
0.93002	34.53
0.94668	34.51
0.96335	34.52
0.98002	34.52
0.99668	34.52
1.01335	34.52
1.03002	34.51
1.04668	34.52
1.06335	34.52
1.08002	34.51
1.09668	34.52
1.11335	34.52
1.13002	34.51
1.14668	34.52
1.16335	34.51
1.18002	34.53
1.19668	34.52
1.21335	34.52
1.23002	34.52
1.24668	34.52
1.26335	34.52
1.28002	34.52
1.29668	34.52
1.31335	34.52
1.33002	34.52
1.34668	34.53
1.36335	34.52
1.38002	34.51
1.39668	34.52
1.41335	34.52
1.43002	34.52
1.44668	34.52
1.46335	34.52
1.48002	34.52
1.49668	34.52
1.51335	34.52
1.53002	34.52
1.54668	34.52
1.56335	34.51
1.58002	34.52
1.59668	34.52
1.61335	34.52
1.63002	34.52
1.64668	34.52
1.66335	34.52
1.68002	34.52
1.69668	34.52
1.71335	34.52
1.73002	34.52
1.74668	34.52
1.76335	34.52
1.78002	34.52
1.79668	34.52
1.81335	34.52
1.83002	34.52
1.84668	34.52
1.86335	34.52
1.88002	34.52
1.89668	34.51
1.91335	34.51
1.93002	34.52
1.94668	34.52
1.96335	34.51
1.98002	34.51
1.99668	34.52
2.01335	34.52
2.03002	34.51
2.04668	34.51
2.06335	34.52
2.08002	34.52
2.09668	34.52
2.11335	34.52
2.13002	34.52
2.14668	34.52
2.16335	34.52
2.18002	34.52
2.19668	34.51
2.21335	34.52
2.23002	34.52
2.24668	34.52
2.26335	34.52
2.28002	34.51
2.29668	34.52
2.31335	34.52
2.33002	34.52
2.34668	34.52
2.36335	34.52
2.38002	34.52
2.39668	34.52
2.41335	34.52
2.43002	34.52
2.44668	34.51
2.46335	34.52
2.48002	34.53
2.49668	34.52
2.51335	34.52
2.53002	34.52
2.54668	34.52
2.56335	34.52
2.58002	34.52
2.59668	34.52
2.61335	34.51
2.63002	34.52
2.64668	34.52
2.66335	34.52
2.68002	34.52
2.69668	34.52
2.71335	34.52
2.73002	34.52
2.74668	34.52
2.76335	34.52
2.78002	34.51
2.79668	34.52
2.81335	34.51
2.83002	34.52
2.84668	34.52
2.86335	34.52
2.88002	34.52
2.89668	34.52
2.91335	34.52
2.93002	34.52
2.94668	34.51
2.96335	34.52
2.98002	34.52
2.99668	34.51
3.01335	34.52
3.03002	34.53
3.04668	34.52
3.06335	34.52
3.08002	34.52
3.09668	34.52
3.11335	34.53
3.13002	34.51
3.14668	34.52
3.16335	34.52
3.18002	34.52
3.19668	34.52
3.21335	34.52
3.23002	34.52
3.24668	34.52
3.26335	34.52
3.28002	34.52
3.29668	34.52
3.31335	34.51
3.33002	34.52
3.34668	34.52
3.36335	34.51
3.38002	34.52
3.39668	34.53
3.41335	34.53
3.43002	34.51
3.44668	34.52
3.46335	34.52
3.48002	34.52
3.49668	34.52
3.51335	34.52
3.53002	34.52
3.54668	34.52
3.56335	34.52
3.58002	34.52
3.59668	34.51
3.61335	34.51
3.63002	34.51
3.64668	34.52
3.66335	34.52
3.68002	34.52
3.69668	34.52
3.71335	34.52
3.73002	34.52
3.74668	34.51
3.76335	34.52
3.78002	34.52
3.79668	34.51
3.81335	34.53
3.83002	34.52
3.84668	34.52
3.86335	34.52
3.88002	34.53
3.89668	34.53
3.91335	34.52
3.93002	34.52
3.94668	34.52
3.96335	34.52
3.98002	34.52
3.99668	34.52

[Status Trace (Column Flow)]
Interval(msec)	1000
# of Points	240
Start Time(min)	0.013
End Time(min)	3.997
Intensity Units	
Intensity Multiplier	1
R.Time (min)	Intensity
0.01335	5.52
0.03002	5.22
0.04668	5.50
0.06335	5.74
0.08002	5.62
0.09668	5.53
0.11335	5.53
0.13002	5.53
0.14668	5.53
0.16335	5.53
0.18002	5.53
0.19668	5.53
0.21335	5.53
0.23002	5.53
0.24668	5.53
0.26335	5.53
0.28002	5.53
0.29668	5.53
0.31335	5.53
0.33002	5.53
0.34668	5.53
0.36335	5.53
0.38002	5.53
0.39668	5.53
0.41335	5.53
0.43002	5.53
0.44668	5.53
0.46335	5.53
0.48002	5.53
0.49668	5.53
0.51335	5.53
0.53002	5.53
0.54668	5.53
0.56335	5.53
0.58002	5.53
0.59668	5.53
0.61335	5.53
0.63002	5.53
0.64668	5.53
0.66335	5.53
0.68002	5.53
0.69668	5.53
0.71335	5.53
0.73002	5.53
0.74668	5.53
0.76335	5.53
0.78002	5.53
0.79668	5.53
0.81335	5.53
0.83002	5.53
0.84668	5.53
0.86335	5.53
0.88002	5.53
0.89668	5.53
0.91335	5.53
0.93002	5.53
0.94668	5.53
0.96335	5.53
0.98002	5.53
0.99668	5.53
1.01335	5.53
1.03002	5.53
1.04668	5.53
1.06335	5.53
1.08002	5.53
1.09668	5.53
1.11335	5.53
1.13002	5.53
1.14668	5.53
1.16335	5.53
1.18002	5.53
1.19668	5.53
1.21335	5.53
1.23002	5.53
1.24668	5.53
1.26335	5.53
1.28002	5.53
1.29668	5.53
1.31335	5.53
1.33002	5.53
1.34668	5.53
1.36335	5.53
1.38002	5.53
1.39668	5.53
1.41335	5.53
1.43002	5.53
1.44668	5.53
1.46335	5.53
1.48002	5.53
1.49668	5.53
1.51335	5.53
1.53002	5.53
1.54668	5.53
1.56335	5.53
1.58002	5.53
1.59668	5.53
1.61335	5.53
1.63002	5.52
1.64668	5.52
1.66335	5.51
1.68002	5.50
1.69668	5.49
1.71335	5.47
1.73002	5.46
1.74668	5.45
1.76335	5.44
1.78002	5.43
1.79668	5.42
1.81335	5.41
1.83002	5.40
1.84668	5.39
1.86335	5.38
1.88002	5.37
1.89668	5.36
1.91335	5.35
1.93002	5.34
1.94668	5.33
1.96335	5.32
1.98002	5.31
1.99668	5.30
2.01335	5.29
2.03002	5.28
2.04668	5.28
2.06335	5.26
2.08002	5.25
2.09668	5.25
2.11335	5.24
2.13002	5.23
2.14668	5.22
2.16335	5.21
2.18002	5.20
2.19668	5.19
2.21335	5.18
2.23002	5.17
2.24668	5.16
2.26335	5.15
2.28002	5.14
2.29668	5.13
2.31335	5.12
2.33002	5.11
2.34668	5.11
2.36335	5.10
2.38002	5.09
2.39668	5.09
2.41335	5.09
2.43002	5.09
2.44668	5.09
2.46335	5.09
2.48002	5.09
2.49668	5.09
2.51335	5.09
2.53002	5.09
2.54668	5.09
2.56335	5.09
2.58002	5.09
2.59668	5.09
2.61335	5.09
2.63002	5.09
2.64668	5.09
2.66335	5.09
2.68002	5.09
2.69668	5.09
2.71335	5.09
2.73002	5.09
2.74668	5.09
2.76335	5.09
2.78002	5.09
2.79668	5.09
2.81335	5.09
2.83002	5.09
2.84668	5.09
2.86335	5.09
2.88002	5.09
2.89668	5.09
2.91335	5.09
2.93002	5.09
2.94668	5.09
2.96335	5.09
2.98002	5.09
2.99668	5.08
3.01335	5.08
3.03002	5.08
3.04668	5.08
3.06335	5.08
3.08002	5.08
3.09668	5.08
3.11335	5.08
3.13002	5.08
3.14668	5.08
3.16335	5.08
3.18002	5.08
3.19668	5.08
3.21335	5.08
3.23002	5.08
3.24668	5.08
3.26335	5.08
3.28002	5.08
3.29668	5.08
3.31335	5.08
3.33002	5.09
3.34668	5.09
3.36335	5.08
3.38002	5.08
3.39668	5.08
3.41335	5.08
3.43002	5.08
3.44668	5.08
3.46335	5.08
3.48002	5.08
3.49668	5.08
3.51335	5.08
3.53002	5.08
3.54668	5.08
3.56335	5.08
3.58002	5.08
3.59668	5.08
3.61335	5.08
3.63002	5.08
3.64668	5.08
3.66335	5.08
3.68002	5.08
3.69668	5.08
3.71335	5.08
3.73002	5.08
3.74668	5.08
3.76335	5.08
3.78002	5.08
3.79668	5.08
3.81335	5.08
3.83002	5.08
3.84668	5.08
3.86335	5.08
3.88002	5.08
3.89668	5.08
3.91335	5.08
3.93002	5.08
3.94668	5.08
3.96335	5.08
3.98002	5.08
3.99668	5.08

[Status Trace (Linear Velocity)]
Interval(msec)	1000
# of Points	240
Start Time(min)	0.013
End Time(min)	3.997
Intensity Units	
Intensity Multiplier	1
R.Time (min)	Intensity
0.01335	38.96
0.03002	37.24
0.04668	38.86
0.06335	40.18
0.08002	39.55
0.09668	39.01
0.11335	39.01
0.13002	39.03
0.14668	39.03
0.16335	39.02
0.18002	39.02
0.19668	39.02
0.21335	39.02
0.23002	39.02
0.24668	39.02
0.26335	39.02
0.28002	39.02
0.29668	39.02
0.31335	39.02
0.33002	39.02
0.34668	39.02
0.36335	39.02
0.38002	39.02
0.39668	39.02
0.41335	39.02
0.43002	39.02
0.44668	39.02
0.46335	39.02
0.48002	39.02
0.49668	39.02
0.51335	39.02
0.53002	39.02
0.54668	39.02
0.56335	39.02
0.58002	39.02
0.59668	39.02
0.61335	39.02
0.63002	39.02
0.64668	39.02
0.66335	39.02
0.68002	39.02
0.69668	39.02
0.71335	39.02
0.73002	39.02
0.74668	39.02
0.76335	39.02
0.78002	39.02
0.79668	39.02
0.81335	39.02
0.83002	39.02
0.84668	39.02
0.86335	39.02
0.88002	39.02
0.89668	39.02
0.91335	39.02
0.93002	39.02
0.94668	39.02
0.96335	39.02
0.98002	39.02
0.99668	39.02
1.01335	39.02
1.03002	39.02
1.04668	39.02
1.06335	39.02
1.08002	39.02
1.09668	39.02
1.11335	39.02
1.13002	39.02
1.14668	39.02
1.16335	39.02
1.18002	39.02
1.19668	39.02
1.21335	39.02
1.23002	39.02
1.24668	39.02
1.26335	39.02
1.28002	39.02
1.29668	39.02
1.31335	39.02
1.33002	39.02
1.34668	39.02
1.36335	39.02
1.38002	39.02
1.39668	39.02
1.41335	39.02
1.43002	39.02
1.44668	39.02
1.46335	39.02
1.48002	39.02
1.49668	39.02
1.51335	39.02
1.53002	39.02
1.54668	39.02
1.56335	39.02
1.58002	39.02
1.59668	39.02
1.61335	39.01
1.63002	39.00
1.64668	38.98
1.66335	38.95
1.68002	38.92
1.69668	38.89
1.71335	38.85
1.73002	38.82
1.74668	38.79
1.76335	38.75
1.78002	38.72
1.79668	38.69
1.81335	38.66
1.83002	38.63
1.84668	38.59
1.86335	38.57
1.88002	38.53
1.89668	38.50
1.91335	38.47
1.93002	38.44
1.94668	38.41
1.96335	38.38
1.98002	38.35
1.99668	38.32
2.01335	38.29
2.03002	38.26
2.04668	38.23
2.06335	38.20
2.08002	38.17
2.09668	38.14
2.11335	38.11
2.13002	38.08
2.14668	38.05
2.16335	38.02
2.18002	37.99
2.19668	37.96
2.21335	37.93
2.23002	37.90
2.24668	37.88
2.26335	37.84
2.28002	37.81
2.29668	37.79
2.31335	37.76
2.33002	37.73
2.34668	37.70
2.36335	37.68
2.38002	37.66
2.39668	37.66
2.41335	37.66
2.43002	37.66
2.44668	37.66
2.46335	37.66
2.48002	37.66
2.49668	37.66
2.51335	37.65
2.53002	37.64
2.54668	37.65
2.56335	37.65
2.58002	37.65
2.59668	37.65
2.61335	37.65
2.63002	37.65
2.64668	37.65
2.66335	37.65
2.68002	37.65
2.69668	37.65
2.71335	37.65
2.73002	37.65
2.74668	37.65
2.76335	37.65
2.78002	37.64
2.79668	37.64
2.81335	37.64
2.83002	37.64
2.84668	37.64
2.86335	37.64
2.88002	37.64
2.89668	37.64
2.91335	37.64
2.93002	37.63
2.94668	37.63
2.96335	37.63
2.98002	37.63
2.99668	37.63
3.01335	37.63
3.03002	37.63
3.04668	37.63
3.06335	37.63
3.08002	37.63
3.09668	37.63
3.11335	37.63
3.13002	37.63
3.14668	37.62
3.16335	37.62
3.18002	37.63
3.19668	37.63
3.21335	37.63
3.23002	37.63
3.24668	37.63
3.26335	37.63
3.28002	37.63
3.29668	37.63
3.31335	37.63
3.33002	37.63
3.34668	37.63
3.36335	37.63
3.38002	37.63
3.39668	37.63
3.41335	37.63
3.43002	37.63
3.44668	37.63
3.46335	37.63
3.48002	37.63
3.49668	37.63
3.51335	37.63
3.53002	37.63
3.54668	37.63
3.56335	37.63
3.58002	37.63
3.59668	37.63
3.61335	37.63
3.63002	37.63
3.64668	37.63
3.66335	37.63
3.68002	37.63
3.69668	37.63
3.71335	37.63
3.73002	37.63
3.74668	37.63
3.76335	37.63
3.78002	37.63
3.79668	37.63
3.81335	37.63
3.83002	37.63
3.84668	37.63
3.86335	37.63
3.88002	37.63
3.89668	37.63
3.91335	37.63
3.93002	37.63
3.94668	37.63
3.96335	37.63
3.98002	37.63
3.99668	37.63

