[Header]
Application Name	LabSolutions
Version	5.110
Data File Name	C:\Users\User\Desktop\Junior\UIC Prairie Sampling\2023\8.18.23\081823_027.gcd
Output Date	8/31/2023
Output Time	12:48:08 PM

[File Information]
Type	Data File
Generated	8/30/2023 7:00:12 PM
Generated by	System Administrator
Modified	8/30/2023 7:06:34 PM
Modified by	System Administrator

[Sample Information]
Operator Name	System Administrator
Acquired	8/30/2023 7:02:33 PM
Sample Type	0:Unknown
Level	0
Sample Name	027
Sample ID	027
ISTD Amount1	1
ISTD Amount2	1
ISTD Amount3	1
ISTD Amount4	1
ISTD Amount5	1
ISTD Amount6	1
ISTD Amount7	1
ISTD Amount8	1
ISTD Amount9	1
ISTD Amount10	1
ISTD Amount11	1
ISTD Amount12	1
ISTD Amount13	1
ISTD Amount14	1
ISTD Amount15	1
ISTD Amount16	1
ISTD Amount17	1
ISTD Amount18	1
ISTD Amount19	1
ISTD Amount20	1
ISTD Amount21	1
ISTD Amount22	1
ISTD Amount23	1
ISTD Amount24	1
ISTD Amount25	1
ISTD Amount26	1
ISTD Amount27	1
ISTD Amount28	1
ISTD Amount29	1
ISTD Amount30	1
ISTD Amount31	1
ISTD Amount32	1
Sample Amount	1
Dilution Factor	1
Vial#	26
Injection Volume	1
Injection Count	1
Bar Code	

[Original Files]
Data File	C:\Users\User\Desktop\Junior\UIC Prairie Sampling\8.18.23\081823_027.gcd
Method File	C:\LabSolutions\Data\GHG_4min_2022\ghg3_togas_w_acet_4 min_new_int.gcm
Batch File	C:\LabSolutions\Data\BATCH FILES\081823.gcb
Report Format File	c:\LabSolutions\System\DEFAULT.lsr

[File Description]


[Configuration]
Instrument Name	C0B7VH3-Instrument1
Instrument #	1
Line #	1
# of Detectors	3
Detector ID	DET#1	DET#2	DET#3
Detector Name	FID	PTCD	ECD
# of Channels	1	1	1

[Peak Table(Ch1)]
# of Peaks	3
Peak#	R.Time	I.Time	F.Time	Area	Height	A/H	Conc.	Mark	ID#	Name	k'	Plate #	Plate Ht.	Tailing	Resolution	Sep.Factor	Area Ratio	Height Ratio	Conc. %	Norm Conc.
1	1.494	1.468	1.527	954	354	2.693	0.000	   	1	CO	0.000	2503	59.930	0.000	0.000	0.000	0	0	0.000	0.000
2	1.564	1.527	1.641	5177	2371	2.183	25.238	 V 	2	CH4	0.047	10079	14.882	0.000	0.767	0.000	0	0	13.478	13.478
3	1.989	1.941	2.502	840678	400870	2.097	162.014	   	3	CO2	0.331	17544	8.550	1.311	6.952	7.105	0	0	86.522	86.522

[Peak Table(Ch2)]
# of Peaks	0

[Peak Table(Ch3)]
# of Peaks	5
Peak#	R.Time	I.Time	F.Time	Area	Height	A/H	Conc.	Mark	ID#	Name	k'	Plate #	Plate Ht.	Tailing	Resolution	Sep.Factor	Area Ratio	Height Ratio	Conc. %	Norm Conc.
1	2.458	2.315	2.510	1061	329	3.226	0.000	   			0.000	11371	13.192	0.000	0.000	0.000	0	0	0.000	0.000
2	2.521	2.510	2.576	387	147	2.638	0.000	 V 			0.025	2868	52.308	0.000	0.444	0.000	0	0	0.000	0.000
3	2.623	2.576	2.693	461	120	3.840	0.000	 V 			0.067	8646	17.349	0.000	0.682	2.647	0	0	0.000	0.000
4	2.891	2.752	3.056	14407	3942	3.655	0.213	   	1	N2O	0.176	14086	10.649	1.476	2.546	2.622	0	0	100.000	100.000
5	3.210	3.126	3.965	22662	928	24.415	0.000	   	2	SF6	0.306	268	560.161	4.998	0.723	1.737	0	0	0.000	0.000

[Compound Results(Ch1)]
# of IDs	6
ID#	Name	R.Time	Area	Height	Conc.	Curve	3rd	2nd	1st	Constant	Area Ratio	Height Ratio	Conc. %	Norm Conc.
1	CO	1.494	954	354	0.000	Linear	0.000000e+00	0.000000e+00	0.000000e+00	0.000000e+00	0	0	0.000	0.000
2	CH4	1.564	5177	2371	25.238	Linear	0.000000e+00	0.000000e+00	2.051179e+002	0.000000e+00	0	0	13.478	13.478
3	CO2	1.989	840678	400870	162.014	Linear	0.000000e+00	0.000000e+00	5.188919e+003	0.000000e+00	0	0	86.522	86.522
4	Ethylene	0.000	0	0	0.000	Linear	0.000000e+00	0.000000e+00	0.000000e+00	0.000000e+00	0	0	0.000	0.000
5	Acetylene	0.000	0	0	0.000	Linear	0.000000e+00	0.000000e+00	0.000000e+00	0.000000e+00	0	0	0.000	0.000
6	Ethane	0.000	0	0	0.000	Linear	0.000000e+00	0.000000e+00	0.000000e+00	0.000000e+00	0	0	0.000	0.000

[Compound Results(Ch2)]
# of IDs	5
ID#	Name	R.Time	Area	Height	Conc.	Curve	3rd	2nd	1st	Constant	Area Ratio	Height Ratio	Conc. %	Norm Conc.
1	Hydrogen	0.000	0	0	0.000	Linear	0.000000e+00	0.000000e+00	0.000000e+00	0.000000e+00	0	0	0.000	0.000
2	Oxygen	0.000	0	0	0.000	Linear	0.000000e+00	0.000000e+00	0.000000e+00	0.000000e+00	0	0	0.000	0.000
3	Nitrogen	0.000	0	0	0.000	Linear	0.000000e+00	0.000000e+00	0.000000e+00	0.000000e+00	0	0	0.000	0.000
4	Methane	0.000	0	0	0.000	Linear	0.000000e+00	0.000000e+00	0.000000e+00	0.000000e+00	0	0	0.000	0.000
5	Carbon Monoxide	0.000	0	0	0.000	Linear	0.000000e+00	0.000000e+00	0.000000e+00	0.000000e+00	0	0	0.000	0.000

[Compound Results(Ch3)]
# of IDs	2
ID#	Name	R.Time	Area	Height	Conc.	Curve	3rd	2nd	1st	Constant	Area Ratio	Height Ratio	Conc. %	Norm Conc.
1	N2O	2.891	14407	3942	0.213	Linear	0.000000e+00	0.000000e+00	6.759880e+004	0.000000e+00	0	0	100.000	100.000
2	SF6	3.210	22662	928	0.000	Linear	0.000000e+00	0.000000e+00	0.000000e+00	0.000000e+00	0	0	0.000	0.000

[Group Results(Ch1)]
# of Groups	0

[Group Results(Ch2)]
# of Groups	0

[Group Results(Ch3)]
# of Groups	0

[Chromatogram (Ch1)]
Interval(msec)	220
# of Points	1091
Start Time(min)	0.002
End Time(min)	3.998
R.Time (min)	Intensity
0.00167	-3
0.00533	3
0.00900	8
0.01267	12
0.01633	16
0.02000	17
0.02367	14
0.02733	9
0.03100	5
0.03467	0
0.03833	-6
0.04200	-12
0.04567	-15
0.04933	-12
0.05300	-5
0.05667	4
0.06033	10
0.06400	17
0.06767	20
0.07133	19
0.07500	16
0.07867	11
0.08233	3
0.08600	-5
0.08967	-10
0.09333	-10
0.09700	-8
0.10067	-3
0.10433	1
0.10800	2
0.11167	2
0.11533	4
0.11900	8
0.12267	8
0.12633	5
0.13000	2
0.13367	-0
0.13733	-2
0.14100	-3
0.14467	-4
0.14833	-1
0.15200	2
0.15567	3
0.15933	-1
0.16300	-8
0.16667	-13
0.17033	-15
0.17400	-14
0.17767	-10
0.18133	-6
0.18500	-5
0.18867	-3
0.19233	-1
0.19600	-2
0.19967	-4
0.20333	-5
0.20700	-2
0.21067	-5
0.21433	-9
0.21800	-9
0.22167	-9
0.22533	-9
0.22900	-11
0.23267	-13
0.23633	-16
0.24000	-16
0.24367	-13
0.24733	-8
0.25100	-4
0.25467	-3
0.25833	-2
0.26200	-3
0.26567	-3
0.26933	-4
0.27300	-5
0.27667	-5
0.28033	-4
0.28400	-8
0.28767	-13
0.29133	-17
0.29500	-21
0.29867	-21
0.30233	-19
0.30600	-17
0.30967	-17
0.31333	-17
0.31700	-16
0.32067	-14
0.32433	-13
0.32800	-10
0.33167	-5
0.33533	-2
0.33900	2
0.34267	5
0.34633	5
0.35000	4
0.35367	4
0.35733	5
0.36100	7
0.36467	8
0.36833	5
0.37200	0
0.37567	-2
0.37933	-3
0.38300	1
0.38667	5
0.39033	8
0.39400	9
0.39767	9
0.40133	10
0.40500	12
0.40867	12
0.41233	12
0.41600	13
0.41967	13
0.42333	9
0.42700	3
0.43067	-3
0.43433	-6
0.43800	-10
0.44167	-11
0.44533	-13
0.44900	-14
0.45267	-12
0.45633	-7
0.46000	-2
0.46367	4
0.46733	7
0.47100	8
0.47467	11
0.47833	12
0.48200	14
0.48567	18
0.48933	27
0.49300	35
0.49667	37
0.50033	37
0.50400	34
0.50767	28
0.51133	23
0.51500	20
0.51867	16
0.52233	11
0.52600	7
0.52967	5
0.53333	4
0.53700	4
0.54067	4
0.54433	4
0.54800	1
0.55167	2
0.55533	5
0.55900	8
0.56267	10
0.56633	14
0.57000	20
0.57367	26
0.57733	28
0.58100	27
0.58467	26
0.58833	25
0.59200	20
0.59567	13
0.59933	6
0.60300	1
0.60667	-2
0.61033	-4
0.61400	-5
0.61767	-5
0.62133	-3
0.62500	2
0.62867	8
0.63233	13
0.63600	17
0.63967	16
0.64333	14
0.64700	12
0.65067	15
0.65433	18
0.65800	17
0.66167	13
0.66533	9
0.66900	5
0.67267	1
0.67633	1
0.68000	1
0.68367	-1
0.68733	-4
0.69100	-4
0.69467	-3
0.69833	-4
0.70200	-7
0.70567	-8
0.70933	-8
0.71300	-6
0.71667	-1
0.72033	5
0.72400	11
0.72767	19
0.73133	24
0.73500	24
0.73867	21
0.74233	17
0.74600	18
0.74967	20
0.75333	22
0.75700	18
0.76067	9
0.76433	0
0.76800	-3
0.77167	-2
0.77533	2
0.77900	6
0.78267	7
0.78633	5
0.79000	2
0.79367	3
0.79733	8
0.80100	14
0.80467	19
0.80833	20
0.81200	17
0.81567	11
0.81933	5
0.82300	2
0.82667	0
0.83033	-2
0.83400	-5
0.83767	-9
0.84133	-10
0.84500	-9
0.84867	-6
0.85233	-1
0.85600	2
0.85967	2
0.86333	1
0.86700	-2
0.87067	-4
0.87433	-5
0.87800	-4
0.88167	1
0.88533	7
0.88900	13
0.89267	15
0.89633	16
0.90000	18
0.90367	20
0.90733	19
0.91100	16
0.91467	16
0.91833	15
0.92200	14
0.92567	9
0.92933	3
0.93300	-1
0.93667	-1
0.94033	2
0.94400	8
0.94767	15
0.95133	18
0.95500	14
0.95867	7
0.96233	-2
0.96600	-11
0.96967	-18
0.97333	-24
0.97700	-26
0.98067	-27
0.98433	-26
0.98800	-24
0.99167	-21
0.99533	-18
0.99900	-17
1.00267	-19
1.00633	-23
1.01000	-26
1.01367	-25
1.01733	-19
1.02100	-12
1.02467	-7
1.02833	-3
1.03200	0
1.03567	1
1.03933	1
1.04300	3
1.04667	6
1.05033	9
1.05400	9
1.05767	6
1.06133	3
1.06500	-2
1.06867	-6
1.07233	-8
1.07600	-8
1.07967	-5
1.08333	-1
1.08700	0
1.09067	1
1.09433	-3
1.09800	-9
1.10167	-16
1.10533	-21
1.10900	-25
1.11267	-29
1.11633	-31
1.12000	-32
1.12367	-34
1.12733	-33
1.13100	-33
1.13467	-30
1.13833	-25
1.14200	-22
1.14567	-19
1.14933	-18
1.15300	-18
1.15667	-18
1.16033	-17
1.16400	-12
1.16767	-8
1.17133	-5
1.17500	-2
1.17867	0
1.18233	2
1.18600	-0
1.18967	-6
1.19333	-12
1.19700	-15
1.20067	-15
1.20433	-16
1.20800	-15
1.21167	-13
1.21533	-13
1.21900	-16
1.22267	-20
1.22633	-25
1.23000	-31
1.23367	-35
1.23733	-39
1.24100	-40
1.24467	-40
1.24833	-37
1.25200	-30
1.25567	-20
1.25933	-11
1.26300	-5
1.26667	-2
1.27033	-0
1.27400	-4
1.27767	-13
1.28133	-22
1.28500	-28
1.28867	-34
1.29233	-41
1.29600	-45
1.29967	-43
1.30333	-40
1.30700	-36
1.31067	-33
1.31433	-29
1.31800	-26
1.32167	-26
1.32533	-28
1.32900	-28
1.33267	-25
1.33633	-22
1.34000	-22
1.34367	-27
1.34733	-34
1.35100	-38
1.35467	-39
1.35833	-38
1.36200	-39
1.36567	-40
1.36933	-38
1.37300	-32
1.37667	-24
1.38033	-18
1.38400	-14
1.38767	-16
1.39133	-18
1.39500	-21
1.39867	-27
1.40233	-33
1.40600	-38
1.40967	-41
1.41333	-41
1.41700	-35
1.42067	-25
1.42433	-16
1.42800	-11
1.43167	-6
1.43533	1
1.43900	3
1.44267	-34
1.44633	-127
1.45000	-239
1.45367	-340
1.45733	-415
1.46100	-455
1.46467	-452
1.46833	-408
1.47200	-332
1.47567	-241
1.47933	-156
1.48300	-91
1.48667	-45
1.49033	-15
1.49400	2
1.49767	9
1.50133	9
1.50500	3
1.50867	-4
1.51233	-12
1.51600	-20
1.51967	-26
1.52333	-31
1.52700	-35
1.53067	-28
1.53433	18
1.53800	159
1.54167	441
1.54533	841
1.54900	1280
1.55267	1671
1.55633	1968
1.56000	2142
1.56367	2171
1.56733	2033
1.57100	1751
1.57467	1392
1.57833	1037
1.58200	737
1.58567	502
1.58933	332
1.59300	213
1.59667	133
1.60033	80
1.60400	44
1.60767	20
1.61133	2
1.61500	-12
1.61867	-24
1.62233	-34
1.62600	-41
1.62967	-42
1.63333	-40
1.63700	-36
1.64067	-33
1.64433	-28
1.64800	-24
1.65167	-22
1.65533	-21
1.65900	-24
1.66267	-30
1.66633	-35
1.67000	-40
1.67367	-47
1.67733	-53
1.68100	-53
1.68467	-49
1.68833	-42
1.69200	-33
1.69567	-28
1.69933	-27
1.70300	-30
1.70667	-34
1.71033	-35
1.71400	-34
1.71767	-33
1.72133	-33
1.72500	-35
1.72867	-38
1.73233	-42
1.73600	-45
1.73967	-44
1.74333	-42
1.74700	-39
1.75067	-34
1.75433	-30
1.75800	-31
1.76167	-35
1.76533	-36
1.76900	-35
1.77267	-34
1.77633	-37
1.78000	-42
1.78367	-47
1.78733	-49
1.79100	-48
1.79467	-42
1.79833	-34
1.80200	-30
1.80567	-30
1.80933	-34
1.81300	-41
1.81667	-49
1.82033	-51
1.82400	-51
1.82767	-50
1.83133	-44
1.83500	-35
1.83867	-26
1.84233	-17
1.84600	-10
1.84967	-4
1.85333	-2
1.85700	1
1.86067	2
1.86433	-0
1.86800	-4
1.87167	-9
1.87533	-15
1.87900	-22
1.88267	-28
1.88633	-34
1.89000	-38
1.89367	-37
1.89733	-33
1.90100	-26
1.90467	-21
1.90833	-24
1.91200	-28
1.91567	-33
1.91933	-36
1.92300	-39
1.92667	-41
1.93033	-41
1.93400	-39
1.93767	-39
1.94133	-37
1.94500	-25
1.94867	41
1.95233	402
1.95600	2065
1.95967	7916
1.96333	23536
1.96700	55946
1.97067	109015
1.97433	179147
1.97800	255625
1.98167	325124
1.98533	376152
1.98900	400849
1.99267	395761
1.99633	363292
2.00000	311420
2.00367	251056
2.00733	192244
2.01100	141462
2.01467	101238
2.01833	71278
2.02200	49897
2.02567	35063
2.02933	24951
2.03300	18118
2.03667	13506
2.04033	10375
2.04400	8221
2.04767	6712
2.05133	5629
2.05500	4832
2.05867	4228
2.06233	3758
2.06600	3383
2.06967	3077
2.07333	2825
2.07700	2617
2.08067	2440
2.08433	2288
2.08800	2155
2.09167	2030
2.09533	1916
2.09900	1813
2.10267	1719
2.10633	1634
2.11000	1555
2.11367	1488
2.11733	1429
2.12100	1375
2.12467	1323
2.12833	1273
2.13200	1226
2.13567	1182
2.13933	1140
2.14300	1097
2.14667	1054
2.15033	1016
2.15400	982
2.15767	953
2.16133	926
2.16500	897
2.16867	869
2.17233	843
2.17600	820
2.17967	800
2.18333	778
2.18700	756
2.19067	735
2.19433	713
2.19800	692
2.20167	674
2.20533	654
2.20900	634
2.21267	616
2.21633	598
2.22000	577
2.22367	559
2.22733	549
2.23100	543
2.23467	533
2.23833	522
2.24200	512
2.24567	503
2.24933	496
2.25300	490
2.25667	485
2.26033	479
2.26400	471
2.26767	463
2.27133	452
2.27500	440
2.27867	429
2.28233	418
2.28600	409
2.28967	402
2.29333	394
2.29700	383
2.30067	371
2.30433	361
2.30800	355
2.31167	352
2.31533	349
2.31900	344
2.32267	341
2.32633	336
2.33000	325
2.33367	313
2.33733	302
2.34100	292
2.34467	281
2.34833	274
2.35200	271
2.35567	269
2.35933	266
2.36300	261
2.36667	255
2.37033	250
2.37400	246
2.37767	245
2.38133	245
2.38500	243
2.38867	238
2.39233	232
2.39600	226
2.39967	218
2.40333	213
2.40700	210
2.41067	210
2.41433	213
2.41800	217
2.42167	219
2.42533	219
2.42900	220
2.43267	222
2.43633	218
2.44000	211
2.44367	204
2.44733	200
2.45100	198
2.45467	196
2.45833	191
2.46200	186
2.46567	180
2.46933	177
2.47300	177
2.47667	177
2.48033	178
2.48400	179
2.48767	175
2.49133	167
2.49500	158
2.49867	152
2.50233	147
2.50600	147
2.50967	151
2.51333	152
2.51700	151
2.52067	150
2.52433	149
2.52800	150
2.53167	150
2.53533	150
2.53900	150
2.54267	150
2.54633	150
2.55000	149
2.55367	146
2.55733	140
2.56100	135
2.56467	130
2.56833	126
2.57200	122
2.57567	121
2.57933	121
2.58300	118
2.58667	118
2.59033	119
2.59400	117
2.59767	115
2.60133	114
2.60500	113
2.60867	111
2.61233	109
2.61600	108
2.61967	108
2.62333	108
2.62700	107
2.63067	103
2.63433	94
2.63800	85
2.64167	79
2.64533	77
2.64900	77
2.65267	78
2.65633	79
2.66000	82
2.66367	85
2.66733	85
2.67100	82
2.67467	76
2.67833	72
2.68200	72
2.68567	73
2.68933	72
2.69300	72
2.69667	71
2.70033	70
2.70400	68
2.70767	68
2.71133	69
2.71500	73
2.71867	74
2.72233	75
2.72600	76
2.72967	74
2.73333	69
2.73700	61
2.74067	55
2.74433	52
2.74800	50
2.75167	49
2.75533	48
2.75900	50
2.76267	50
2.76633	48
2.77000	45
2.77367	42
2.77733	40
2.78100	40
2.78467	42
2.78833	45
2.79200	46
2.79567	45
2.79933	43
2.80300	39
2.80667	34
2.81033	34
2.81400	35
2.81767	38
2.82133	40
2.82500	39
2.82867	37
2.83233	37
2.83600	38
2.83967	38
2.84333	38
2.84700	37
2.85067	39
2.85433	44
2.85800	48
2.86167	49
2.86533	46
2.86900	44
2.87267	42
2.87633	40
2.88000	36
2.88367	32
2.88733	30
2.89100	30
2.89467	27
2.89833	26
2.90200	25
2.90567	24
2.90933	22
2.91300	19
2.91667	19
2.92033	19
2.92400	22
2.92767	24
2.93133	24
2.93500	23
2.93867	24
2.94233	25
2.94600	23
2.94967	19
2.95333	14
2.95700	12
2.96067	14
2.96433	19
2.96800	26
2.97167	31
2.97533	36
2.97900	38
2.98267	36
2.98633	28
2.99000	22
2.99367	17
2.99733	12
3.00100	10
3.00467	9
3.00833	10
3.01200	9
3.01567	10
3.01933	12
3.02300	12
3.02667	11
3.03033	12
3.03400	15
3.03767	19
3.04133	23
3.04500	24
3.04867	22
3.05233	20
3.05600	17
3.05967	12
3.06333	7
3.06700	6
3.07067	7
3.07433	9
3.07800	12
3.08167	12
3.08533	10
3.08900	10
3.09267	8
3.09633	4
3.10000	3
3.10367	2
3.10733	0
3.11100	-4
3.11467	-9
3.11833	-14
3.12200	-15
3.12567	-12
3.12933	-4
3.13300	5
3.13667	8
3.14033	7
3.14400	6
3.14767	4
3.15133	4
3.15500	8
3.15867	11
3.16233	12
3.16600	10
3.16967	8
3.17333	7
3.17700	7
3.18067	4
3.18433	0
3.18800	-2
3.19167	-5
3.19533	-6
3.19900	-9
3.20267	-9
3.20633	-8
3.21000	-8
3.21367	-10
3.21733	-9
3.22100	-9
3.22467	-8
3.22833	-4
3.23200	2
3.23567	7
3.23933	11
3.24300	10
3.24667	6
3.25033	2
3.25400	-1
3.25767	-0
3.26133	4
3.26500	6
3.26867	5
3.27233	-2
3.27600	-9
3.27967	-11
3.28333	-9
3.28700	-6
3.29067	-5
3.29433	-6
3.29800	-7
3.30167	-6
3.30533	-7
3.30900	-5
3.31267	-4
3.31633	-4
3.32000	-2
3.32367	3
3.32733	8
3.33100	6
3.33467	1
3.33833	-5
3.34200	-9
3.34567	-11
3.34933	-11
3.35300	-11
3.35667	-10
3.36033	-5
3.36400	-1
3.36767	3
3.37133	9
3.37500	15
3.37867	16
3.38233	14
3.38600	11
3.38967	5
3.39333	-3
3.39700	-10
3.40067	-16
3.40433	-19
3.40800	-23
3.41167	-26
3.41533	-28
3.41900	-27
3.42267	-27
3.42633	-28
3.43000	-26
3.43367	-24
3.43733	-19
3.44100	-13
3.44467	-8
3.44833	-7
3.45200	-9
3.45567	-13
3.45933	-16
3.46300	-18
3.46667	-17
3.47033	-16
3.47400	-14
3.47767	-12
3.48133	-12
3.48500	-12
3.48867	-9
3.49233	-7
3.49600	-5
3.49967	-4
3.50333	-7
3.50700	-15
3.51067	-22
3.51433	-25
3.51800	-27
3.52167	-29
3.52533	-28
3.52900	-24
3.53267	-21
3.53633	-19
3.54000	-15
3.54367	-9
3.54733	-4
3.55100	-3
3.55467	-7
3.55833	-14
3.56200	-22
3.56567	-28
3.56933	-29
3.57300	-26
3.57667	-24
3.58033	-27
3.58400	-32
3.58767	-36
3.59133	-38
3.59500	-38
3.59867	-36
3.60233	-30
3.60600	-24
3.60967	-17
3.61333	-11
3.61700	-8
3.62067	-7
3.62433	-8
3.62800	-9
3.63167	-12
3.63533	-18
3.63900	-25
3.64267	-31
3.64633	-36
3.65000	-41
3.65367	-41
3.65733	-36
3.66100	-30
3.66467	-23
3.66833	-17
3.67200	-12
3.67567	-11
3.67933	-13
3.68300	-17
3.68667	-21
3.69033	-24
3.69400	-26
3.69767	-29
3.70133	-31
3.70500	-33
3.70867	-34
3.71233	-35
3.71600	-34
3.71967	-33
3.72333	-28
3.72700	-21
3.73067	-15
3.73433	-14
3.73800	-15
3.74167	-13
3.74533	-8
3.74900	-3
3.75267	-0
3.75633	-1
3.76000	-2
3.76367	-3
3.76733	-2
3.77100	-3
3.77467	-7
3.77833	-12
3.78200	-18
3.78567	-27
3.78933	-33
3.79300	-38
3.79667	-39
3.80033	-39
3.80400	-37
3.80767	-35
3.81133	-35
3.81500	-37
3.81867	-40
3.82233	-44
3.82600	-46
3.82967	-46
3.83333	-46
3.83700	-47
3.84067	-47
3.84433	-43
3.84800	-37
3.85167	-29
3.85533	-26
3.85900	-25
3.86267	-23
3.86633	-22
3.87000	-24
3.87367	-24
3.87733	-24
3.88100	-25
3.88467	-27
3.88833	-30
3.89200	-35
3.89567	-40
3.89933	-45
3.90300	-50
3.90667	-52
3.91033	-52
3.91400	-49
3.91767	-46
3.92133	-45
3.92500	-44
3.92867	-40
3.93233	-38
3.93600	-38
3.93967	-38
3.94333	-38
3.94700	-38
3.95067	-39
3.95433	-41
3.95800	-40
3.96167	-37
3.96533	-36
3.96900	-35
3.97267	-37
3.97633	-41
3.98000	-42
3.98367	-42
3.98733	-40
3.99100	-38
3.99467	-36
3.99833	-37

[Chromatogram (Ch2)]
Interval(msec)	220
# of Points	1091
Start Time(min)	0.002
End Time(min)	3.998
R.Time (min)	Intensity
0.00167	1
0.00533	1
0.00900	1
0.01267	1
0.01633	0
0.02000	0
0.02367	0
0.02733	0
0.03100	0
0.03467	-0
0.03833	-0
0.04200	-0
0.04567	-0
0.04933	-1
0.05300	-1
0.05667	-0
0.06033	-0
0.06400	-0
0.06767	-0
0.07133	-0
0.07500	0
0.07867	0
0.08233	0
0.08600	0
0.08967	0
0.09333	1
0.09700	1
0.10067	1
0.10433	1
0.10800	1
0.11167	1
0.11533	1
0.11900	1
0.12267	1
0.12633	1
0.13000	1
0.13367	0
0.13733	0
0.14100	0
0.14467	0
0.14833	0
0.15200	0
0.15567	0
0.15933	-0
0.16300	-0
0.16667	-0
0.17033	-0
0.17400	-0
0.17767	-0
0.18133	-0
0.18500	-0
0.18867	-0
0.19233	-1
0.19600	-1
0.19967	-1
0.20333	-1
0.20700	-1
0.21067	-1
0.21433	-1
0.21800	-1
0.22167	-1
0.22533	-2
0.22900	-2
0.23267	-2
0.23633	-2
0.24000	-1
0.24367	-1
0.24733	-1
0.25100	-1
0.25467	-1
0.25833	-1
0.26200	-1
0.26567	-0
0.26933	-0
0.27300	-0
0.27667	0
0.28033	0
0.28400	0
0.28767	0
0.29133	0
0.29500	0
0.29867	0
0.30233	-0
0.30600	-0
0.30967	-1
0.31333	-1
0.31700	-1
0.32067	-2
0.32433	-2
0.32800	-2
0.33167	-2
0.33533	-2
0.33900	-2
0.34267	-2
0.34633	-2
0.35000	-2
0.35367	-2
0.35733	-2
0.36100	-2
0.36467	-2
0.36833	-2
0.37200	-2
0.37567	-2
0.37933	-1
0.38300	-1
0.38667	-1
0.39033	-1
0.39400	-1
0.39767	-1
0.40133	-1
0.40500	-1
0.40867	-1
0.41233	-1
0.41600	-1
0.41967	-1
0.42333	-1
0.42700	-1
0.43067	-1
0.43433	-0
0.43800	-0
0.44167	-0
0.44533	-0
0.44900	-0
0.45267	-0
0.45633	-0
0.46000	-0
0.46367	-0
0.46733	-0
0.47100	-0
0.47467	-0
0.47833	0
0.48200	0
0.48567	0
0.48933	-0
0.49300	-0
0.49667	-1
0.50033	-1
0.50400	-1
0.50767	-1
0.51133	-1
0.51500	-1
0.51867	-1
0.52233	-1
0.52600	-1
0.52967	-1
0.53333	-1
0.53700	-2
0.54067	-2
0.54433	-2
0.54800	-2
0.55167	-2
0.55533	-2
0.55900	-2
0.56267	-2
0.56633	-2
0.57000	-2
0.57367	-2
0.57733	-2
0.58100	-2
0.58467	-2
0.58833	-2
0.59200	-2
0.59567	-2
0.59933	-2
0.60300	-2
0.60667	-2
0.61033	-2
0.61400	-2
0.61767	-2
0.62133	-1
0.62500	-1
0.62867	-1
0.63233	-2
0.63600	-2
0.63967	-2
0.64333	-2
0.64700	-2
0.65067	-2
0.65433	-2
0.65800	-3
0.66167	-3
0.66533	-3
0.66900	-3
0.67267	-2
0.67633	-2
0.68000	-2
0.68367	-2
0.68733	-2
0.69100	-2
0.69467	-2
0.69833	-1
0.70200	-1
0.70567	-1
0.70933	-1
0.71300	-1
0.71667	-1
0.72033	-1
0.72400	-1
0.72767	-1
0.73133	-1
0.73500	-1
0.73867	-1
0.74233	-1
0.74600	-1
0.74967	-1
0.75333	-1
0.75700	-1
0.76067	-1
0.76433	-1
0.76800	-1
0.77167	-1
0.77533	-1
0.77900	-1
0.78267	-1
0.78633	-1
0.79000	-2
0.79367	-2
0.79733	-2
0.80100	-2
0.80467	-2
0.80833	-2
0.81200	-2
0.81567	-2
0.81933	-2
0.82300	-2
0.82667	-2
0.83033	-2
0.83400	-2
0.83767	-2
0.84133	-2
0.84500	-2
0.84867	-2
0.85233	-2
0.85600	-3
0.85967	-3
0.86333	-3
0.86700	-4
0.87067	-4
0.87433	-3
0.87800	-3
0.88167	-3
0.88533	-3
0.88900	-3
0.89267	-3
0.89633	-2
0.90000	-2
0.90367	-2
0.90733	-2
0.91100	-2
0.91467	-2
0.91833	-2
0.92200	-2
0.92567	-2
0.92933	-2
0.93300	-2
0.93667	-2
0.94033	-2
0.94400	-2
0.94767	-2
0.95133	-2
0.95500	-2
0.95867	-2
0.96233	-3
0.96600	-3
0.96967	-3
0.97333	-3
0.97700	-4
0.98067	-4
0.98433	-4
0.98800	-4
0.99167	-4
0.99533	-3
0.99900	-3
1.00267	-2
1.00633	-2
1.01000	-2
1.01367	-2
1.01733	-2
1.02100	-1
1.02467	-1
1.02833	-1
1.03200	-2
1.03567	-2
1.03933	-2
1.04300	-2
1.04667	-2
1.05033	-2
1.05400	-2
1.05767	-2
1.06133	-2
1.06500	-2
1.06867	-2
1.07233	-2
1.07600	-2
1.07967	-2
1.08333	-2
1.08700	-2
1.09067	-2
1.09433	-2
1.09800	-2
1.10167	-1
1.10533	-1
1.10900	-1
1.11267	-1
1.11633	-2
1.12000	-2
1.12367	-2
1.12733	-2
1.13100	-1
1.13467	-1
1.13833	-1
1.14200	-1
1.14567	-2
1.14933	-2
1.15300	-2
1.15667	-2
1.16033	-2
1.16400	-2
1.16767	-2
1.17133	-2
1.17500	-2
1.17867	-2
1.18233	-2
1.18600	-2
1.18967	-2
1.19333	-2
1.19700	-2
1.20067	-2
1.20433	-2
1.20800	-2
1.21167	-2
1.21533	-2
1.21900	-2
1.22267	-3
1.22633	-3
1.23000	-3
1.23367	-3
1.23733	-2
1.24100	-2
1.24467	-2
1.24833	-2
1.25200	-2
1.25567	-2
1.25933	-2
1.26300	-2
1.26667	-2
1.27033	-2
1.27400	-2
1.27767	-2
1.28133	-2
1.28500	-2
1.28867	-2
1.29233	-2
1.29600	-3
1.29967	-3
1.30333	-3
1.30700	-3
1.31067	-3
1.31433	-3
1.31800	-3
1.32167	-3
1.32533	-3
1.32900	-3
1.33267	-3
1.33633	-3
1.34000	-3
1.34367	-3
1.34733	-3
1.35100	-2
1.35467	-3
1.35833	-3
1.36200	-3
1.36567	-3
1.36933	-3
1.37300	-3
1.37667	-3
1.38033	-3
1.38400	-3
1.38767	-3
1.39133	-3
1.39500	-3
1.39867	-3
1.40233	-3
1.40600	-3
1.40967	-3
1.41333	-4
1.41700	-4
1.42067	-4
1.42433	-4
1.42800	-4
1.43167	-4
1.43533	-4
1.43900	-4
1.44267	-5
1.44633	-5
1.45000	-4
1.45367	-4
1.45733	-4
1.46100	-4
1.46467	-4
1.46833	-4
1.47200	-4
1.47567	-4
1.47933	-4
1.48300	-5
1.48667	-5
1.49033	-5
1.49400	-4
1.49767	-4
1.50133	-4
1.50500	-4
1.50867	-3
1.51233	-3
1.51600	-3
1.51967	-3
1.52333	-2
1.52700	-2
1.53067	-2
1.53433	-2
1.53800	-3
1.54167	-3
1.54533	-3
1.54900	-3
1.55267	-3
1.55633	-3
1.56000	-3
1.56367	-3
1.56733	-3
1.57100	-3
1.57467	-3
1.57833	-3
1.58200	-3
1.58567	-3
1.58933	-4
1.59300	-4
1.59667	-5
1.60033	-6
1.60400	-7
1.60767	-8
1.61133	-10
1.61500	-12
1.61867	-14
1.62233	-17
1.62600	-19
1.62967	-22
1.63333	-25
1.63700	-28
1.64067	-31
1.64433	-35
1.64800	-38
1.65167	-41
1.65533	-45
1.65900	-48
1.66267	-51
1.66633	-55
1.67000	-59
1.67367	-64
1.67733	-68
1.68100	-73
1.68467	-77
1.68833	-81
1.69200	-84
1.69567	-87
1.69933	-90
1.70300	-92
1.70667	-93
1.71033	-95
1.71400	-96
1.71767	-96
1.72133	-97
1.72500	-97
1.72867	-97
1.73233	-97
1.73600	-96
1.73967	-96
1.74333	-96
1.74700	-97
1.75067	-97
1.75433	-98
1.75800	-98
1.76167	-98
1.76533	-99
1.76900	-100
1.77267	-100
1.77633	-101
1.78000	-101
1.78367	-101
1.78733	-100
1.79100	-100
1.79467	-99
1.79833	-99
1.80200	-98
1.80567	-98
1.80933	-98
1.81300	-98
1.81667	-98
1.82033	-99
1.82400	-100
1.82767	-100
1.83133	-100
1.83500	-101
1.83867	-101
1.84233	-101
1.84600	-100
1.84967	-100
1.85333	-101
1.85700	-101
1.86067	-102
1.86433	-102
1.86800	-102
1.87167	-102
1.87533	-102
1.87900	-102
1.88267	-101
1.88633	-101
1.89000	-100
1.89367	-100
1.89733	-99
1.90100	-99
1.90467	-99
1.90833	-100
1.91200	-100
1.91567	-100
1.91933	-100
1.92300	-100
1.92667	-100
1.93033	-100
1.93400	-100
1.93767	-99
1.94133	-99
1.94500	-98
1.94867	-98
1.95233	-97
1.95600	-97
1.95967	-97
1.96333	-97
1.96700	-96
1.97067	-96
1.97433	-96
1.97800	-96
1.98167	-96
1.98533	-96
1.98900	-96
1.99267	-97
1.99633	-97
2.00000	-96
2.00367	-95
2.00733	-94
2.01100	-93
2.01467	-93
2.01833	-92
2.02200	-92
2.02567	-92
2.02933	-92
2.03300	-92
2.03667	-92
2.04033	-91
2.04400	-91
2.04767	-90
2.05133	-89
2.05500	-88
2.05867	-87
2.06233	-86
2.06600	-86
2.06967	-86
2.07333	-86
2.07700	-86
2.08067	-87
2.08433	-87
2.08800	-87
2.09167	-87
2.09533	-87
2.09900	-87
2.10267	-87
2.10633	-86
2.11000	-86
2.11367	-85
2.11733	-85
2.12100	-84
2.12467	-83
2.12833	-83
2.13200	-83
2.13567	-83
2.13933	-83
2.14300	-83
2.14667	-84
2.15033	-84
2.15400	-84
2.15767	-83
2.16133	-83
2.16500	-83
2.16867	-83
2.17233	-82
2.17600	-82
2.17967	-81
2.18333	-81
2.18700	-81
2.19067	-80
2.19433	-80
2.19800	-79
2.20167	-78
2.20533	-78
2.20900	-77
2.21267	-77
2.21633	-77
2.22000	-77
2.22367	-77
2.22733	-77
2.23100	-77
2.23467	-77
2.23833	-77
2.24200	-76
2.24567	-76
2.24933	-75
2.25300	-74
2.25667	-73
2.26033	-73
2.26400	-72
2.26767	-72
2.27133	-72
2.27500	-72
2.27867	-72
2.28233	-72
2.28600	-71
2.28967	-71
2.29333	-71
2.29700	-71
2.30067	-71
2.30433	-71
2.30800	-71
2.31167	-71
2.31533	-70
2.31900	-70
2.32267	-70
2.32633	-69
2.33000	-69
2.33367	-69
2.33733	-69
2.34100	-69
2.34467	-69
2.34833	-68
2.35200	-67
2.35567	-65
2.35933	-64
2.36300	-63
2.36667	-61
2.37033	-60
2.37400	-58
2.37767	-55
2.38133	-52
2.38500	-49
2.38867	-46
2.39233	-42
2.39600	-38
2.39967	-33
2.40333	-29
2.40700	-25
2.41067	-20
2.41433	-16
2.41800	-13
2.42167	-10
2.42533	-8
2.42900	-6
2.43267	-4
2.43633	-3
2.44000	-2
2.44367	-0
2.44733	1
2.45100	2
2.45467	4
2.45833	6
2.46200	7
2.46567	8
2.46933	9
2.47300	9
2.47667	10
2.48033	10
2.48400	11
2.48767	12
2.49133	13
2.49500	14
2.49867	14
2.50233	14
2.50600	15
2.50967	15
2.51333	15
2.51700	15
2.52067	15
2.52433	15
2.52800	16
2.53167	16
2.53533	16
2.53900	16
2.54267	15
2.54633	15
2.55000	15
2.55367	14
2.55733	13
2.56100	13
2.56467	12
2.56833	11
2.57200	11
2.57567	11
2.57933	11
2.58300	11
2.58667	11
2.59033	11
2.59400	12
2.59767	12
2.60133	12
2.60500	13
2.60867	13
2.61233	14
2.61600	15
2.61967	16
2.62333	16
2.62700	17
2.63067	17
2.63433	17
2.63800	18
2.64167	18
2.64533	18
2.64900	18
2.65267	18
2.65633	19
2.66000	19
2.66367	20
2.66733	20
2.67100	21
2.67467	22
2.67833	23
2.68200	24
2.68567	24
2.68933	25
2.69300	25
2.69667	25
2.70033	25
2.70400	25
2.70767	24
2.71133	23
2.71500	23
2.71867	22
2.72233	22
2.72600	22
2.72967	22
2.73333	23
2.73700	23
2.74067	23
2.74433	24
2.74800	24
2.75167	25
2.75533	25
2.75900	25
2.76267	26
2.76633	26
2.77000	26
2.77367	27
2.77733	27
2.78100	27
2.78467	28
2.78833	28
2.79200	28
2.79567	28
2.79933	28
2.80300	28
2.80667	28
2.81033	28
2.81400	28
2.81767	28
2.82133	28
2.82500	28
2.82867	28
2.83233	28
2.83600	28
2.83967	28
2.84333	28
2.84700	28
2.85067	28
2.85433	27
2.85800	25
2.86167	22
2.86533	16
2.86900	8
2.87267	-4
2.87633	-21
2.88000	-42
2.88367	-68
2.88733	-100
2.89100	-138
2.89467	-181
2.89833	-228
2.90200	-281
2.90567	-337
2.90933	-397
2.91300	-459
2.91667	-524
2.92033	-589
2.92400	-655
2.92767	-719
2.93133	-782
2.93500	-842
2.93867	-898
2.94233	-953
2.94600	-1009
2.94967	-1062
2.95333	-1105
2.95700	-1128
2.96067	-1126
2.96433	-1099
2.96800	-1051
2.97167	-986
2.97533	-910
2.97900	-829
2.98267	-747
2.98633	-666
2.99000	-589
2.99367	-516
2.99733	-450
3.00100	-390
3.00467	-337
3.00833	-290
3.01200	-248
3.01567	-211
3.01933	-180
3.02300	-152
3.02667	-128
3.03033	-108
3.03400	-90
3.03767	-75
3.04133	-62
3.04500	-51
3.04867	-41
3.05233	-33
3.05600	-26
3.05967	-20
3.06333	-15
3.06700	-10
3.07067	-7
3.07433	-4
3.07800	-1
3.08167	2
3.08533	4
3.08900	5
3.09267	7
3.09633	8
3.10000	9
3.10367	10
3.10733	11
3.11100	12
3.11467	13
3.11833	13
3.12200	14
3.12567	15
3.12933	15
3.13300	16
3.13667	16
3.14033	16
3.14400	17
3.14767	17
3.15133	17
3.15500	18
3.15867	18
3.16233	18
3.16600	18
3.16967	19
3.17333	19
3.17700	19
3.18067	19
3.18433	20
3.18800	20
3.19167	21
3.19533	21
3.19900	22
3.20267	23
3.20633	24
3.21000	24
3.21367	25
3.21733	25
3.22100	26
3.22467	26
3.22833	26
3.23200	26
3.23567	27
3.23933	27
3.24300	27
3.24667	27
3.25033	27
3.25400	27
3.25767	27
3.26133	27
3.26500	27
3.26867	27
3.27233	27
3.27600	27
3.27967	27
3.28333	27
3.28700	27
3.29067	27
3.29433	27
3.29800	27
3.30167	27
3.30533	27
3.30900	27
3.31267	27
3.31633	27
3.32000	26
3.32367	26
3.32733	26
3.33100	26
3.33467	27
3.33833	27
3.34200	27
3.34567	27
3.34933	28
3.35300	28
3.35667	28
3.36033	28
3.36400	28
3.36767	28
3.37133	28
3.37500	28
3.37867	28
3.38233	28
3.38600	28
3.38967	28
3.39333	27
3.39700	27
3.40067	27
3.40433	27
3.40800	26
3.41167	26
3.41533	26
3.41900	26
3.42267	27
3.42633	27
3.43000	27
3.43367	27
3.43733	27
3.44100	28
3.44467	28
3.44833	28
3.45200	27
3.45567	27
3.45933	27
3.46300	26
3.46667	26
3.47033	27
3.47400	27
3.47767	27
3.48133	27
3.48500	27
3.48867	27
3.49233	27
3.49600	27
3.49967	27
3.50333	27
3.50700	27
3.51067	27
3.51433	27
3.51800	27
3.52167	27
3.52533	27
3.52900	27
3.53267	27
3.53633	27
3.54000	27
3.54367	27
3.54733	27
3.55100	27
3.55467	27
3.55833	28
3.56200	28
3.56567	28
3.56933	28
3.57300	28
3.57667	28
3.58033	28
3.58400	28
3.58767	28
3.59133	28
3.59500	28
3.59867	28
3.60233	28
3.60600	28
3.60967	28
3.61333	28
3.61700	28
3.62067	28
3.62433	28
3.62800	28
3.63167	28
3.63533	28
3.63900	28
3.64267	28
3.64633	28
3.65000	28
3.65367	28
3.65733	28
3.66100	28
3.66467	28
3.66833	28
3.67200	28
3.67567	28
3.67933	28
3.68300	28
3.68667	28
3.69033	28
3.69400	28
3.69767	29
3.70133	29
3.70500	29
3.70867	28
3.71233	28
3.71600	28
3.71967	29
3.72333	29
3.72700	29
3.73067	29
3.73433	29
3.73800	29
3.74167	29
3.74533	29
3.74900	29
3.75267	28
3.75633	28
3.76000	28
3.76367	29
3.76733	29
3.77100	29
3.77467	29
3.77833	29
3.78200	29
3.78567	29
3.78933	29
3.79300	28
3.79667	28
3.80033	28
3.80400	28
3.80767	28
3.81133	29
3.81500	29
3.81867	29
3.82233	29
3.82600	29
3.82967	29
3.83333	29
3.83700	29
3.84067	29
3.84433	29
3.84800	28
3.85167	28
3.85533	29
3.85900	29
3.86267	29
3.86633	29
3.87000	29
3.87367	29
3.87733	29
3.88100	29
3.88467	29
3.88833	29
3.89200	29
3.89567	29
3.89933	29
3.90300	29
3.90667	29
3.91033	29
3.91400	29
3.91767	29
3.92133	29
3.92500	29
3.92867	29
3.93233	29
3.93600	29
3.93967	29
3.94333	28
3.94700	28
3.95067	28
3.95433	28
3.95800	28
3.96167	28
3.96533	28
3.96900	28
3.97267	28
3.97633	28
3.98000	28
3.98367	28
3.98733	28
3.99100	28
3.99467	28
3.99833	28

[Chromatogram (Ch3)]
Interval(msec)	220
# of Points	1091
Start Time(min)	0.002
End Time(min)	3.998
R.Time (min)	Intensity
0.00167	0
0.00533	2
0.00900	3
0.01267	4
0.01633	4
0.02000	2
0.02367	-1
0.02733	-0
0.03100	1
0.03467	1
0.03833	2
0.04200	3
0.04567	2
0.04933	4
0.05300	3
0.05667	1
0.06033	3
0.06400	3
0.06767	4
0.07133	2
0.07500	2
0.07867	2
0.08233	1
0.08600	-1
0.08967	-3
0.09333	-3
0.09700	0
0.10067	3
0.10433	4
0.10800	3
0.11167	4
0.11533	3
0.11900	3
0.12267	3
0.12633	2
0.13000	3
0.13367	3
0.13733	3
0.14100	2
0.14467	-0
0.14833	-2
0.15200	-2
0.15567	-2
0.15933	1
0.16300	3
0.16667	4
0.17033	5
0.17400	6
0.17767	4
0.18133	2
0.18500	2
0.18867	4
0.19233	6
0.19600	4
0.19967	3
0.20333	1
0.20700	1
0.21067	1
0.21433	0
0.21800	2
0.22167	4
0.22533	5
0.22900	4
0.23267	2
0.23633	2
0.24000	1
0.24367	-0
0.24733	-2
0.25100	-4
0.25467	-2
0.25833	1
0.26200	2
0.26567	1
0.26933	1
0.27300	0
0.27667	1
0.28033	3
0.28400	3
0.28767	3
0.29133	3
0.29500	2
0.29867	4
0.30233	6
0.30600	8
0.30967	10
0.31333	8
0.31700	6
0.32067	5
0.32433	5
0.32800	4
0.33167	5
0.33533	4
0.33900	3
0.34267	1
0.34633	2
0.35000	4
0.35367	4
0.35733	3
0.36100	3
0.36467	2
0.36833	4
0.37200	4
0.37567	3
0.37933	1
0.38300	1
0.38667	3
0.39033	4
0.39400	5
0.39767	3
0.40133	1
0.40500	1
0.40867	0
0.41233	1
0.41600	-0
0.41967	-2
0.42333	-4
0.42700	-3
0.43067	-4
0.43433	-3
0.43800	-0
0.44167	1
0.44533	1
0.44900	1
0.45267	1
0.45633	2
0.46000	4
0.46367	5
0.46733	7
0.47100	7
0.47467	6
0.47833	3
0.48200	-2
0.48567	-2
0.48933	1
0.49300	1
0.49667	2
0.50033	4
0.50400	4
0.50767	4
0.51133	5
0.51500	5
0.51867	4
0.52233	4
0.52600	3
0.52967	5
0.53333	5
0.53700	5
0.54067	4
0.54433	7
0.54800	9
0.55167	9
0.55533	8
0.55900	7
0.56267	4
0.56633	1
0.57000	3
0.57367	6
0.57733	6
0.58100	8
0.58467	8
0.58833	5
0.59200	5
0.59567	4
0.59933	5
0.60300	7
0.60667	8
0.61033	9
0.61400	12
0.61767	12
0.62133	11
0.62500	12
0.62867	14
0.63233	14
0.63600	13
0.63967	13
0.64333	13
0.64700	11
0.65067	10
0.65433	10
0.65800	9
0.66167	10
0.66533	10
0.66900	10
0.67267	11
0.67633	10
0.68000	9
0.68367	8
0.68733	7
0.69100	5
0.69467	3
0.69833	3
0.70200	4
0.70567	5
0.70933	3
0.71300	4
0.71667	6
0.72033	6
0.72400	7
0.72767	10
0.73133	13
0.73500	14
0.73867	14
0.74233	11
0.74600	9
0.74967	10
0.75333	10
0.75700	8
0.76067	6
0.76433	6
0.76800	7
0.77167	9
0.77533	8
0.77900	7
0.78267	7
0.78633	7
0.79000	6
0.79367	7
0.79733	8
0.80100	7
0.80467	8
0.80833	11
0.81200	11
0.81567	10
0.81933	13
0.82300	14
0.82667	14
0.83033	13
0.83400	11
0.83767	10
0.84133	12
0.84500	14
0.84867	12
0.85233	11
0.85600	9
0.85967	6
0.86333	7
0.86700	10
0.87067	13
0.87433	14
0.87800	15
0.88167	14
0.88533	12
0.88900	13
0.89267	11
0.89633	9
0.90000	8
0.90367	7
0.90733	7
0.91100	7
0.91467	8
0.91833	9
0.92200	12
0.92567	13
0.92933	13
0.93300	12
0.93667	13
0.94033	15
0.94400	15
0.94767	14
0.95133	12
0.95500	10
0.95867	12
0.96233	15
0.96600	16
0.96967	15
0.97333	13
0.97700	11
0.98067	10
0.98433	10
0.98800	10
0.99167	11
0.99533	13
0.99900	13
1.00267	11
1.00633	10
1.01000	13
1.01367	13
1.01733	9
1.02100	9
1.02467	8
1.02833	7
1.03200	8
1.03567	10
1.03933	10
1.04300	12
1.04667	15
1.05033	17
1.05400	17
1.05767	16
1.06133	14
1.06500	12
1.06867	12
1.07233	8
1.07600	7
1.07967	9
1.08333	12
1.08700	12
1.09067	14
1.09433	16
1.09800	16
1.10167	14
1.10533	13
1.10900	10
1.11267	10
1.11633	10
1.12000	9
1.12367	11
1.12733	13
1.13100	13
1.13467	13
1.13833	13
1.14200	13
1.14567	12
1.14933	11
1.15300	11
1.15667	10
1.16033	10
1.16400	11
1.16767	11
1.17133	9
1.17500	6
1.17867	4
1.18233	5
1.18600	8
1.18967	9
1.19333	9
1.19700	10
1.20067	11
1.20433	12
1.20800	11
1.21167	10
1.21533	10
1.21900	12
1.22267	12
1.22633	9
1.23000	10
1.23367	12
1.23733	10
1.24100	10
1.24467	7
1.24833	6
1.25200	6
1.25567	7
1.25933	7
1.26300	10
1.26667	13
1.27033	12
1.27400	11
1.27767	12
1.28133	12
1.28500	10
1.28867	8
1.29233	8
1.29600	8
1.29967	8
1.30333	7
1.30700	8
1.31067	8
1.31433	8
1.31800	8
1.32167	10
1.32533	12
1.32900	12
1.33267	13
1.33633	12
1.34000	9
1.34367	11
1.34733	15
1.35100	17
1.35467	15
1.35833	14
1.36200	14
1.36567	13
1.36933	12
1.37300	11
1.37667	9
1.38033	8
1.38400	9
1.38767	7
1.39133	8
1.39500	9
1.39867	10
1.40233	9
1.40600	10
1.40967	11
1.41333	10
1.41700	10
1.42067	11
1.42433	13
1.42800	14
1.43167	13
1.43533	12
1.43900	12
1.44267	12
1.44633	11
1.45000	13
1.45367	16
1.45733	14
1.46100	14
1.46467	14
1.46833	16
1.47200	15
1.47567	12
1.47933	12
1.48300	10
1.48667	11
1.49033	13
1.49400	13
1.49767	11
1.50133	10
1.50500	12
1.50867	12
1.51233	11
1.51600	12
1.51967	13
1.52333	13
1.52700	13
1.53067	13
1.53433	13
1.53800	15
1.54167	17
1.54533	16
1.54900	13
1.55267	12
1.55633	10
1.56000	11
1.56367	13
1.56733	16
1.57100	16
1.57467	16
1.57833	17
1.58200	17
1.58567	16
1.58933	13
1.59300	15
1.59667	17
1.60033	16
1.60400	14
1.60767	16
1.61133	17
1.61500	17
1.61867	18
1.62233	18
1.62600	16
1.62967	14
1.63333	15
1.63700	14
1.64067	13
1.64433	14
1.64800	13
1.65167	14
1.65533	16
1.65900	20
1.66267	23
1.66633	22
1.67000	20
1.67367	21
1.67733	21
1.68100	22
1.68467	21
1.68833	23
1.69200	23
1.69567	21
1.69933	18
1.70300	18
1.70667	17
1.71033	16
1.71400	16
1.71767	16
1.72133	18
1.72500	19
1.72867	20
1.73233	19
1.73600	18
1.73967	17
1.74333	19
1.74700	21
1.75067	21
1.75433	21
1.75800	18
1.76167	17
1.76533	14
1.76900	13
1.77267	14
1.77633	15
1.78000	16
1.78367	18
1.78733	21
1.79100	24
1.79467	24
1.79833	23
1.80200	22
1.80567	24
1.80933	22
1.81300	22
1.81667	23
1.82033	25
1.82400	25
1.82767	27
1.83133	30
1.83500	31
1.83867	33
1.84233	35
1.84600	35
1.84967	35
1.85333	34
1.85700	32
1.86067	31
1.86433	31
1.86800	30
1.87167	27
1.87533	25
1.87900	27
1.88267	30
1.88633	33
1.89000	36
1.89367	35
1.89733	31
1.90100	28
1.90467	29
1.90833	34
1.91200	38
1.91567	41
1.91933	39
1.92300	36
1.92667	35
1.93033	34
1.93400	33
1.93767	33
1.94133	33
1.94500	33
1.94867	33
1.95233	34
1.95600	35
1.95967	35
1.96333	35
1.96700	36
1.97067	37
1.97433	38
1.97800	41
1.98167	44
1.98533	47
1.98900	50
1.99267	53
1.99633	54
2.00000	54
2.00367	56
2.00733	58
2.01100	57
2.01467	58
2.01833	59
2.02200	61
2.02567	64
2.02933	63
2.03300	60
2.03667	58
2.04033	56
2.04400	56
2.04767	56
2.05133	54
2.05500	54
2.05867	52
2.06233	50
2.06600	49
2.06967	50
2.07333	50
2.07700	51
2.08067	53
2.08433	56
2.08800	58
2.09167	60
2.09533	62
2.09900	62
2.10267	64
2.10633	66
2.11000	67
2.11367	67
2.11733	69
2.12100	71
2.12467	73
2.12833	72
2.13200	71
2.13567	69
2.13933	68
2.14300	68
2.14667	71
2.15033	76
2.15400	81
2.15767	80
2.16133	79
2.16500	79
2.16867	79
2.17233	80
2.17600	82
2.17967	85
2.18333	85
2.18700	84
2.19067	84
2.19433	84
2.19800	85
2.20167	86
2.20533	85
2.20900	84
2.21267	85
2.21633	86
2.22000	89
2.22367	89
2.22733	89
2.23100	91
2.23467	92
2.23833	94
2.24200	95
2.24567	96
2.24933	101
2.25300	102
2.25667	105
2.26033	105
2.26400	102
2.26767	101
2.27133	103
2.27500	104
2.27867	103
2.28233	104
2.28600	105
2.28967	105
2.29333	105
2.29700	106
2.30067	104
2.30433	102
2.30800	103
2.31167	102
2.31533	103
2.31900	108
2.32267	112
2.32633	111
2.33000	112
2.33367	113
2.33733	114
2.34100	114
2.34467	112
2.34833	112
2.35200	111
2.35567	110
2.35933	111
2.36300	111
2.36667	112
2.37033	115
2.37400	116
2.37767	115
2.38133	114
2.38500	112
2.38867	110
2.39233	110
2.39600	113
2.39967	117
2.40333	122
2.40700	128
2.41067	130
2.41433	132
2.41800	134
2.42167	137
2.42533	136
2.42900	134
2.43267	132
2.43633	131
2.44000	136
2.44367	183
2.44733	270
2.45100	348
2.45467	401
2.45833	421
2.46200	411
2.46567	390
2.46933	373
2.47300	364
2.47667	356
2.48033	342
2.48400	321
2.48767	295
2.49133	270
2.49500	250
2.49867	234
2.50233	225
2.50600	222
2.50967	222
2.51333	226
2.51700	230
2.52067	233
2.52433	233
2.52800	231
2.53167	222
2.53533	210
2.53900	198
2.54267	185
2.54633	170
2.55000	158
2.55367	148
2.55733	141
2.56100	134
2.56467	132
2.56833	131
2.57200	132
2.57567	130
2.57933	131
2.58300	131
2.58667	135
2.59033	140
2.59400	144
2.59767	151
2.60133	161
2.60500	172
2.60867	181
2.61233	187
2.61600	192
2.61967	196
2.62333	198
2.62700	197
2.63067	192
2.63433	187
2.63800	179
2.64167	169
2.64533	159
2.64900	149
2.65267	138
2.65633	129
2.66000	120
2.66367	112
2.66733	103
2.67100	97
2.67467	92
2.67833	90
2.68200	85
2.68567	82
2.68933	77
2.69300	73
2.69667	70
2.70033	70
2.70400	71
2.70767	73
2.71133	73
2.71500	73
2.71867	72
2.72233	71
2.72600	69
2.72967	68
2.73333	68
2.73700	67
2.74067	66
2.74433	67
2.74800	68
2.75167	69
2.75533	71
2.75900	70
2.76267	71
2.76633	74
2.77000	78
2.77367	79
2.77733	78
2.78100	79
2.78467	83
2.78833	88
2.79200	90
2.79567	92
2.79933	95
2.80300	99
2.80667	103
2.81033	106
2.81400	108
2.81767	108
2.82133	108
2.82500	108
2.82867	108
2.83233	112
2.83600	121
2.83967	140
2.84333	183
2.84700	263
2.85067	399
2.85433	609
2.85800	908
2.86167	1296
2.86533	1754
2.86900	2250
2.87267	2746
2.87633	3201
2.88000	3577
2.88367	3843
2.88733	3987
2.89100	4013
2.89467	3932
2.89833	3765
2.90200	3535
2.90567	3264
2.90933	2972
2.91300	2678
2.91667	2391
2.92033	2121
2.92400	1868
2.92767	1640
2.93133	1436
2.93500	1257
2.93867	1097
2.94233	958
2.94600	834
2.94967	724
2.95333	629
2.95700	548
2.96067	476
2.96433	414
2.96800	364
2.97167	320
2.97533	281
2.97900	250
2.98267	222
2.98633	198
2.99000	179
2.99367	162
2.99733	146
3.00100	132
3.00467	120
3.00833	110
3.01200	106
3.01567	101
3.01933	95
3.02300	89
3.02667	87
3.03033	84
3.03400	83
3.03767	80
3.04133	79
3.04500	77
3.04867	76
3.05233	75
3.05600	74
3.05967	73
3.06333	75
3.06700	76
3.07067	76
3.07433	76
3.07800	75
3.08167	76
3.08533	76
3.08900	76
3.09267	77
3.09633	77
3.10000	79
3.10367	80
3.10733	83
3.11100	85
3.11467	87
3.11833	80
3.12200	62
3.12567	57
3.12933	83
3.13300	137
3.13667	210
3.14033	290
3.14400	371
3.14767	452
3.15133	531
3.15500	610
3.15867	685
3.16233	752
3.16600	810
3.16967	860
3.17333	901
3.17700	935
3.18067	961
3.18433	981
3.18800	995
3.19167	1008
3.19533	1019
3.19900	1027
3.20267	1033
3.20633	1037
3.21000	1041
3.21367	1041
3.21733	1038
3.22100	1037
3.22467	1035
3.22833	1038
3.23200	1041
3.23567	1041
3.23933	1039
3.24300	1037
3.24667	1035
3.25033	1033
3.25400	1031
3.25767	1029
3.26133	1029
3.26500	1027
3.26867	1024
3.27233	1019
3.27600	1016
3.27967	1013
3.28333	1009
3.28700	1003
3.29067	999
3.29433	996
3.29800	993
3.30167	991
3.30533	988
3.30900	986
3.31267	981
3.31633	975
3.32000	967
3.32367	960
3.32733	951
3.33100	944
3.33467	939
3.33833	934
3.34200	931
3.34567	924
3.34933	918
3.35300	911
3.35667	906
3.36033	904
3.36400	902
3.36767	899
3.37133	894
3.37500	890
3.37867	888
3.38233	884
3.38600	880
3.38967	878
3.39333	877
3.39700	875
3.40067	871
3.40433	867
3.40800	862
3.41167	859
3.41533	856
3.41900	852
3.42267	849
3.42633	848
3.43000	847
3.43367	846
3.43733	845
3.44100	845
3.44467	846
3.44833	845
3.45200	842
3.45567	840
3.45933	835
3.46300	833
3.46667	833
3.47033	832
3.47400	830
3.47767	829
3.48133	829
3.48500	827
3.48867	826
3.49233	825
3.49600	824
3.49967	825
3.50333	824
3.50700	820
3.51067	818
3.51433	816
3.51800	814
3.52167	811
3.52533	808
3.52900	807
3.53267	803
3.53633	801
3.54000	799
3.54367	797
3.54733	795
3.55100	796
3.55467	795
3.55833	792
3.56200	787
3.56567	782
3.56933	779
3.57300	779
3.57667	778
3.58033	776
3.58400	774
3.58767	772
3.59133	770
3.59500	769
3.59867	769
3.60233	767
3.60600	764
3.60967	760
3.61333	756
3.61700	753
3.62067	753
3.62433	752
3.62800	749
3.63167	749
3.63533	746
3.63900	746
3.64267	745
3.64633	742
3.65000	740
3.65367	738
3.65733	736
3.66100	735
3.66467	735
3.66833	734
3.67200	732
3.67567	728
3.67933	727
3.68300	726
3.68667	723
3.69033	722
3.69400	721
3.69767	718
3.70133	714
3.70500	712
3.70867	711
3.71233	709
3.71600	708
3.71967	707
3.72333	709
3.72700	709
3.73067	706
3.73433	704
3.73800	702
3.74167	699
3.74533	697
3.74900	694
3.75267	693
3.75633	690
3.76000	686
3.76367	681
3.76733	678
3.77100	675
3.77467	673
3.77833	671
3.78200	669
3.78567	667
3.78933	664
3.79300	664
3.79667	664
3.80033	664
3.80400	664
3.80767	662
3.81133	660
3.81500	660
3.81867	661
3.82233	661
3.82600	659
3.82967	657
3.83333	655
3.83700	654
3.84067	653
3.84433	653
3.84800	651
3.85167	651
3.85533	651
3.85900	650
3.86267	648
3.86633	643
3.87000	639
3.87367	636
3.87733	633
3.88100	635
3.88467	637
3.88833	638
3.89200	638
3.89567	636
3.89933	632
3.90300	628
3.90667	624
3.91033	624
3.91400	625
3.91767	625
3.92133	623
3.92500	621
3.92867	620
3.93233	618
3.93600	616
3.93967	615
3.94333	613
3.94700	611
3.95067	611
3.95433	609
3.95800	606
3.96167	606
3.96533	606
3.96900	605
3.97267	604
3.97633	602
3.98000	602
3.98367	602
3.98733	602
3.99100	602
3.99467	601
3.99833	597

[Status Trace (Column Oven Temperature)]
Interval(msec)	1000
# of Points	240
Start Time(min)	0.007
End Time(min)	3.990
Intensity Units	
Intensity Multiplier	1
R.Time (min)	Intensity
0.00717	35.03
0.02383	35.04
0.04050	35.03
0.05717	35.03
0.07383	35.03
0.09050	35.03
0.10717	35.03
0.12383	35.03
0.14050	35.03
0.15717	35.02
0.17383	35.01
0.19050	35.01
0.20717	35.02
0.22383	35.01
0.24050	35.01
0.25717	35.01
0.27383	35.01
0.29050	35.00
0.30717	35.01
0.32383	35.01
0.34050	35.02
0.35717	35.03
0.37383	35.03
0.39050	35.02
0.40717	35.01
0.42383	35.01
0.44050	35.01
0.45717	35.00
0.47383	35.01
0.49050	35.00
0.50717	34.99
0.52383	34.98
0.54050	35.00
0.55717	34.99
0.57383	34.99
0.59050	34.99
0.60717	35.00
0.62383	35.00
0.64050	35.00
0.65717	35.01
0.67383	35.01
0.69050	35.00
0.70717	35.00
0.72383	35.00
0.74050	35.00
0.75717	34.99
0.77383	34.99
0.79050	34.98
0.80717	34.98
0.82383	34.98
0.84050	34.99
0.85717	35.00
0.87383	35.00
0.89050	35.00
0.90717	35.00
0.92383	35.00
0.94050	35.00
0.95717	34.99
0.97383	35.00
0.99050	34.99
1.00717	34.99
1.02383	34.99
1.04050	34.99
1.05717	34.99
1.07383	34.99
1.09050	34.99
1.10717	34.99
1.12383	34.99
1.14050	34.99
1.15717	34.99
1.17383	34.99
1.19050	35.00
1.20717	35.00
1.22383	35.00
1.24050	35.00
1.25717	35.00
1.27383	34.99
1.29050	34.99
1.30717	34.99
1.32383	34.98
1.34050	34.98
1.35717	34.98
1.37383	34.98
1.39050	34.98
1.40717	35.00
1.42383	35.00
1.44050	35.00
1.45717	35.00
1.47383	35.00
1.49050	34.99
1.50717	34.99
1.52383	34.98
1.54050	34.99
1.55717	34.99
1.57383	35.00
1.59050	35.00
1.60717	35.06
1.62383	35.19
1.64050	35.37
1.65717	35.61
1.67383	35.94
1.69050	36.32
1.70717	36.67
1.72383	37.00
1.74050	37.33
1.75717	37.67
1.77383	38.01
1.79050	38.33
1.80717	38.63
1.82383	38.98
1.84050	39.30
1.85717	39.64
1.87383	39.98
1.89050	40.29
1.90717	40.63
1.92383	40.97
1.94050	41.29
1.95717	41.62
1.97383	41.95
1.99050	42.28
2.00717	42.58
2.02383	42.92
2.04050	43.24
2.05717	43.55
2.07383	43.88
2.09050	44.22
2.10717	44.54
2.12383	44.86
2.14050	45.20
2.15717	45.54
2.17383	45.87
2.19050	46.20
2.20717	46.52
2.22383	46.85
2.24050	47.18
2.25717	47.51
2.27383	47.83
2.29050	48.14
2.30717	48.49
2.32383	48.81
2.34050	49.14
2.35717	49.42
2.37383	49.63
2.39050	49.71
2.40717	49.71
2.42383	49.71
2.44050	49.73
2.45717	49.72
2.47383	49.74
2.49050	49.74
2.50717	49.76
2.52383	49.77
2.54050	49.78
2.55717	49.78
2.57383	49.81
2.59050	49.82
2.60717	49.84
2.62383	49.84
2.64050	49.86
2.65717	49.88
2.67383	49.85
2.69050	49.84
2.70717	49.87
2.72383	49.89
2.74050	49.90
2.75717	49.90
2.77383	49.90
2.79050	49.89
2.80717	49.89
2.82383	49.89
2.84050	49.90
2.85717	49.91
2.87383	49.92
2.89050	49.92
2.90717	49.94
2.92383	49.96
2.94050	49.97
2.95717	49.99
2.97383	50.00
2.99050	50.01
3.00717	50.02
3.02383	50.03
3.04050	50.04
3.05717	50.05
3.07383	50.05
3.09050	50.07
3.10717	50.08
3.12383	50.08
3.14050	50.09
3.15717	50.11
3.17383	50.12
3.19050	50.12
3.20717	50.10
3.22383	50.08
3.24050	50.07
3.25717	50.06
3.27383	50.05
3.29050	50.04
3.30717	50.04
3.32383	50.04
3.34050	50.03
3.35717	50.03
3.37383	50.03
3.39050	50.03
3.40717	50.03
3.42383	50.04
3.44050	50.03
3.45717	50.03
3.47383	50.03
3.49050	50.04
3.50717	50.04
3.52383	50.04
3.54050	50.05
3.55717	50.06
3.57383	50.05
3.59050	50.06
3.60717	50.06
3.62383	50.07
3.64050	50.07
3.65717	50.07
3.67383	50.07
3.69050	50.07
3.70717	50.06
3.72383	50.07
3.74050	50.07
3.75717	50.07
3.77383	50.06
3.79050	50.07
3.80717	50.07
3.82383	50.07
3.84050	50.07
3.85717	50.07
3.87383	50.07
3.89050	50.07
3.90717	50.07
3.92383	50.07
3.94050	50.07
3.95717	50.08
3.97383	50.07
3.99050	50.07

[Status Trace (Injection Unit Temperature)]
Interval(msec)	1000
# of Points	240
Start Time(min)	0.007
End Time(min)	3.990
Intensity Units	
Intensity Multiplier	1
R.Time (min)	Intensity
0.00717	99.97
0.02383	99.98
0.04050	99.97
0.05717	99.97
0.07383	99.98
0.09050	99.98
0.10717	99.97
0.12383	99.98
0.14050	99.98
0.15717	99.98
0.17383	99.97
0.19050	99.98
0.20717	99.98
0.22383	99.98
0.24050	99.98
0.25717	99.97
0.27383	99.98
0.29050	99.98
0.30717	99.98
0.32383	99.98
0.34050	99.98
0.35717	99.98
0.37383	99.98
0.39050	99.98
0.40717	99.98
0.42383	99.98
0.44050	99.98
0.45717	99.98
0.47383	99.98
0.49050	99.98
0.50717	99.98
0.52383	99.98
0.54050	99.98
0.55717	99.98
0.57383	99.98
0.59050	99.98
0.60717	99.98
0.62383	99.98
0.64050	99.98
0.65717	99.98
0.67383	99.98
0.69050	99.98
0.70717	99.98
0.72383	99.98
0.74050	99.98
0.75717	99.98
0.77383	99.98
0.79050	99.98
0.80717	99.98
0.82383	99.98
0.84050	99.98
0.85717	99.98
0.87383	99.98
0.89050	99.98
0.90717	99.97
0.92383	99.98
0.94050	99.98
0.95717	99.98
0.97383	99.98
0.99050	99.98
1.00717	99.98
1.02383	99.98
1.04050	99.98
1.05717	99.98
1.07383	99.98
1.09050	99.97
1.10717	99.98
1.12383	99.97
1.14050	99.98
1.15717	99.98
1.17383	99.98
1.19050	99.98
1.20717	99.98
1.22383	99.98
1.24050	99.98
1.25717	99.97
1.27383	99.98
1.29050	99.98
1.30717	99.98
1.32383	99.98
1.34050	99.98
1.35717	99.98
1.37383	99.97
1.39050	99.98
1.40717	99.98
1.42383	99.98
1.44050	99.98
1.45717	99.98
1.47383	99.98
1.49050	99.98
1.50717	99.97
1.52383	99.98
1.54050	99.98
1.55717	99.98
1.57383	99.98
1.59050	99.98
1.60717	99.98
1.62383	99.98
1.64050	99.98
1.65717	99.98
1.67383	99.98
1.69050	99.98
1.70717	99.98
1.72383	99.98
1.74050	99.98
1.75717	99.98
1.77383	99.98
1.79050	99.98
1.80717	99.98
1.82383	99.98
1.84050	99.98
1.85717	99.98
1.87383	99.98
1.89050	99.98
1.90717	99.98
1.92383	99.98
1.94050	99.97
1.95717	99.98
1.97383	99.97
1.99050	99.98
2.00717	99.97
2.02383	99.97
2.04050	99.97
2.05717	99.97
2.07383	99.97
2.09050	99.97
2.10717	99.97
2.12383	99.97
2.14050	99.97
2.15717	99.97
2.17383	99.97
2.19050	99.97
2.20717	99.97
2.22383	99.97
2.24050	99.97
2.25717	99.97
2.27383	99.97
2.29050	99.97
2.30717	99.97
2.32383	99.97
2.34050	99.96
2.35717	99.97
2.37383	99.96
2.39050	99.97
2.40717	99.97
2.42383	99.97
2.44050	99.97
2.45717	99.97
2.47383	99.97
2.49050	99.97
2.50717	99.97
2.52383	99.97
2.54050	99.97
2.55717	99.97
2.57383	99.97
2.59050	99.97
2.60717	99.97
2.62383	99.97
2.64050	99.98
2.65717	99.98
2.67383	99.97
2.69050	99.98
2.70717	99.98
2.72383	99.98
2.74050	99.98
2.75717	99.98
2.77383	99.99
2.79050	99.99
2.80717	99.99
2.82383	99.99
2.84050	99.99
2.85717	99.99
2.87383	99.99
2.89050	99.99
2.90717	100.00
2.92383	100.00
2.94050	100.00
2.95717	100.00
2.97383	100.00
2.99050	100.00
3.00717	100.01
3.02383	100.00
3.04050	100.00
3.05717	100.01
3.07383	100.01
3.09050	100.01
3.10717	100.01
3.12383	100.01
3.14050	100.01
3.15717	100.01
3.17383	100.02
3.19050	100.02
3.20717	100.01
3.22383	100.02
3.24050	100.02
3.25717	100.02
3.27383	100.02
3.29050	100.02
3.30717	100.02
3.32383	100.02
3.34050	100.02
3.35717	100.02
3.37383	100.02
3.39050	100.02
3.40717	100.03
3.42383	100.03
3.44050	100.03
3.45717	100.03
3.47383	100.03
3.49050	100.03
3.50717	100.03
3.52383	100.03
3.54050	100.03
3.55717	100.03
3.57383	100.03
3.59050	100.03
3.60717	100.04
3.62383	100.03
3.64050	100.04
3.65717	100.04
3.67383	100.04
3.69050	100.04
3.70717	100.04
3.72383	100.04
3.74050	100.04
3.75717	100.04
3.77383	100.04
3.79050	100.04
3.80717	100.04
3.82383	100.04
3.84050	100.04
3.85717	100.04
3.87383	100.05
3.89050	100.04
3.90717	100.04
3.92383	100.04
3.94050	100.05
3.95717	100.05
3.97383	100.05
3.99050	100.05

[Status Trace (Carrier Gas Pressure)]
Interval(msec)	1000
# of Points	240
Start Time(min)	0.007
End Time(min)	3.990
Intensity Units	
Intensity Multiplier	1
R.Time (min)	Intensity
0.00717	58.00
0.02383	55.44
0.04050	56.91
0.05717	59.12
0.07383	59.54
0.09050	58.12
0.10717	57.98
0.12383	58.01
0.14050	58.01
0.15717	58.01
0.17383	58.00
0.19050	58.00
0.20717	58.00
0.22383	58.00
0.24050	58.00
0.25717	58.00
0.27383	58.00
0.29050	58.00
0.30717	58.00
0.32383	58.00
0.34050	58.00
0.35717	58.00
0.37383	58.00
0.39050	58.00
0.40717	58.00
0.42383	58.00
0.44050	58.00
0.45717	58.00
0.47383	58.00
0.49050	58.00
0.50717	58.00
0.52383	58.00
0.54050	58.00
0.55717	58.00
0.57383	58.00
0.59050	58.00
0.60717	58.00
0.62383	58.00
0.64050	58.00
0.65717	58.00
0.67383	58.00
0.69050	58.00
0.70717	58.00
0.72383	58.00
0.74050	58.00
0.75717	58.00
0.77383	58.00
0.79050	58.00
0.80717	58.00
0.82383	58.00
0.84050	58.00
0.85717	58.00
0.87383	58.00
0.89050	58.00
0.90717	58.00
0.92383	58.00
0.94050	58.00
0.95717	58.00
0.97383	58.00
0.99050	58.00
1.00717	58.00
1.02383	58.00
1.04050	58.00
1.05717	58.00
1.07383	58.00
1.09050	58.00
1.10717	58.00
1.12383	58.00
1.14050	58.00
1.15717	58.00
1.17383	58.00
1.19050	58.00
1.20717	58.00
1.22383	58.00
1.24050	58.00
1.25717	58.00
1.27383	58.00
1.29050	58.00
1.30717	58.00
1.32383	58.00
1.34050	58.00
1.35717	58.00
1.37383	58.00
1.39050	58.00
1.40717	58.00
1.42383	58.00
1.44050	58.00
1.45717	58.00
1.47383	58.00
1.49050	58.00
1.50717	58.00
1.52383	58.00
1.54050	58.00
1.55717	58.00
1.57383	58.00
1.59050	58.00
1.60717	58.00
1.62383	58.00
1.64050	58.00
1.65717	58.01
1.67383	58.01
1.69050	58.00
1.70717	58.00
1.72383	58.00
1.74050	58.00
1.75717	58.00
1.77383	58.00
1.79050	58.00
1.80717	58.00
1.82383	58.00
1.84050	58.00
1.85717	58.00
1.87383	58.00
1.89050	58.00
1.90717	58.00
1.92383	58.00
1.94050	58.00
1.95717	58.00
1.97383	58.00
1.99050	58.00
2.00717	58.00
2.02383	58.00
2.04050	58.00
2.05717	58.00
2.07383	58.00
2.09050	58.00
2.10717	58.00
2.12383	58.00
2.14050	58.00
2.15717	58.00
2.17383	58.00
2.19050	58.00
2.20717	58.00
2.22383	58.00
2.24050	58.00
2.25717	58.00
2.27383	58.00
2.29050	58.00
2.30717	58.00
2.32383	58.00
2.34050	58.00
2.35717	58.00
2.37383	58.00
2.39050	57.99
2.40717	57.99
2.42383	58.00
2.44050	58.00
2.45717	58.00
2.47383	58.00
2.49050	58.00
2.50717	58.00
2.52383	57.98
2.54050	58.00
2.55717	58.00
2.57383	58.00
2.59050	58.00
2.60717	58.00
2.62383	58.00
2.64050	58.00
2.65717	58.00
2.67383	58.00
2.69050	58.00
2.70717	58.00
2.72383	58.00
2.74050	58.00
2.75717	58.00
2.77383	58.00
2.79050	58.00
2.80717	58.00
2.82383	58.00
2.84050	58.00
2.85717	58.00
2.87383	58.00
2.89050	58.00
2.90717	58.00
2.92383	58.00
2.94050	58.00
2.95717	58.00
2.97383	58.00
2.99050	58.00
3.00717	58.00
3.02383	58.00
3.04050	58.00
3.05717	58.00
3.07383	58.00
3.09050	58.00
3.10717	58.00
3.12383	58.00
3.14050	58.00
3.15717	58.00
3.17383	58.00
3.19050	58.00
3.20717	58.00
3.22383	58.00
3.24050	58.00
3.25717	58.00
3.27383	58.00
3.29050	58.00
3.30717	58.00
3.32383	58.00
3.34050	58.00
3.35717	58.00
3.37383	58.00
3.39050	58.00
3.40717	58.00
3.42383	58.00
3.44050	58.00
3.45717	58.00
3.47383	58.00
3.49050	58.00
3.50717	58.00
3.52383	58.00
3.54050	58.00
3.55717	58.00
3.57383	58.00
3.59050	58.00
3.60717	58.00
3.62383	58.00
3.64050	58.00
3.65717	58.00
3.67383	58.00
3.69050	58.00
3.70717	58.00
3.72383	58.00
3.74050	58.00
3.75717	58.00
3.77383	58.00
3.79050	58.00
3.80717	58.00
3.82383	58.00
3.84050	58.00
3.85717	58.00
3.87383	58.00
3.89050	58.00
3.90717	58.00
3.92383	58.00
3.94050	58.00
3.95717	58.00
3.97383	58.00
3.99050	58.00

[Status Trace (Carrier Gas Flow)]
Interval(msec)	1000
# of Points	240
Start Time(min)	0.007
End Time(min)	3.990
Intensity Units	
Intensity Multiplier	1
R.Time (min)	Intensity
0.00717	34.52
0.02383	34.54
0.04050	34.55
0.05717	34.55
0.07383	34.50
0.09050	34.52
0.10717	34.52
0.12383	34.52
0.14050	34.52
0.15717	34.52
0.17383	34.52
0.19050	34.52
0.20717	34.52
0.22383	34.52
0.24050	34.52
0.25717	34.52
0.27383	34.52
0.29050	34.51
0.30717	34.51
0.32383	34.52
0.34050	34.52
0.35717	34.52
0.37383	34.52
0.39050	34.52
0.40717	34.52
0.42383	34.52
0.44050	34.52
0.45717	34.52
0.47383	34.52
0.49050	34.52
0.50717	34.52
0.52383	34.52
0.54050	34.51
0.55717	34.52
0.57383	34.52
0.59050	34.51
0.60717	34.52
0.62383	34.52
0.64050	34.52
0.65717	34.52
0.67383	34.52
0.69050	34.52
0.70717	34.52
0.72383	34.52
0.74050	34.52
0.75717	34.52
0.77383	34.52
0.79050	34.52
0.80717	34.52
0.82383	34.52
0.84050	34.52
0.85717	34.52
0.87383	34.52
0.89050	34.52
0.90717	34.52
0.92383	34.52
0.94050	34.52
0.95717	34.52
0.97383	34.52
0.99050	34.52
1.00717	34.52
1.02383	34.52
1.04050	34.52
1.05717	34.52
1.07383	34.52
1.09050	34.52
1.10717	34.52
1.12383	34.52
1.14050	34.52
1.15717	34.52
1.17383	34.52
1.19050	34.52
1.20717	34.52
1.22383	34.52
1.24050	34.52
1.25717	34.52
1.27383	34.52
1.29050	34.52
1.30717	34.52
1.32383	34.52
1.34050	34.52
1.35717	34.52
1.37383	34.52
1.39050	34.52
1.40717	34.52
1.42383	34.52
1.44050	34.52
1.45717	34.52
1.47383	34.52
1.49050	34.51
1.50717	34.52
1.52383	34.52
1.54050	34.52
1.55717	34.52
1.57383	34.52
1.59050	34.52
1.60717	34.52
1.62383	34.51
1.64050	34.52
1.65717	34.52
1.67383	34.52
1.69050	34.52
1.70717	34.52
1.72383	34.52
1.74050	34.52
1.75717	34.53
1.77383	34.52
1.79050	34.52
1.80717	34.52
1.82383	34.52
1.84050	34.52
1.85717	34.51
1.87383	34.52
1.89050	34.53
1.90717	34.52
1.92383	34.52
1.94050	34.52
1.95717	34.51
1.97383	34.52
1.99050	34.53
2.00717	34.52
2.02383	34.52
2.04050	34.52
2.05717	34.52
2.07383	34.52
2.09050	34.52
2.10717	34.52
2.12383	34.53
2.14050	34.51
2.15717	34.52
2.17383	34.52
2.19050	34.52
2.20717	34.51
2.22383	34.52
2.24050	34.52
2.25717	34.52
2.27383	34.52
2.29050	34.52
2.30717	34.52
2.32383	34.52
2.34050	34.52
2.35717	34.52
2.37383	34.52
2.39050	34.52
2.40717	34.52
2.42383	34.52
2.44050	34.51
2.45717	34.52
2.47383	34.53
2.49050	34.52
2.50717	34.33
2.52383	34.52
2.54050	34.51
2.55717	34.52
2.57383	34.52
2.59050	34.52
2.60717	34.52
2.62383	34.52
2.64050	34.52
2.65717	34.52
2.67383	34.52
2.69050	34.52
2.70717	34.52
2.72383	34.52
2.74050	34.52
2.75717	34.52
2.77383	34.52
2.79050	34.52
2.80717	34.52
2.82383	34.52
2.84050	34.51
2.85717	34.52
2.87383	34.51
2.89050	34.52
2.90717	34.52
2.92383	34.52
2.94050	34.52
2.95717	34.52
2.97383	34.52
2.99050	34.52
3.00717	34.52
3.02383	34.52
3.04050	34.52
3.05717	34.52
3.07383	34.52
3.09050	34.52
3.10717	34.52
3.12383	34.52
3.14050	34.52
3.15717	34.52
3.17383	34.52
3.19050	34.52
3.20717	34.51
3.22383	34.52
3.24050	34.53
3.25717	34.52
3.27383	34.52
3.29050	34.53
3.30717	34.52
3.32383	34.53
3.34050	34.51
3.35717	34.52
3.37383	34.51
3.39050	34.51
3.40717	34.52
3.42383	34.52
3.44050	34.52
3.45717	34.52
3.47383	34.52
3.49050	34.51
3.50717	34.52
3.52383	34.52
3.54050	34.52
3.55717	34.51
3.57383	34.52
3.59050	34.52
3.60717	34.52
3.62383	34.52
3.64050	34.52
3.65717	34.52
3.67383	34.52
3.69050	34.52
3.70717	34.52
3.72383	34.52
3.74050	34.52
3.75717	34.52
3.77383	34.52
3.79050	34.52
3.80717	34.52
3.82383	34.52
3.84050	34.52
3.85717	34.52
3.87383	34.52
3.89050	34.52
3.90717	34.52
3.92383	34.52
3.94050	34.52
3.95717	34.52
3.97383	34.51
3.99050	34.52

[Status Trace (Column Flow)]
Interval(msec)	1000
# of Points	240
Start Time(min)	0.007
End Time(min)	3.990
Intensity Units	
Intensity Multiplier	1
R.Time (min)	Intensity
0.00717	5.51
0.02383	5.22
0.04050	5.39
0.05717	5.64
0.07383	5.69
0.09050	5.53
0.10717	5.51
0.12383	5.51
0.14050	5.51
0.15717	5.51
0.17383	5.51
0.19050	5.51
0.20717	5.51
0.22383	5.51
0.24050	5.51
0.25717	5.51
0.27383	5.51
0.29050	5.51
0.30717	5.51
0.32383	5.51
0.34050	5.51
0.35717	5.51
0.37383	5.51
0.39050	5.51
0.40717	5.51
0.42383	5.51
0.44050	5.51
0.45717	5.51
0.47383	5.51
0.49050	5.51
0.50717	5.51
0.52383	5.51
0.54050	5.51
0.55717	5.51
0.57383	5.51
0.59050	5.51
0.60717	5.51
0.62383	5.51
0.64050	5.51
0.65717	5.51
0.67383	5.51
0.69050	5.51
0.70717	5.51
0.72383	5.51
0.74050	5.51
0.75717	5.51
0.77383	5.51
0.79050	5.51
0.80717	5.51
0.82383	5.51
0.84050	5.51
0.85717	5.51
0.87383	5.51
0.89050	5.51
0.90717	5.51
0.92383	5.51
0.94050	5.51
0.95717	5.51
0.97383	5.51
0.99050	5.51
1.00717	5.51
1.02383	5.51
1.04050	5.51
1.05717	5.51
1.07383	5.51
1.09050	5.51
1.10717	5.51
1.12383	5.51
1.14050	5.51
1.15717	5.51
1.17383	5.51
1.19050	5.51
1.20717	5.51
1.22383	5.51
1.24050	5.51
1.25717	5.51
1.27383	5.51
1.29050	5.51
1.30717	5.51
1.32383	5.51
1.34050	5.51
1.35717	5.51
1.37383	5.51
1.39050	5.51
1.40717	5.51
1.42383	5.51
1.44050	5.51
1.45717	5.51
1.47383	5.51
1.49050	5.51
1.50717	5.51
1.52383	5.51
1.54050	5.51
1.55717	5.51
1.57383	5.51
1.59050	5.51
1.60717	5.51
1.62383	5.51
1.64050	5.50
1.65717	5.49
1.67383	5.48
1.69050	5.47
1.70717	5.46
1.72383	5.45
1.74050	5.44
1.75717	5.43
1.77383	5.42
1.79050	5.41
1.80717	5.40
1.82383	5.39
1.84050	5.38
1.85717	5.37
1.87383	5.36
1.89050	5.35
1.90717	5.34
1.92383	5.33
1.94050	5.32
1.95717	5.31
1.97383	5.30
1.99050	5.29
2.00717	5.28
2.02383	5.27
2.04050	5.26
2.05717	5.25
2.07383	5.24
2.09050	5.24
2.10717	5.22
2.12383	5.22
2.14050	5.21
2.15717	5.20
2.17383	5.19
2.19050	5.18
2.20717	5.17
2.22383	5.16
2.24050	5.15
2.25717	5.14
2.27383	5.13
2.29050	5.12
2.30717	5.11
2.32383	5.10
2.34050	5.10
2.35717	5.09
2.37383	5.08
2.39050	5.08
2.40717	5.08
2.42383	5.08
2.44050	5.08
2.45717	5.08
2.47383	5.08
2.49050	5.08
2.50717	5.08
2.52383	5.08
2.54050	5.08
2.55717	5.08
2.57383	5.08
2.59050	5.08
2.60717	5.07
2.62383	5.07
2.64050	5.07
2.65717	5.07
2.67383	5.07
2.69050	5.07
2.70717	5.07
2.72383	5.07
2.74050	5.07
2.75717	5.07
2.77383	5.07
2.79050	5.07
2.80717	5.07
2.82383	5.07
2.84050	5.07
2.85717	5.07
2.87383	5.07
2.89050	5.07
2.90717	5.07
2.92383	5.07
2.94050	5.07
2.95717	5.07
2.97383	5.07
2.99050	5.07
3.00717	5.07
3.02383	5.07
3.04050	5.07
3.05717	5.07
3.07383	5.07
3.09050	5.07
3.10717	5.07
3.12383	5.07
3.14050	5.07
3.15717	5.07
3.17383	5.07
3.19050	5.07
3.20717	5.07
3.22383	5.07
3.24050	5.07
3.25717	5.07
3.27383	5.07
3.29050	5.07
3.30717	5.07
3.32383	5.07
3.34050	5.07
3.35717	5.07
3.37383	5.07
3.39050	5.07
3.40717	5.07
3.42383	5.07
3.44050	5.07
3.45717	5.07
3.47383	5.07
3.49050	5.07
3.50717	5.07
3.52383	5.07
3.54050	5.07
3.55717	5.07
3.57383	5.07
3.59050	5.07
3.60717	5.07
3.62383	5.07
3.64050	5.07
3.65717	5.07
3.67383	5.07
3.69050	5.07
3.70717	5.07
3.72383	5.07
3.74050	5.07
3.75717	5.07
3.77383	5.07
3.79050	5.07
3.80717	5.07
3.82383	5.07
3.84050	5.07
3.85717	5.07
3.87383	5.07
3.89050	5.07
3.90717	5.07
3.92383	5.07
3.94050	5.07
3.95717	5.07
3.97383	5.07
3.99050	5.07

[Status Trace (Linear Velocity)]
Interval(msec)	1000
# of Points	240
Start Time(min)	0.007
End Time(min)	3.990
Intensity Units	
Intensity Multiplier	1
R.Time (min)	Intensity
0.00717	39.01
0.02383	37.33
0.04050	38.30
0.05717	39.74
0.07383	40.02
0.09050	39.09
0.10717	39.00
0.12383	39.02
0.14050	39.02
0.15717	39.02
0.17383	39.02
0.19050	39.02
0.20717	39.01
0.22383	39.01
0.24050	39.02
0.25717	39.01
0.27383	39.01
0.29050	39.01
0.30717	39.02
0.32383	39.02
0.34050	39.01
0.35717	39.01
0.37383	39.01
0.39050	39.01
0.40717	39.01
0.42383	39.01
0.44050	39.01
0.45717	39.01
0.47383	39.01
0.49050	39.02
0.50717	39.02
0.52383	39.02
0.54050	39.02
0.55717	39.02
0.57383	39.02
0.59050	39.02
0.60717	39.01
0.62383	39.01
0.64050	39.01
0.65717	39.01
0.67383	39.01
0.69050	39.01
0.70717	39.01
0.72383	39.02
0.74050	39.02
0.75717	39.02
0.77383	39.02
0.79050	39.02
0.80717	39.02
0.82383	39.02
0.84050	39.02
0.85717	39.02
0.87383	39.01
0.89050	39.01
0.90717	39.01
0.92383	39.01
0.94050	39.01
0.95717	39.02
0.97383	39.02
0.99050	39.02
1.00717	39.02
1.02383	39.02
1.04050	39.02
1.05717	39.02
1.07383	39.02
1.09050	39.02
1.10717	39.02
1.12383	39.02
1.14050	39.02
1.15717	39.02
1.17383	39.02
1.19050	39.01
1.20717	39.01
1.22383	39.01
1.24050	39.02
1.25717	39.02
1.27383	39.02
1.29050	39.02
1.30717	39.01
1.32383	39.02
1.34050	39.02
1.35717	39.02
1.37383	39.02
1.39050	39.02
1.40717	39.02
1.42383	39.01
1.44050	39.01
1.45717	39.01
1.47383	39.02
1.49050	39.01
1.50717	39.02
1.52383	39.02
1.54050	39.02
1.55717	39.02
1.57383	39.02
1.59050	39.01
1.60717	39.01
1.62383	39.00
1.64050	38.98
1.65717	38.96
1.67383	38.93
1.69050	38.89
1.70717	38.86
1.72383	38.82
1.74050	38.80
1.75717	38.76
1.77383	38.73
1.79050	38.70
1.80717	38.67
1.82383	38.64
1.84050	38.61
1.85717	38.57
1.87383	38.54
1.89050	38.52
1.90717	38.48
1.92383	38.45
1.94050	38.42
1.95717	38.39
1.97383	38.36
1.99050	38.33
2.00717	38.30
2.02383	38.27
2.04050	38.24
2.05717	38.21
2.07383	38.18
2.09050	38.15
2.10717	38.12
2.12383	38.09
2.14050	38.06
2.15717	38.03
2.17383	38.00
2.19050	37.97
2.20717	37.94
2.22383	37.91
2.24050	37.88
2.25717	37.85
2.27383	37.82
2.29050	37.80
2.30717	37.77
2.32383	37.74
2.34050	37.71
2.35717	37.68
2.37383	37.66
2.39050	37.65
2.40717	37.65
2.42383	37.65
2.44050	37.65
2.45717	37.65
2.47383	37.65
2.49050	37.65
2.50717	37.65
2.52383	37.64
2.54050	37.65
2.55717	37.65
2.57383	37.65
2.59050	37.65
2.60717	37.64
2.62383	37.64
2.64050	37.64
2.65717	37.64
2.67383	37.64
2.69050	37.64
2.70717	37.64
2.72383	37.64
2.74050	37.64
2.75717	37.64
2.77383	37.64
2.79050	37.64
2.80717	37.64
2.82383	37.64
2.84050	37.64
2.85717	37.64
2.87383	37.64
2.89050	37.64
2.90717	37.64
2.92383	37.63
2.94050	37.63
2.95717	37.63
2.97383	37.63
2.99050	37.63
3.00717	37.63
3.02383	37.63
3.04050	37.63
3.05717	37.63
3.07383	37.63
3.09050	37.62
3.10717	37.62
3.12383	37.62
3.14050	37.62
3.15717	37.62
3.17383	37.62
3.19050	37.62
3.20717	37.62
3.22383	37.62
3.24050	37.62
3.25717	37.63
3.27383	37.63
3.29050	37.63
3.30717	37.63
3.32383	37.63
3.34050	37.63
3.35717	37.63
3.37383	37.63
3.39050	37.63
3.40717	37.63
3.42383	37.63
3.44050	37.63
3.45717	37.63
3.47383	37.63
3.49050	37.63
3.50717	37.63
3.52383	37.63
3.54050	37.63
3.55717	37.63
3.57383	37.63
3.59050	37.63
3.60717	37.63
3.62383	37.62
3.64050	37.62
3.65717	37.62
3.67383	37.62
3.69050	37.62
3.70717	37.63
3.72383	37.62
3.74050	37.62
3.75717	37.62
3.77383	37.63
3.79050	37.62
3.80717	37.62
3.82383	37.62
3.84050	37.62
3.85717	37.62
3.87383	37.62
3.89050	37.63
3.90717	37.62
3.92383	37.62
3.94050	37.62
3.95717	37.62
3.97383	37.62
3.99050	37.62

