[Header]
Application Name	LabSolutions
Version	5.110
Data File Name	C:\Users\User\Desktop\Junior\UIC Prairie Sampling\2023\8.18.23\081823_024.gcd
Output Date	8/31/2023
Output Time	12:48:07 PM

[File Information]
Type	Data File
Generated	8/30/2023 6:40:48 PM
Generated by	System Administrator
Modified	8/30/2023 6:47:10 PM
Modified by	System Administrator

[Sample Information]
Operator Name	System Administrator
Acquired	8/30/2023 6:43:09 PM
Sample Type	0:Unknown
Level	0
Sample Name	024
Sample ID	024
ISTD Amount1	1
ISTD Amount2	1
ISTD Amount3	1
ISTD Amount4	1
ISTD Amount5	1
ISTD Amount6	1
ISTD Amount7	1
ISTD Amount8	1
ISTD Amount9	1
ISTD Amount10	1
ISTD Amount11	1
ISTD Amount12	1
ISTD Amount13	1
ISTD Amount14	1
ISTD Amount15	1
ISTD Amount16	1
ISTD Amount17	1
ISTD Amount18	1
ISTD Amount19	1
ISTD Amount20	1
ISTD Amount21	1
ISTD Amount22	1
ISTD Amount23	1
ISTD Amount24	1
ISTD Amount25	1
ISTD Amount26	1
ISTD Amount27	1
ISTD Amount28	1
ISTD Amount29	1
ISTD Amount30	1
ISTD Amount31	1
ISTD Amount32	1
Sample Amount	1
Dilution Factor	1
Vial#	23
Injection Volume	1
Injection Count	1
Bar Code	

[Original Files]
Data File	C:\Users\User\Desktop\Junior\UIC Prairie Sampling\8.18.23\081823_024.gcd
Method File	C:\LabSolutions\Data\GHG_4min_2022\ghg3_togas_w_acet_4 min_new_int.gcm
Batch File	C:\LabSolutions\Data\BATCH FILES\081823.gcb
Report Format File	c:\LabSolutions\System\DEFAULT.lsr

[File Description]


[Configuration]
Instrument Name	C0B7VH3-Instrument1
Instrument #	1
Line #	1
# of Detectors	3
Detector ID	DET#1	DET#2	DET#3
Detector Name	FID	PTCD	ECD
# of Channels	1	1	1

[Peak Table(Ch1)]
# of Peaks	3
Peak#	R.Time	I.Time	F.Time	Area	Height	A/H	Conc.	Mark	ID#	Name	k'	Plate #	Plate Ht.	Tailing	Resolution	Sep.Factor	Area Ratio	Height Ratio	Conc. %	Norm Conc.
1	1.498	1.468	1.527	1106	406	2.724	0.000	   	1	CO	0.000	1325	113.240	0.000	0.000	0.000	0	0	0.000	0.000
2	1.564	1.527	1.644	21880	10783	2.029	106.671	 V 	2	CH4	0.044	11169	13.430	1.130	0.590	0.000	0	0	21.331	21.331
3	1.989	1.941	2.510	2041356	975395	2.093	393.407	   	3	CO2	0.328	17217	8.712	1.275	7.100	7.444	0	0	78.669	78.669

[Peak Table(Ch2)]
# of Peaks	0

[Peak Table(Ch3)]
# of Peaks	5
Peak#	R.Time	I.Time	F.Time	Area	Height	A/H	Conc.	Mark	ID#	Name	k'	Plate #	Plate Ht.	Tailing	Resolution	Sep.Factor	Area Ratio	Height Ratio	Conc. %	Norm Conc.
1	2.458	2.440	2.506	740	284	2.609	0.000	   			0.000	14653	10.237	0.000	0.000	0.000	0	0	0.000	0.000
2	2.521	2.506	2.565	327	134	2.447	0.000	 V 			0.025	5937	25.263	0.000	0.588	0.000	0	0	0.000	0.000
3	2.623	2.565	2.693	433	112	3.861	0.000	 V 			0.067	10019	14.971	0.000	0.871	2.647	0	0	0.000	0.000
4	2.891	2.737	3.078	50350	13212	3.811	0.745	   	1	N2O	0.176	13010	11.529	1.538	2.596	2.622	0	0	100.000	100.000
5	3.170	3.082	3.936	21345	866	24.652	0.000	   	2	SF6	0.289	295	509.282	5.090	0.663	1.644	0	0	0.000	0.000

[Compound Results(Ch1)]
# of IDs	6
ID#	Name	R.Time	Area	Height	Conc.	Curve	3rd	2nd	1st	Constant	Area Ratio	Height Ratio	Conc. %	Norm Conc.
1	CO	1.498	1106	406	0.000	Linear	0.000000e+00	0.000000e+00	0.000000e+00	0.000000e+00	0	0	0.000	0.000
2	CH4	1.564	21880	10783	106.671	Linear	0.000000e+00	0.000000e+00	2.051179e+002	0.000000e+00	0	0	21.331	21.331
3	CO2	1.989	2041356	975395	393.407	Linear	0.000000e+00	0.000000e+00	5.188919e+003	0.000000e+00	0	0	78.669	78.669
4	Ethylene	0.000	0	0	0.000	Linear	0.000000e+00	0.000000e+00	0.000000e+00	0.000000e+00	0	0	0.000	0.000
5	Acetylene	0.000	0	0	0.000	Linear	0.000000e+00	0.000000e+00	0.000000e+00	0.000000e+00	0	0	0.000	0.000
6	Ethane	0.000	0	0	0.000	Linear	0.000000e+00	0.000000e+00	0.000000e+00	0.000000e+00	0	0	0.000	0.000

[Compound Results(Ch2)]
# of IDs	5
ID#	Name	R.Time	Area	Height	Conc.	Curve	3rd	2nd	1st	Constant	Area Ratio	Height Ratio	Conc. %	Norm Conc.
1	Hydrogen	0.000	0	0	0.000	Linear	0.000000e+00	0.000000e+00	0.000000e+00	0.000000e+00	0	0	0.000	0.000
2	Oxygen	0.000	0	0	0.000	Linear	0.000000e+00	0.000000e+00	0.000000e+00	0.000000e+00	0	0	0.000	0.000
3	Nitrogen	0.000	0	0	0.000	Linear	0.000000e+00	0.000000e+00	0.000000e+00	0.000000e+00	0	0	0.000	0.000
4	Methane	0.000	0	0	0.000	Linear	0.000000e+00	0.000000e+00	0.000000e+00	0.000000e+00	0	0	0.000	0.000
5	Carbon Monoxide	0.000	0	0	0.000	Linear	0.000000e+00	0.000000e+00	0.000000e+00	0.000000e+00	0	0	0.000	0.000

[Compound Results(Ch3)]
# of IDs	2
ID#	Name	R.Time	Area	Height	Conc.	Curve	3rd	2nd	1st	Constant	Area Ratio	Height Ratio	Conc. %	Norm Conc.
1	N2O	2.891	50350	13212	0.745	Linear	0.000000e+00	0.000000e+00	6.759880e+004	0.000000e+00	0	0	100.000	100.000
2	SF6	3.170	21345	866	0.000	Linear	0.000000e+00	0.000000e+00	0.000000e+00	0.000000e+00	0	0	0.000	0.000

[Group Results(Ch1)]
# of Groups	0

[Group Results(Ch2)]
# of Groups	0

[Group Results(Ch3)]
# of Groups	0

[Chromatogram (Ch1)]
Interval(msec)	220
# of Points	1091
Start Time(min)	0.002
End Time(min)	3.998
R.Time (min)	Intensity
0.00167	-9
0.00533	-11
0.00900	-11
0.01267	-13
0.01633	-15
0.02000	-14
0.02367	-11
0.02733	-9
0.03100	-5
0.03467	-3
0.03833	-6
0.04200	-9
0.04567	-6
0.04933	-0
0.05300	6
0.05667	13
0.06033	17
0.06400	17
0.06767	13
0.07133	7
0.07500	-2
0.07867	-9
0.08233	-15
0.08600	-18
0.08967	-14
0.09333	-8
0.09700	-0
0.10067	4
0.10433	7
0.10800	11
0.11167	11
0.11533	6
0.11900	-2
0.12267	-7
0.12633	-10
0.13000	-11
0.13367	-7
0.13733	1
0.14100	8
0.14467	9
0.14833	2
0.15200	-2
0.15567	-6
0.15933	-9
0.16300	-12
0.16667	-15
0.17033	-19
0.17400	-19
0.17767	-15
0.18133	-10
0.18500	-7
0.18867	-2
0.19233	2
0.19600	3
0.19967	6
0.20333	10
0.20700	14
0.21067	15
0.21433	15
0.21800	14
0.22167	9
0.22533	2
0.22900	-6
0.23267	-13
0.23633	-18
0.24000	-21
0.24367	-20
0.24733	-18
0.25100	-15
0.25467	-13
0.25833	-9
0.26200	-4
0.26567	1
0.26933	3
0.27300	-1
0.27667	-4
0.28033	-4
0.28400	-1
0.28767	4
0.29133	7
0.29500	10
0.29867	14
0.30233	13
0.30600	7
0.30967	0
0.31333	-4
0.31700	-5
0.32067	-5
0.32433	-3
0.32800	2
0.33167	6
0.33533	8
0.33900	6
0.34267	1
0.34633	-4
0.35000	-8
0.35367	-10
0.35733	-12
0.36100	-11
0.36467	-5
0.36833	-0
0.37200	4
0.37567	7
0.37933	7
0.38300	3
0.38667	-4
0.39033	-13
0.39400	-20
0.39767	-24
0.40133	-24
0.40500	-20
0.40867	-16
0.41233	-15
0.41600	-15
0.41967	-15
0.42333	-17
0.42700	-18
0.43067	-18
0.43433	-19
0.43800	-20
0.44167	-20
0.44533	-19
0.44900	-18
0.45267	-16
0.45633	-14
0.46000	-12
0.46367	-13
0.46733	-13
0.47100	-13
0.47467	-12
0.47833	-8
0.48200	-3
0.48567	1
0.48933	3
0.49300	8
0.49667	18
0.50033	27
0.50400	31
0.50767	33
0.51133	29
0.51500	21
0.51867	15
0.52233	13
0.52600	15
0.52967	19
0.53333	18
0.53700	15
0.54067	10
0.54433	9
0.54800	11
0.55167	14
0.55533	20
0.55900	26
0.56267	32
0.56633	37
0.57000	40
0.57367	40
0.57733	42
0.58100	43
0.58467	40
0.58833	37
0.59200	36
0.59567	33
0.59933	30
0.60300	26
0.60667	22
0.61033	20
0.61400	20
0.61767	20
0.62133	19
0.62500	14
0.62867	8
0.63233	3
0.63600	1
0.63967	3
0.64333	8
0.64700	10
0.65067	10
0.65433	8
0.65800	5
0.66167	0
0.66533	-3
0.66900	-2
0.67267	4
0.67633	10
0.68000	13
0.68367	10
0.68733	3
0.69100	-5
0.69467	-14
0.69833	-20
0.70200	-26
0.70567	-29
0.70933	-29
0.71300	-28
0.71667	-23
0.72033	-15
0.72400	-8
0.72767	-7
0.73133	-13
0.73500	-16
0.73867	-14
0.74233	-10
0.74600	-11
0.74967	-14
0.75333	-14
0.75700	-15
0.76067	-12
0.76433	-7
0.76800	-6
0.77167	-6
0.77533	-6
0.77900	-7
0.78267	-8
0.78633	-10
0.79000	-12
0.79367	-13
0.79733	-13
0.80100	-11
0.80467	-7
0.80833	-3
0.81200	-0
0.81567	1
0.81933	3
0.82300	5
0.82667	8
0.83033	7
0.83400	1
0.83767	-6
0.84133	-9
0.84500	-12
0.84867	-18
0.85233	-24
0.85600	-28
0.85967	-27
0.86333	-23
0.86700	-20
0.87067	-19
0.87433	-17
0.87800	-15
0.88167	-10
0.88533	-8
0.88900	-11
0.89267	-16
0.89633	-18
0.90000	-16
0.90367	-15
0.90733	-14
0.91100	-11
0.91467	-6
0.91833	1
0.92200	8
0.92567	12
0.92933	10
0.93300	5
0.93667	-2
0.94033	-11
0.94400	-17
0.94767	-19
0.95133	-20
0.95500	-18
0.95867	-20
0.96233	-25
0.96600	-29
0.96967	-29
0.97333	-29
0.97700	-28
0.98067	-30
0.98433	-29
0.98800	-26
0.99167	-25
0.99533	-26
0.99900	-28
1.00267	-30
1.00633	-32
1.01000	-32
1.01367	-29
1.01733	-25
1.02100	-21
1.02467	-18
1.02833	-14
1.03200	-11
1.03567	-10
1.03933	-13
1.04300	-15
1.04667	-16
1.05033	-14
1.05400	-13
1.05767	-12
1.06133	-11
1.06500	-12
1.06867	-17
1.07233	-21
1.07600	-23
1.07967	-23
1.08333	-21
1.08700	-20
1.09067	-18
1.09433	-15
1.09800	-12
1.10167	-10
1.10533	-12
1.10900	-16
1.11267	-19
1.11633	-21
1.12000	-21
1.12367	-21
1.12733	-19
1.13100	-17
1.13467	-16
1.13833	-15
1.14200	-13
1.14567	-12
1.14933	-14
1.15300	-17
1.15667	-18
1.16033	-18
1.16400	-19
1.16767	-18
1.17133	-16
1.17500	-14
1.17867	-13
1.18233	-14
1.18600	-15
1.18967	-22
1.19333	-28
1.19700	-31
1.20067	-32
1.20433	-29
1.20800	-28
1.21167	-28
1.21533	-31
1.21900	-33
1.22267	-32
1.22633	-29
1.23000	-25
1.23367	-23
1.23733	-26
1.24100	-31
1.24467	-32
1.24833	-32
1.25200	-34
1.25567	-37
1.25933	-38
1.26300	-38
1.26667	-37
1.27033	-35
1.27400	-35
1.27767	-35
1.28133	-35
1.28500	-38
1.28867	-42
1.29233	-48
1.29600	-52
1.29967	-52
1.30333	-49
1.30700	-46
1.31067	-47
1.31433	-51
1.31800	-55
1.32167	-56
1.32533	-57
1.32900	-57
1.33267	-53
1.33633	-47
1.34000	-46
1.34367	-47
1.34733	-51
1.35100	-53
1.35467	-52
1.35833	-49
1.36200	-45
1.36567	-41
1.36933	-37
1.37300	-35
1.37667	-33
1.38033	-32
1.38400	-33
1.38767	-35
1.39133	-37
1.39500	-39
1.39867	-41
1.40233	-42
1.40600	-42
1.40967	-44
1.41333	-47
1.41700	-45
1.42067	-43
1.42433	-44
1.42800	-47
1.43167	-46
1.43533	-37
1.43900	-32
1.44267	-67
1.44633	-155
1.45000	-274
1.45367	-390
1.45733	-480
1.46100	-538
1.46467	-555
1.46833	-522
1.47200	-448
1.47567	-352
1.47933	-257
1.48300	-179
1.48667	-122
1.49033	-82
1.49400	-55
1.49767	-40
1.50133	-36
1.50500	-39
1.50867	-44
1.51233	-48
1.51600	-47
1.51967	-44
1.52333	-40
1.52700	-37
1.53067	4
1.53433	228
1.53800	924
1.54167	2327
1.54533	4293
1.54900	6392
1.55267	8235
1.55633	9621
1.56000	10426
1.56367	10507
1.56733	9777
1.57100	8375
1.57467	6649
1.57833	4953
1.58200	3513
1.58567	2403
1.58933	1598
1.59300	1040
1.59667	664
1.60033	414
1.60400	248
1.60767	141
1.61133	70
1.61500	22
1.61867	-11
1.62233	-32
1.62600	-46
1.62967	-54
1.63333	-58
1.63700	-63
1.64067	-66
1.64433	-68
1.64800	-67
1.65167	-64
1.65533	-58
1.65900	-51
1.66267	-45
1.66633	-43
1.67000	-44
1.67367	-45
1.67733	-48
1.68100	-53
1.68467	-58
1.68833	-64
1.69200	-70
1.69567	-75
1.69933	-76
1.70300	-76
1.70667	-75
1.71033	-70
1.71400	-64
1.71767	-59
1.72133	-56
1.72500	-54
1.72867	-55
1.73233	-60
1.73600	-64
1.73967	-69
1.74333	-76
1.74700	-80
1.75067	-82
1.75433	-81
1.75800	-79
1.76167	-80
1.76533	-81
1.76900	-83
1.77267	-87
1.77633	-92
1.78000	-93
1.78367	-89
1.78733	-83
1.79100	-76
1.79467	-74
1.79833	-72
1.80200	-68
1.80567	-65
1.80933	-64
1.81300	-64
1.81667	-64
1.82033	-59
1.82400	-51
1.82767	-45
1.83133	-41
1.83500	-41
1.83867	-47
1.84233	-54
1.84600	-57
1.84967	-60
1.85333	-63
1.85700	-63
1.86067	-61
1.86433	-63
1.86800	-68
1.87167	-72
1.87533	-75
1.87900	-78
1.88267	-80
1.88633	-83
1.89000	-86
1.89367	-90
1.89733	-93
1.90100	-92
1.90467	-90
1.90833	-90
1.91200	-89
1.91567	-87
1.91933	-87
1.92300	-87
1.92667	-84
1.93033	-79
1.93400	-76
1.93767	-73
1.94133	-68
1.94500	-41
1.94867	139
1.95233	1185
1.95600	5995
1.95967	22659
1.96333	66734
1.96700	156551
1.97067	299212
1.97433	479698
1.97800	666789
1.98167	827011
1.98533	934721
1.98900	975363
1.99267	946082
1.99633	856521
2.00000	726828
2.00367	581751
2.00733	443145
2.01100	324758
2.01467	231615
2.01833	162553
2.02200	113436
2.02567	79458
2.02933	56343
2.03300	40746
2.03667	30228
2.04033	23099
2.04400	18210
2.04767	14795
2.05133	12355
2.05500	10566
2.05867	9219
2.06233	8176
2.06600	7347
2.06967	6674
2.07333	6123
2.07700	5662
2.08067	5268
2.08433	4927
2.08800	4625
2.09167	4354
2.09533	4112
2.09900	3896
2.10267	3703
2.10633	3529
2.11000	3371
2.11367	3227
2.11733	3094
2.12100	2969
2.12467	2849
2.12833	2737
2.13200	2630
2.13567	2528
2.13933	2433
2.14300	2346
2.14667	2267
2.15033	2195
2.15400	2127
2.15767	2060
2.16133	1994
2.16500	1929
2.16867	1867
2.17233	1805
2.17600	1744
2.17967	1688
2.18333	1635
2.18700	1590
2.19067	1551
2.19433	1513
2.19800	1476
2.20167	1441
2.20533	1405
2.20900	1371
2.21267	1338
2.21633	1307
2.22000	1277
2.22367	1249
2.22733	1219
2.23100	1190
2.23467	1164
2.23833	1139
2.24200	1114
2.24567	1088
2.24933	1064
2.25300	1040
2.25667	1018
2.26033	998
2.26400	977
2.26767	955
2.27133	932
2.27500	912
2.27867	892
2.28233	871
2.28600	852
2.28967	836
2.29333	821
2.29700	804
2.30067	789
2.30433	775
2.30800	763
2.31167	757
2.31533	755
2.31900	749
2.32267	735
2.32633	718
2.33000	702
2.33367	686
2.33733	671
2.34100	660
2.34467	655
2.34833	651
2.35200	644
2.35567	631
2.35933	616
2.36300	603
2.36667	591
2.37033	579
2.37400	562
2.37767	547
2.38133	539
2.38500	539
2.38867	540
2.39233	540
2.39600	538
2.39967	535
2.40333	532
2.40700	525
2.41067	516
2.41433	505
2.41800	494
2.42167	486
2.42533	480
2.42900	471
2.43267	462
2.43633	454
2.44000	445
2.44367	433
2.44733	421
2.45100	413
2.45467	408
2.45833	403
2.46200	397
2.46567	390
2.46933	384
2.47300	380
2.47667	381
2.48033	383
2.48400	385
2.48767	384
2.49133	383
2.49500	382
2.49867	380
2.50233	376
2.50600	369
2.50967	362
2.51333	356
2.51700	353
2.52067	350
2.52433	345
2.52800	337
2.53167	330
2.53533	324
2.53900	321
2.54267	324
2.54633	329
2.55000	328
2.55367	319
2.55733	309
2.56100	299
2.56467	289
2.56833	280
2.57200	275
2.57567	273
2.57933	277
2.58300	280
2.58667	279
2.59033	280
2.59400	280
2.59767	278
2.60133	275
2.60500	271
2.60867	267
2.61233	260
2.61600	256
2.61967	254
2.62333	252
2.62700	249
2.63067	248
2.63433	250
2.63800	250
2.64167	245
2.64533	242
2.64900	241
2.65267	241
2.65633	238
2.66000	233
2.66367	226
2.66733	219
2.67100	216
2.67467	215
2.67833	215
2.68200	216
2.68567	218
2.68933	220
2.69300	222
2.69667	222
2.70033	220
2.70400	215
2.70767	210
2.71133	204
2.71500	199
2.71867	195
2.72233	193
2.72600	194
2.72967	196
2.73333	198
2.73700	202
2.74067	205
2.74433	203
2.74800	194
2.75167	186
2.75533	182
2.75900	186
2.76267	188
2.76633	184
2.77000	177
2.77367	169
2.77733	162
2.78100	159
2.78467	159
2.78833	159
2.79200	160
2.79567	164
2.79933	164
2.80300	163
2.80667	165
2.81033	169
2.81400	173
2.81767	172
2.82133	168
2.82500	162
2.82867	157
2.83233	150
2.83600	144
2.83967	143
2.84333	146
2.84700	152
2.85067	157
2.85433	159
2.85800	158
2.86167	158
2.86533	158
2.86900	154
2.87267	150
2.87633	147
2.88000	145
2.88367	144
2.88733	144
2.89100	147
2.89467	150
2.89833	150
2.90200	146
2.90567	142
2.90933	138
2.91300	134
2.91667	131
2.92033	131
2.92400	133
2.92767	138
2.93133	143
2.93500	143
2.93867	141
2.94233	135
2.94600	131
2.94967	131
2.95333	135
2.95700	139
2.96067	143
2.96433	146
2.96800	146
2.97167	143
2.97533	137
2.97900	132
2.98267	129
2.98633	135
2.99000	144
2.99367	149
2.99733	148
3.00100	143
3.00467	132
3.00833	122
3.01200	116
3.01567	114
3.01933	111
3.02300	109
3.02667	108
3.03033	111
3.03400	116
3.03767	121
3.04133	124
3.04500	124
3.04867	123
3.05233	123
3.05600	124
3.05967	125
3.06333	122
3.06700	120
3.07067	124
3.07433	128
3.07800	131
3.08167	130
3.08533	127
3.08900	121
3.09267	117
3.09633	114
3.10000	111
3.10367	111
3.10733	109
3.11100	107
3.11467	105
3.11833	104
3.12200	105
3.12567	109
3.12933	111
3.13300	109
3.13667	104
3.14033	99
3.14400	93
3.14767	91
3.15133	92
3.15500	94
3.15867	93
3.16233	88
3.16600	86
3.16967	88
3.17333	92
3.17700	94
3.18067	92
3.18433	92
3.18800	91
3.19167	91
3.19533	91
3.19900	91
3.20267	92
3.20633	93
3.21000	93
3.21367	92
3.21733	93
3.22100	95
3.22467	97
3.22833	98
3.23200	96
3.23567	91
3.23933	85
3.24300	79
3.24667	76
3.25033	74
3.25400	76
3.25767	79
3.26133	82
3.26500	89
3.26867	97
3.27233	102
3.27600	106
3.27967	107
3.28333	106
3.28700	103
3.29067	99
3.29433	96
3.29800	96
3.30167	100
3.30533	101
3.30900	99
3.31267	96
3.31633	90
3.32000	85
3.32367	84
3.32733	84
3.33100	84
3.33467	83
3.33833	80
3.34200	78
3.34567	81
3.34933	86
3.35300	90
3.35667	93
3.36033	90
3.36400	84
3.36767	79
3.37133	75
3.37500	73
3.37867	73
3.38233	75
3.38600	77
3.38967	78
3.39333	80
3.39700	85
3.40067	86
3.40433	85
3.40800	81
3.41167	75
3.41533	71
3.41900	70
3.42267	71
3.42633	75
3.43000	81
3.43367	85
3.43733	85
3.44100	83
3.44467	81
3.44833	79
3.45200	75
3.45567	70
3.45933	67
3.46300	64
3.46667	64
3.47033	69
3.47400	77
3.47767	83
3.48133	83
3.48500	80
3.48867	77
3.49233	75
3.49600	73
3.49967	71
3.50333	66
3.50700	61
3.51067	55
3.51433	52
3.51800	52
3.52167	52
3.52533	52
3.52900	54
3.53267	58
3.53633	63
3.54000	68
3.54367	73
3.54733	75
3.55100	70
3.55467	65
3.55833	62
3.56200	60
3.56567	59
3.56933	62
3.57300	65
3.57667	67
3.58033	69
3.58400	71
3.58767	70
3.59133	68
3.59500	68
3.59867	70
3.60233	70
3.60600	68
3.60967	66
3.61333	63
3.61700	59
3.62067	54
3.62433	51
3.62800	50
3.63167	56
3.63533	67
3.63900	71
3.64267	68
3.64633	63
3.65000	54
3.65367	46
3.65733	42
3.66100	39
3.66467	39
3.66833	42
3.67200	45
3.67567	46
3.67933	48
3.68300	52
3.68667	52
3.69033	48
3.69400	46
3.69767	48
3.70133	53
3.70500	57
3.70867	60
3.71233	61
3.71600	60
3.71967	59
3.72333	59
3.72700	56
3.73067	52
3.73433	48
3.73800	43
3.74167	37
3.74533	34
3.74900	35
3.75267	38
3.75633	39
3.76000	44
3.76367	50
3.76733	56
3.77100	57
3.77467	53
3.77833	45
3.78200	38
3.78567	32
3.78933	31
3.79300	34
3.79667	38
3.80033	44
3.80400	54
3.80767	62
3.81133	60
3.81500	55
3.81867	51
3.82233	51
3.82600	53
3.82967	56
3.83333	54
3.83700	45
3.84067	38
3.84433	34
3.84800	31
3.85167	30
3.85533	29
3.85900	30
3.86267	31
3.86633	30
3.87000	28
3.87367	28
3.87733	29
3.88100	32
3.88467	37
3.88833	43
3.89200	51
3.89567	57
3.89933	58
3.90300	54
3.90667	46
3.91033	41
3.91400	40
3.91767	44
3.92133	46
3.92500	46
3.92867	43
3.93233	40
3.93600	38
3.93967	36
3.94333	34
3.94700	34
3.95067	35
3.95433	33
3.95800	30
3.96167	28
3.96533	26
3.96900	24
3.97267	21
3.97633	19
3.98000	18
3.98367	20
3.98733	27
3.99100	33
3.99467	34
3.99833	30

[Chromatogram (Ch2)]
Interval(msec)	220
# of Points	1091
Start Time(min)	0.002
End Time(min)	3.998
R.Time (min)	Intensity
0.00167	-0
0.00533	-1
0.00900	-1
0.01267	-1
0.01633	-1
0.02000	-2
0.02367	-2
0.02733	-2
0.03100	-2
0.03467	-2
0.03833	-2
0.04200	-2
0.04567	-2
0.04933	-2
0.05300	-2
0.05667	-1
0.06033	-1
0.06400	-1
0.06767	-1
0.07133	-0
0.07500	0
0.07867	0
0.08233	0
0.08600	1
0.08967	1
0.09333	1
0.09700	1
0.10067	1
0.10433	1
0.10800	0
0.11167	-0
0.11533	-0
0.11900	-0
0.12267	-0
0.12633	-0
0.13000	-0
0.13367	0
0.13733	-0
0.14100	-0
0.14467	-0
0.14833	-0
0.15200	-0
0.15567	0
0.15933	0
0.16300	0
0.16667	1
0.17033	1
0.17400	1
0.17767	1
0.18133	0
0.18500	-0
0.18867	-1
0.19233	-1
0.19600	-1
0.19967	-2
0.20333	-2
0.20700	-2
0.21067	-2
0.21433	-2
0.21800	-2
0.22167	-2
0.22533	-2
0.22900	-2
0.23267	-2
0.23633	-2
0.24000	-2
0.24367	-2
0.24733	-2
0.25100	-3
0.25467	-2
0.25833	-2
0.26200	-2
0.26567	-2
0.26933	-2
0.27300	-2
0.27667	-2
0.28033	-2
0.28400	-1
0.28767	-1
0.29133	-1
0.29500	-1
0.29867	-0
0.30233	0
0.30600	1
0.30967	1
0.31333	1
0.31700	1
0.32067	1
0.32433	0
0.32800	0
0.33167	0
0.33533	0
0.33900	0
0.34267	0
0.34633	0
0.35000	0
0.35367	0
0.35733	-0
0.36100	-0
0.36467	-1
0.36833	-1
0.37200	-1
0.37567	-1
0.37933	-1
0.38300	-1
0.38667	-1
0.39033	-1
0.39400	-1
0.39767	-1
0.40133	-1
0.40500	-0
0.40867	-0
0.41233	-0
0.41600	-0
0.41967	-0
0.42333	-0
0.42700	-1
0.43067	-1
0.43433	-1
0.43800	-1
0.44167	-1
0.44533	-1
0.44900	-1
0.45267	-1
0.45633	-1
0.46000	-1
0.46367	-1
0.46733	-1
0.47100	-1
0.47467	-1
0.47833	-1
0.48200	-1
0.48567	-1
0.48933	-1
0.49300	-1
0.49667	-1
0.50033	-0
0.50400	-0
0.50767	-0
0.51133	-0
0.51500	-1
0.51867	-1
0.52233	-1
0.52600	-1
0.52967	-1
0.53333	-1
0.53700	-1
0.54067	-1
0.54433	-2
0.54800	-2
0.55167	-2
0.55533	-2
0.55900	-2
0.56267	-2
0.56633	-2
0.57000	-2
0.57367	-2
0.57733	-2
0.58100	-2
0.58467	-2
0.58833	-2
0.59200	-2
0.59567	-1
0.59933	-1
0.60300	-1
0.60667	-1
0.61033	-1
0.61400	-1
0.61767	-2
0.62133	-2
0.62500	-2
0.62867	-2
0.63233	-2
0.63600	-1
0.63967	-1
0.64333	-1
0.64700	-1
0.65067	-1
0.65433	-1
0.65800	-1
0.66167	-1
0.66533	-1
0.66900	-2
0.67267	-2
0.67633	-2
0.68000	-2
0.68367	-2
0.68733	-2
0.69100	-2
0.69467	-2
0.69833	-2
0.70200	-2
0.70567	-2
0.70933	-2
0.71300	-2
0.71667	-2
0.72033	-2
0.72400	-2
0.72767	-2
0.73133	-2
0.73500	-2
0.73867	-2
0.74233	-2
0.74600	-2
0.74967	-2
0.75333	-2
0.75700	-2
0.76067	-2
0.76433	-2
0.76800	-2
0.77167	-2
0.77533	-2
0.77900	-2
0.78267	-2
0.78633	-2
0.79000	-2
0.79367	-2
0.79733	-2
0.80100	-3
0.80467	-3
0.80833	-3
0.81200	-3
0.81567	-3
0.81933	-3
0.82300	-3
0.82667	-2
0.83033	-2
0.83400	-2
0.83767	-2
0.84133	-2
0.84500	-2
0.84867	-2
0.85233	-2
0.85600	-2
0.85967	-2
0.86333	-2
0.86700	-2
0.87067	-2
0.87433	-2
0.87800	-2
0.88167	-2
0.88533	-3
0.88900	-3
0.89267	-3
0.89633	-3
0.90000	-3
0.90367	-3
0.90733	-3
0.91100	-3
0.91467	-3
0.91833	-4
0.92200	-3
0.92567	-3
0.92933	-3
0.93300	-3
0.93667	-3
0.94033	-3
0.94400	-3
0.94767	-3
0.95133	-3
0.95500	-3
0.95867	-3
0.96233	-3
0.96600	-3
0.96967	-3
0.97333	-3
0.97700	-3
0.98067	-3
0.98433	-3
0.98800	-2
0.99167	-2
0.99533	-2
0.99900	-2
1.00267	-2
1.00633	-2
1.01000	-2
1.01367	-2
1.01733	-2
1.02100	-2
1.02467	-2
1.02833	-2
1.03200	-2
1.03567	-2
1.03933	-2
1.04300	-2
1.04667	-2
1.05033	-2
1.05400	-2
1.05767	-3
1.06133	-3
1.06500	-3
1.06867	-3
1.07233	-3
1.07600	-3
1.07967	-3
1.08333	-3
1.08700	-3
1.09067	-3
1.09433	-3
1.09800	-3
1.10167	-3
1.10533	-2
1.10900	-2
1.11267	-2
1.11633	-3
1.12000	-3
1.12367	-3
1.12733	-3
1.13100	-3
1.13467	-3
1.13833	-3
1.14200	-3
1.14567	-3
1.14933	-4
1.15300	-4
1.15667	-4
1.16033	-4
1.16400	-4
1.16767	-4
1.17133	-3
1.17500	-3
1.17867	-3
1.18233	-3
1.18600	-3
1.18967	-3
1.19333	-3
1.19700	-3
1.20067	-4
1.20433	-4
1.20800	-4
1.21167	-4
1.21533	-5
1.21900	-5
1.22267	-5
1.22633	-5
1.23000	-5
1.23367	-5
1.23733	-5
1.24100	-5
1.24467	-5
1.24833	-5
1.25200	-5
1.25567	-5
1.25933	-5
1.26300	-5
1.26667	-5
1.27033	-4
1.27400	-4
1.27767	-4
1.28133	-4
1.28500	-4
1.28867	-3
1.29233	-3
1.29600	-3
1.29967	-3
1.30333	-3
1.30700	-3
1.31067	-3
1.31433	-3
1.31800	-2
1.32167	-2
1.32533	-2
1.32900	-2
1.33267	-2
1.33633	-3
1.34000	-3
1.34367	-3
1.34733	-3
1.35100	-4
1.35467	-4
1.35833	-4
1.36200	-4
1.36567	-4
1.36933	-3
1.37300	-3
1.37667	-3
1.38033	-3
1.38400	-3
1.38767	-3
1.39133	-3
1.39500	-3
1.39867	-3
1.40233	-3
1.40600	-3
1.40967	-3
1.41333	-3
1.41700	-3
1.42067	-3
1.42433	-3
1.42800	-3
1.43167	-4
1.43533	-4
1.43900	-4
1.44267	-4
1.44633	-4
1.45000	-4
1.45367	-4
1.45733	-3
1.46100	-4
1.46467	-4
1.46833	-4
1.47200	-4
1.47567	-4
1.47933	-4
1.48300	-4
1.48667	-4
1.49033	-4
1.49400	-4
1.49767	-4
1.50133	-4
1.50500	-4
1.50867	-4
1.51233	-4
1.51600	-4
1.51967	-4
1.52333	-4
1.52700	-4
1.53067	-4
1.53433	-3
1.53800	-3
1.54167	-3
1.54533	-3
1.54900	-3
1.55267	-3
1.55633	-3
1.56000	-3
1.56367	-3
1.56733	-3
1.57100	-3
1.57467	-3
1.57833	-3
1.58200	-3
1.58567	-3
1.58933	-3
1.59300	-4
1.59667	-5
1.60033	-6
1.60400	-7
1.60767	-8
1.61133	-10
1.61500	-12
1.61867	-14
1.62233	-17
1.62600	-19
1.62967	-23
1.63333	-26
1.63700	-30
1.64067	-33
1.64433	-36
1.64800	-40
1.65167	-43
1.65533	-46
1.65900	-49
1.66267	-53
1.66633	-57
1.67000	-60
1.67367	-65
1.67733	-69
1.68100	-73
1.68467	-78
1.68833	-82
1.69200	-85
1.69567	-88
1.69933	-91
1.70300	-92
1.70667	-94
1.71033	-95
1.71400	-96
1.71767	-96
1.72133	-97
1.72500	-97
1.72867	-98
1.73233	-98
1.73600	-98
1.73967	-98
1.74333	-98
1.74700	-97
1.75067	-97
1.75433	-97
1.75800	-97
1.76167	-97
1.76533	-98
1.76900	-99
1.77267	-100
1.77633	-101
1.78000	-101
1.78367	-101
1.78733	-102
1.79100	-102
1.79467	-101
1.79833	-101
1.80200	-101
1.80567	-100
1.80933	-100
1.81300	-100
1.81667	-100
1.82033	-100
1.82400	-100
1.82767	-101
1.83133	-101
1.83500	-101
1.83867	-101
1.84233	-101
1.84600	-100
1.84967	-99
1.85333	-99
1.85700	-99
1.86067	-99
1.86433	-99
1.86800	-100
1.87167	-100
1.87533	-101
1.87900	-101
1.88267	-101
1.88633	-101
1.89000	-101
1.89367	-101
1.89733	-101
1.90100	-101
1.90467	-101
1.90833	-100
1.91200	-100
1.91567	-100
1.91933	-100
1.92300	-100
1.92667	-100
1.93033	-99
1.93400	-99
1.93767	-99
1.94133	-98
1.94500	-98
1.94867	-98
1.95233	-98
1.95600	-98
1.95967	-98
1.96333	-98
1.96700	-97
1.97067	-97
1.97433	-96
1.97800	-96
1.98167	-96
1.98533	-96
1.98900	-96
1.99267	-96
1.99633	-95
2.00000	-95
2.00367	-95
2.00733	-95
2.01100	-95
2.01467	-95
2.01833	-94
2.02200	-94
2.02567	-93
2.02933	-92
2.03300	-92
2.03667	-92
2.04033	-91
2.04400	-91
2.04767	-91
2.05133	-90
2.05500	-90
2.05867	-90
2.06233	-90
2.06600	-90
2.06967	-90
2.07333	-91
2.07700	-91
2.08067	-91
2.08433	-90
2.08800	-90
2.09167	-89
2.09533	-89
2.09900	-88
2.10267	-87
2.10633	-87
2.11000	-86
2.11367	-86
2.11733	-85
2.12100	-85
2.12467	-84
2.12833	-84
2.13200	-85
2.13567	-85
2.13933	-85
2.14300	-85
2.14667	-85
2.15033	-84
2.15400	-84
2.15767	-83
2.16133	-83
2.16500	-83
2.16867	-82
2.17233	-82
2.17600	-82
2.17967	-82
2.18333	-81
2.18700	-81
2.19067	-81
2.19433	-80
2.19800	-80
2.20167	-79
2.20533	-78
2.20900	-77
2.21267	-77
2.21633	-76
2.22000	-76
2.22367	-76
2.22733	-76
2.23100	-75
2.23467	-75
2.23833	-75
2.24200	-75
2.24567	-74
2.24933	-74
2.25300	-74
2.25667	-73
2.26033	-73
2.26400	-73
2.26767	-73
2.27133	-73
2.27500	-73
2.27867	-74
2.28233	-74
2.28600	-74
2.28967	-74
2.29333	-74
2.29700	-73
2.30067	-73
2.30433	-72
2.30800	-71
2.31167	-71
2.31533	-71
2.31900	-71
2.32267	-71
2.32633	-70
2.33000	-70
2.33367	-69
2.33733	-69
2.34100	-69
2.34467	-69
2.34833	-69
2.35200	-70
2.35567	-70
2.35933	-69
2.36300	-68
2.36667	-67
2.37033	-66
2.37400	-63
2.37767	-60
2.38133	-57
2.38500	-53
2.38867	-49
2.39233	-44
2.39600	-40
2.39967	-35
2.40333	-30
2.40700	-25
2.41067	-21
2.41433	-17
2.41800	-13
2.42167	-10
2.42533	-8
2.42900	-6
2.43267	-4
2.43633	-2
2.44000	-1
2.44367	-0
2.44733	1
2.45100	2
2.45467	3
2.45833	5
2.46200	6
2.46567	7
2.46933	8
2.47300	9
2.47667	10
2.48033	11
2.48400	11
2.48767	12
2.49133	12
2.49500	12
2.49867	13
2.50233	13
2.50600	14
2.50967	15
2.51333	16
2.51700	16
2.52067	17
2.52433	17
2.52800	17
2.53167	17
2.53533	16
2.53900	16
2.54267	16
2.54633	16
2.55000	16
2.55367	15
2.55733	15
2.56100	14
2.56467	13
2.56833	13
2.57200	12
2.57567	12
2.57933	12
2.58300	13
2.58667	13
2.59033	13
2.59400	14
2.59767	14
2.60133	15
2.60500	16
2.60867	16
2.61233	17
2.61600	17
2.61967	17
2.62333	17
2.62700	17
2.63067	17
2.63433	17
2.63800	17
2.64167	18
2.64533	18
2.64900	19
2.65267	20
2.65633	20
2.66000	21
2.66367	22
2.66733	23
2.67100	23
2.67467	23
2.67833	23
2.68200	24
2.68567	24
2.68933	24
2.69300	24
2.69667	24
2.70033	23
2.70400	23
2.70767	22
2.71133	22
2.71500	21
2.71867	21
2.72233	21
2.72600	22
2.72967	22
2.73333	23
2.73700	23
2.74067	24
2.74433	24
2.74800	24
2.75167	25
2.75533	25
2.75900	25
2.76267	25
2.76633	26
2.77000	26
2.77367	26
2.77733	26
2.78100	26
2.78467	26
2.78833	26
2.79200	26
2.79567	25
2.79933	25
2.80300	25
2.80667	25
2.81033	24
2.81400	24
2.81767	24
2.82133	24
2.82500	24
2.82867	24
2.83233	24
2.83600	24
2.83967	24
2.84333	24
2.84700	24
2.85067	24
2.85433	23
2.85800	21
2.86167	18
2.86533	11
2.86900	2
2.87267	-12
2.87633	-31
2.88000	-56
2.88367	-87
2.88733	-124
2.89100	-168
2.89467	-219
2.89833	-276
2.90200	-339
2.90567	-407
2.90933	-481
2.91300	-559
2.91667	-641
2.92033	-727
2.92400	-815
2.92767	-906
2.93133	-999
2.93500	-1093
2.93867	-1188
2.94233	-1286
2.94600	-1380
2.94967	-1460
2.95333	-1513
2.95700	-1531
2.96067	-1512
2.96433	-1460
2.96800	-1381
2.97167	-1285
2.97533	-1178
2.97900	-1067
2.98267	-957
2.98633	-851
2.99000	-750
2.99367	-658
2.99733	-573
3.00100	-498
3.00467	-430
3.00833	-370
3.01200	-317
3.01567	-272
3.01933	-232
3.02300	-197
3.02667	-167
3.03033	-142
3.03400	-120
3.03767	-101
3.04133	-85
3.04500	-71
3.04867	-60
3.05233	-49
3.05600	-41
3.05967	-33
3.06333	-27
3.06700	-21
3.07067	-16
3.07433	-12
3.07800	-9
3.08167	-6
3.08533	-3
3.08900	-1
3.09267	2
3.09633	3
3.10000	5
3.10367	7
3.10733	8
3.11100	10
3.11467	11
3.11833	12
3.12200	13
3.12567	14
3.12933	15
3.13300	16
3.13667	17
3.14033	17
3.14400	18
3.14767	19
3.15133	20
3.15500	20
3.15867	20
3.16233	21
3.16600	21
3.16967	21
3.17333	21
3.17700	21
3.18067	22
3.18433	22
3.18800	22
3.19167	23
3.19533	23
3.19900	23
3.20267	23
3.20633	23
3.21000	23
3.21367	23
3.21733	23
3.22100	24
3.22467	24
3.22833	24
3.23200	24
3.23567	24
3.23933	24
3.24300	24
3.24667	24
3.25033	24
3.25400	24
3.25767	25
3.26133	25
3.26500	25
3.26867	25
3.27233	26
3.27600	26
3.27967	26
3.28333	26
3.28700	26
3.29067	26
3.29433	26
3.29800	27
3.30167	27
3.30533	27
3.30900	27
3.31267	27
3.31633	27
3.32000	27
3.32367	27
3.32733	27
3.33100	27
3.33467	27
3.33833	27
3.34200	27
3.34567	27
3.34933	27
3.35300	27
3.35667	27
3.36033	28
3.36400	28
3.36767	28
3.37133	28
3.37500	28
3.37867	28
3.38233	28
3.38600	28
3.38967	28
3.39333	28
3.39700	28
3.40067	28
3.40433	28
3.40800	28
3.41167	27
3.41533	27
3.41900	27
3.42267	27
3.42633	27
3.43000	27
3.43367	27
3.43733	27
3.44100	27
3.44467	27
3.44833	27
3.45200	27
3.45567	27
3.45933	27
3.46300	27
3.46667	27
3.47033	27
3.47400	27
3.47767	27
3.48133	27
3.48500	27
3.48867	27
3.49233	27
3.49600	27
3.49967	27
3.50333	27
3.50700	27
3.51067	28
3.51433	28
3.51800	28
3.52167	28
3.52533	28
3.52900	28
3.53267	28
3.53633	28
3.54000	28
3.54367	28
3.54733	28
3.55100	28
3.55467	28
3.55833	28
3.56200	28
3.56567	28
3.56933	29
3.57300	29
3.57667	29
3.58033	29
3.58400	29
3.58767	29
3.59133	29
3.59500	29
3.59867	29
3.60233	29
3.60600	29
3.60967	29
3.61333	29
3.61700	29
3.62067	28
3.62433	28
3.62800	28
3.63167	28
3.63533	28
3.63900	28
3.64267	28
3.64633	28
3.65000	28
3.65367	28
3.65733	28
3.66100	28
3.66467	28
3.66833	28
3.67200	28
3.67567	28
3.67933	28
3.68300	28
3.68667	28
3.69033	28
3.69400	28
3.69767	28
3.70133	28
3.70500	29
3.70867	29
3.71233	29
3.71600	29
3.71967	29
3.72333	29
3.72700	29
3.73067	29
3.73433	29
3.73800	29
3.74167	29
3.74533	28
3.74900	28
3.75267	28
3.75633	28
3.76000	28
3.76367	28
3.76733	28
3.77100	28
3.77467	28
3.77833	28
3.78200	28
3.78567	28
3.78933	28
3.79300	28
3.79667	28
3.80033	28
3.80400	28
3.80767	28
3.81133	28
3.81500	27
3.81867	27
3.82233	27
3.82600	27
3.82967	27
3.83333	28
3.83700	28
3.84067	28
3.84433	28
3.84800	29
3.85167	29
3.85533	29
3.85900	29
3.86267	29
3.86633	29
3.87000	29
3.87367	29
3.87733	29
3.88100	29
3.88467	29
3.88833	30
3.89200	30
3.89567	30
3.89933	30
3.90300	30
3.90667	30
3.91033	29
3.91400	29
3.91767	29
3.92133	29
3.92500	29
3.92867	29
3.93233	29
3.93600	29
3.93967	29
3.94333	29
3.94700	29
3.95067	28
3.95433	28
3.95800	28
3.96167	28
3.96533	28
3.96900	28
3.97267	28
3.97633	28
3.98000	28
3.98367	28
3.98733	28
3.99100	28
3.99467	28
3.99833	28

[Chromatogram (Ch3)]
Interval(msec)	220
# of Points	1091
Start Time(min)	0.002
End Time(min)	3.998
R.Time (min)	Intensity
0.00167	-0
0.00533	-1
0.00900	-2
0.01267	-3
0.01633	-5
0.02000	-4
0.02367	-2
0.02733	-1
0.03100	1
0.03467	0
0.03833	1
0.04200	-1
0.04567	-1
0.04933	-0
0.05300	-2
0.05667	-3
0.06033	-3
0.06400	-1
0.06767	-1
0.07133	-2
0.07500	-5
0.07867	-5
0.08233	-5
0.08600	-6
0.08967	-4
0.09333	-3
0.09700	-2
0.10067	-2
0.10433	-1
0.10800	-1
0.11167	-2
0.11533	-2
0.11900	-1
0.12267	0
0.12633	1
0.13000	1
0.13367	0
0.13733	-1
0.14100	-2
0.14467	-3
0.14833	-2
0.15200	-3
0.15567	-3
0.15933	-1
0.16300	-1
0.16667	-2
0.17033	-2
0.17400	-1
0.17767	-0
0.18133	-1
0.18500	-3
0.18867	-5
0.19233	-7
0.19600	-9
0.19967	-10
0.20333	-10
0.20700	-8
0.21067	-8
0.21433	-8
0.21800	-8
0.22167	-7
0.22533	-8
0.22900	-8
0.23267	-8
0.23633	-8
0.24000	-8
0.24367	-8
0.24733	-7
0.25100	-8
0.25467	-8
0.25833	-8
0.26200	-9
0.26567	-8
0.26933	-7
0.27300	-7
0.27667	-5
0.28033	-5
0.28400	-4
0.28767	-4
0.29133	-6
0.29500	-5
0.29867	-6
0.30233	-5
0.30600	-4
0.30967	-4
0.31333	-4
0.31700	-5
0.32067	-3
0.32433	-3
0.32800	-5
0.33167	-8
0.33533	-10
0.33900	-10
0.34267	-8
0.34633	-8
0.35000	-9
0.35367	-9
0.35733	-7
0.36100	-8
0.36467	-9
0.36833	-8
0.37200	-7
0.37567	-6
0.37933	-5
0.38300	-5
0.38667	-6
0.39033	-7
0.39400	-8
0.39767	-7
0.40133	-5
0.40500	-5
0.40867	-3
0.41233	-2
0.41600	-1
0.41967	-3
0.42333	-4
0.42700	-5
0.43067	-4
0.43433	-4
0.43800	-7
0.44167	-6
0.44533	-4
0.44900	-2
0.45267	-2
0.45633	-3
0.46000	-2
0.46367	-2
0.46733	-3
0.47100	-6
0.47467	-8
0.47833	-10
0.48200	-13
0.48567	-13
0.48933	-11
0.49300	-13
0.49667	-12
0.50033	-10
0.50400	-7
0.50767	-5
0.51133	-5
0.51500	-7
0.51867	-6
0.52233	-6
0.52600	-8
0.52967	-9
0.53333	-8
0.53700	-5
0.54067	-2
0.54433	0
0.54800	0
0.55167	-2
0.55533	-2
0.55900	-2
0.56267	-3
0.56633	-4
0.57000	-4
0.57367	-3
0.57733	-3
0.58100	-2
0.58467	-2
0.58833	-1
0.59200	-0
0.59567	-1
0.59933	-2
0.60300	-4
0.60667	-4
0.61033	-5
0.61400	-6
0.61767	-6
0.62133	-6
0.62500	-7
0.62867	-5
0.63233	-3
0.63600	-3
0.63967	-6
0.64333	-6
0.64700	-5
0.65067	-3
0.65433	-2
0.65800	-4
0.66167	-6
0.66533	-7
0.66900	-8
0.67267	-6
0.67633	-5
0.68000	-3
0.68367	-4
0.68733	-3
0.69100	-4
0.69467	-4
0.69833	-4
0.70200	-2
0.70567	-1
0.70933	-2
0.71300	-2
0.71667	-2
0.72033	-1
0.72400	1
0.72767	0
0.73133	1
0.73500	1
0.73867	1
0.74233	-1
0.74600	-2
0.74967	-1
0.75333	-2
0.75700	-1
0.76067	1
0.76433	1
0.76800	1
0.77167	0
0.77533	1
0.77900	-0
0.78267	-3
0.78633	-4
0.79000	-5
0.79367	-4
0.79733	-3
0.80100	-3
0.80467	-2
0.80833	-3
0.81200	-4
0.81567	-2
0.81933	2
0.82300	3
0.82667	4
0.83033	3
0.83400	2
0.83767	-1
0.84133	-4
0.84500	-3
0.84867	-4
0.85233	-4
0.85600	-4
0.85967	-3
0.86333	0
0.86700	2
0.87067	3
0.87433	2
0.87800	1
0.88167	2
0.88533	4
0.88900	3
0.89267	2
0.89633	0
0.90000	-0
0.90367	0
0.90733	-0
0.91100	0
0.91467	-0
0.91833	-1
0.92200	-0
0.92567	-0
0.92933	2
0.93300	3
0.93667	2
0.94033	2
0.94400	4
0.94767	6
0.95133	5
0.95500	3
0.95867	3
0.96233	2
0.96600	1
0.96967	0
0.97333	-0
0.97700	-1
0.98067	-1
0.98433	-1
0.98800	-0
0.99167	1
0.99533	1
0.99900	-1
1.00267	-2
1.00633	-1
1.01000	-1
1.01367	-0
1.01733	1
1.02100	0
1.02467	1
1.02833	-0
1.03200	-3
1.03567	-3
1.03933	-2
1.04300	-1
1.04667	0
1.05033	2
1.05400	5
1.05767	6
1.06133	8
1.06500	8
1.06867	6
1.07233	6
1.07600	7
1.07967	8
1.08333	8
1.08700	5
1.09067	4
1.09433	2
1.09800	0
1.10167	0
1.10533	0
1.10900	2
1.11267	2
1.11633	3
1.12000	4
1.12367	3
1.12733	4
1.13100	5
1.13467	6
1.13833	8
1.14200	9
1.14567	6
1.14933	2
1.15300	0
1.15667	2
1.16033	3
1.16400	5
1.16767	6
1.17133	8
1.17500	8
1.17867	8
1.18233	7
1.18600	5
1.18967	3
1.19333	3
1.19700	3
1.20067	2
1.20433	1
1.20800	3
1.21167	5
1.21533	4
1.21900	3
1.22267	4
1.22633	4
1.23000	3
1.23367	4
1.23733	3
1.24100	1
1.24467	-1
1.24833	-2
1.25200	1
1.25567	6
1.25933	6
1.26300	5
1.26667	4
1.27033	4
1.27400	3
1.27767	2
1.28133	4
1.28500	4
1.28867	4
1.29233	3
1.29600	3
1.29967	4
1.30333	5
1.30700	5
1.31067	5
1.31433	4
1.31800	5
1.32167	5
1.32533	5
1.32900	4
1.33267	2
1.33633	-1
1.34000	-3
1.34367	-5
1.34733	-5
1.35100	-4
1.35467	-2
1.35833	-1
1.36200	-1
1.36567	-2
1.36933	-2
1.37300	-2
1.37667	-4
1.38033	-3
1.38400	-2
1.38767	-1
1.39133	-2
1.39500	-3
1.39867	-1
1.40233	-2
1.40600	-2
1.40967	-2
1.41333	-1
1.41700	2
1.42067	4
1.42433	5
1.42800	4
1.43167	3
1.43533	2
1.43900	0
1.44267	2
1.44633	3
1.45000	3
1.45367	5
1.45733	6
1.46100	7
1.46467	8
1.46833	5
1.47200	3
1.47567	1
1.47933	0
1.48300	1
1.48667	1
1.49033	1
1.49400	0
1.49767	2
1.50133	5
1.50500	4
1.50867	5
1.51233	4
1.51600	3
1.51967	4
1.52333	5
1.52700	7
1.53067	9
1.53433	10
1.53800	10
1.54167	11
1.54533	9
1.54900	6
1.55267	4
1.55633	1
1.56000	-2
1.56367	-0
1.56733	2
1.57100	2
1.57467	0
1.57833	-2
1.58200	-4
1.58567	-3
1.58933	-0
1.59300	0
1.59667	0
1.60033	2
1.60400	5
1.60767	5
1.61133	4
1.61500	3
1.61867	3
1.62233	3
1.62600	4
1.62967	2
1.63333	2
1.63700	3
1.64067	6
1.64433	7
1.64800	5
1.65167	7
1.65533	10
1.65900	10
1.66267	11
1.66633	12
1.67000	10
1.67367	7
1.67733	6
1.68100	4
1.68467	5
1.68833	7
1.69200	9
1.69567	11
1.69933	12
1.70300	12
1.70667	11
1.71033	7
1.71400	7
1.71767	10
1.72133	9
1.72500	11
1.72867	14
1.73233	15
1.73600	14
1.73967	14
1.74333	11
1.74700	10
1.75067	11
1.75433	13
1.75800	14
1.76167	13
1.76533	11
1.76900	10
1.77267	11
1.77633	13
1.78000	11
1.78367	11
1.78733	12
1.79100	14
1.79467	15
1.79833	16
1.80200	12
1.80567	12
1.80933	14
1.81300	17
1.81667	18
1.82033	21
1.82400	23
1.82767	22
1.83133	24
1.83500	23
1.83867	23
1.84233	24
1.84600	24
1.84967	25
1.85333	24
1.85700	23
1.86067	23
1.86433	24
1.86800	25
1.87167	25
1.87533	25
1.87900	25
1.88267	26
1.88633	25
1.89000	26
1.89367	27
1.89733	29
1.90100	29
1.90467	27
1.90833	26
1.91200	28
1.91567	31
1.91933	33
1.92300	32
1.92667	32
1.93033	32
1.93400	30
1.93767	29
1.94133	30
1.94500	32
1.94867	35
1.95233	35
1.95600	33
1.95967	30
1.96333	32
1.96700	34
1.97067	35
1.97433	38
1.97800	39
1.98167	40
1.98533	40
1.98900	41
1.99267	41
1.99633	41
2.00000	39
2.00367	38
2.00733	38
2.01100	38
2.01467	40
2.01833	44
2.02200	48
2.02567	49
2.02933	47
2.03300	44
2.03667	42
2.04033	42
2.04400	42
2.04767	45
2.05133	48
2.05500	51
2.05867	53
2.06233	55
2.06600	55
2.06967	53
2.07333	51
2.07700	50
2.08067	51
2.08433	51
2.08800	51
2.09167	51
2.09533	53
2.09900	56
2.10267	56
2.10633	56
2.11000	56
2.11367	56
2.11733	57
2.12100	59
2.12467	62
2.12833	63
2.13200	65
2.13567	66
2.13933	64
2.14300	62
2.14667	63
2.15033	63
2.15400	63
2.15767	65
2.16133	66
2.16500	67
2.16867	67
2.17233	66
2.17600	69
2.17967	72
2.18333	75
2.18700	78
2.19067	80
2.19433	79
2.19800	78
2.20167	78
2.20533	78
2.20900	81
2.21267	86
2.21633	88
2.22000	88
2.22367	89
2.22733	90
2.23100	91
2.23467	90
2.23833	88
2.24200	87
2.24567	87
2.24933	87
2.25300	86
2.25667	86
2.26033	87
2.26400	89
2.26767	90
2.27133	93
2.27500	96
2.27867	96
2.28233	97
2.28600	98
2.28967	96
2.29333	95
2.29700	94
2.30067	94
2.30433	94
2.30800	97
2.31167	100
2.31533	102
2.31900	103
2.32267	103
2.32633	103
2.33000	104
2.33367	107
2.33733	107
2.34100	106
2.34467	107
2.34833	106
2.35200	103
2.35567	103
2.35933	104
2.36300	104
2.36667	103
2.37033	103
2.37400	104
2.37767	103
2.38133	102
2.38500	101
2.38867	98
2.39233	98
2.39600	101
2.39967	109
2.40333	114
2.40700	116
2.41067	119
2.41433	123
2.41800	126
2.42167	128
2.42533	131
2.42900	132
2.43267	130
2.43633	128
2.44000	132
2.44367	180
2.44733	264
2.45100	338
2.45467	392
2.45833	415
2.46200	412
2.46567	401
2.46933	386
2.47300	376
2.47667	366
2.48033	349
2.48400	325
2.48767	301
2.49133	279
2.49500	260
2.49867	247
2.50233	241
2.50600	240
2.50967	244
2.51333	252
2.51700	258
2.52067	262
2.52433	260
2.52800	252
2.53167	244
2.53533	236
2.53900	224
2.54267	210
2.54633	196
2.55000	184
2.55367	174
2.55733	167
2.56100	163
2.56467	163
2.56833	163
2.57200	164
2.57567	164
2.57933	166
2.58300	169
2.58667	172
2.59033	176
2.59400	183
2.59767	193
2.60133	204
2.60500	213
2.60867	222
2.61233	229
2.61600	233
2.61967	235
2.62333	235
2.62700	232
2.63067	227
2.63433	221
2.63800	213
2.64167	205
2.64533	193
2.64900	183
2.65267	172
2.65633	161
2.66000	153
2.66367	146
2.66733	140
2.67100	134
2.67467	131
2.67833	128
2.68200	126
2.68567	124
2.68933	121
2.69300	120
2.69667	119
2.70033	118
2.70400	117
2.70767	117
2.71133	116
2.71500	115
2.71867	115
2.72233	114
2.72600	115
2.72967	117
2.73333	117
2.73700	120
2.74067	121
2.74433	121
2.74800	123
2.75167	126
2.75533	128
2.75900	133
2.76267	133
2.76633	134
2.77000	138
2.77367	143
2.77733	145
2.78100	149
2.78467	155
2.78833	159
2.79200	160
2.79567	162
2.79933	165
2.80300	170
2.80667	174
2.81033	178
2.81400	183
2.81767	186
2.82133	188
2.82500	190
2.82867	195
2.83233	209
2.83600	246
2.83967	332
2.84333	508
2.84700	832
2.85067	1364
2.85433	2151
2.85800	3211
2.86167	4529
2.86533	6042
2.86900	7657
2.87267	9258
2.87633	10718
2.88000	11917
2.88367	12777
2.88733	13258
2.89100	13362
2.89467	13129
2.89833	12617
2.90200	11897
2.90567	11046
2.90933	10133
2.91300	9200
2.91667	8282
2.92033	7405
2.92400	6588
2.92767	5838
2.93133	5158
2.93500	4544
2.93867	3996
2.94233	3509
2.94600	3078
2.94967	2698
2.95333	2364
2.95700	2069
2.96067	1812
2.96433	1587
2.96800	1393
2.97167	1224
2.97533	1077
2.97900	949
2.98267	840
2.98633	747
2.99000	667
2.99367	597
2.99733	537
3.00100	487
3.00467	443
3.00833	403
3.01200	369
3.01567	342
3.01933	319
3.02300	296
3.02667	279
3.03033	263
3.03400	249
3.03767	236
3.04133	230
3.04500	224
3.04867	218
3.05233	213
3.05600	209
3.05967	204
3.06333	199
3.06700	194
3.07067	193
3.07433	192
3.07800	187
3.08167	186
3.08533	190
3.08900	208
3.09267	248
3.09633	307
3.10000	377
3.10367	450
3.10733	525
3.11100	604
3.11467	685
3.11833	759
3.12200	823
3.12567	877
3.12933	924
3.13300	963
3.13667	997
3.14033	1025
3.14400	1048
3.14767	1063
3.15133	1074
3.15500	1081
3.15867	1084
3.16233	1088
3.16600	1092
3.16967	1097
3.17333	1097
3.17700	1094
3.18067	1090
3.18433	1087
3.18800	1083
3.19167	1082
3.19533	1083
3.19900	1084
3.20267	1084
3.20633	1081
3.21000	1079
3.21367	1076
3.21733	1074
3.22100	1070
3.22467	1067
3.22833	1064
3.23200	1061
3.23567	1059
3.23933	1056
3.24300	1053
3.24667	1050
3.25033	1049
3.25400	1047
3.25767	1043
3.26133	1040
3.26500	1037
3.26867	1033
3.27233	1029
3.27600	1022
3.27967	1015
3.28333	1009
3.28700	1007
3.29067	1004
3.29433	1001
3.29800	999
3.30167	994
3.30533	989
3.30900	984
3.31267	980
3.31633	975
3.32000	968
3.32367	961
3.32733	954
3.33100	949
3.33467	943
3.33833	937
3.34200	934
3.34567	929
3.34933	924
3.35300	919
3.35667	913
3.36033	908
3.36400	903
3.36767	901
3.37133	900
3.37500	897
3.37867	895
3.38233	891
3.38600	888
3.38967	884
3.39333	883
3.39700	882
3.40067	882
3.40433	881
3.40800	880
3.41167	880
3.41533	880
3.41900	878
3.42267	877
3.42633	875
3.43000	874
3.43367	872
3.43733	870
3.44100	868
3.44467	866
3.44833	864
3.45200	861
3.45567	858
3.45933	857
3.46300	857
3.46667	858
3.47033	859
3.47400	859
3.47767	859
3.48133	859
3.48500	858
3.48867	855
3.49233	851
3.49600	850
3.49967	850
3.50333	849
3.50700	847
3.51067	847
3.51433	848
3.51800	846
3.52167	845
3.52533	845
3.52900	845
3.53267	843
3.53633	838
3.54000	835
3.54367	833
3.54733	831
3.55100	831
3.55467	832
3.55833	831
3.56200	831
3.56567	831
3.56933	830
3.57300	828
3.57667	822
3.58033	818
3.58400	816
3.58767	812
3.59133	807
3.59500	804
3.59867	802
3.60233	802
3.60600	801
3.60967	799
3.61333	797
3.61700	796
3.62067	792
3.62433	787
3.62800	783
3.63167	781
3.63533	778
3.63900	774
3.64267	769
3.64633	767
3.65000	766
3.65367	765
3.65733	765
3.66100	762
3.66467	760
3.66833	759
3.67200	756
3.67567	753
3.67933	751
3.68300	750
3.68667	746
3.69033	741
3.69400	737
3.69767	737
3.70133	735
3.70500	734
3.70867	732
3.71233	732
3.71600	731
3.71967	729
3.72333	725
3.72700	721
3.73067	720
3.73433	718
3.73800	714
3.74167	707
3.74533	703
3.74900	702
3.75267	703
3.75633	703
3.76000	702
3.76367	701
3.76733	700
3.77100	696
3.77467	695
3.77833	694
3.78200	693
3.78567	691
3.78933	687
3.79300	684
3.79667	683
3.80033	682
3.80400	681
3.80767	680
3.81133	677
3.81500	674
3.81867	672
3.82233	670
3.82600	669
3.82967	668
3.83333	668
3.83700	668
3.84067	669
3.84433	670
3.84800	668
3.85167	666
3.85533	666
3.85900	664
3.86267	662
3.86633	660
3.87000	660
3.87367	656
3.87733	653
3.88100	651
3.88467	649
3.88833	647
3.89200	645
3.89567	644
3.89933	643
3.90300	644
3.90667	643
3.91033	640
3.91400	638
3.91767	635
3.92133	632
3.92500	630
3.92867	632
3.93233	631
3.93600	629
3.93967	625
3.94333	622
3.94700	621
3.95067	621
3.95433	619
3.95800	616
3.96167	613
3.96533	611
3.96900	611
3.97267	611
3.97633	610
3.98000	609
3.98367	606
3.98733	603
3.99100	601
3.99467	599
3.99833	597

[Status Trace (Column Oven Temperature)]
Interval(msec)	1000
# of Points	240
Start Time(min)	0.010
End Time(min)	3.994
Intensity Units	
Intensity Multiplier	1
R.Time (min)	Intensity
0.01033	35.06
0.02700	35.06
0.04367	35.06
0.06033	35.05
0.07700	35.05
0.09367	35.04
0.11033	35.03
0.12700	35.04
0.14367	35.04
0.16033	35.04
0.17700	35.04
0.19367	35.03
0.21033	35.03
0.22700	35.03
0.24367	35.05
0.26033	35.04
0.27700	35.03
0.29367	35.03
0.31033	35.03
0.32700	35.02
0.34367	35.03
0.36033	35.02
0.37700	35.02
0.39367	35.01
0.41033	35.00
0.42700	35.00
0.44367	35.00
0.46033	35.00
0.47700	35.00
0.49367	34.99
0.51033	34.99
0.52700	34.99
0.54367	34.99
0.56033	35.00
0.57700	35.01
0.59367	35.01
0.61033	35.00
0.62700	35.00
0.64367	35.00
0.66033	35.00
0.67700	35.00
0.69367	34.99
0.71033	35.00
0.72700	34.99
0.74367	34.99
0.76033	34.99
0.77700	34.99
0.79367	34.99
0.81033	35.00
0.82700	35.00
0.84367	34.99
0.86033	34.98
0.87700	34.99
0.89367	34.99
0.91033	35.00
0.92700	35.01
0.94367	35.00
0.96033	35.01
0.97700	35.01
0.99367	35.00
1.01033	34.99
1.02700	34.99
1.04367	34.98
1.06033	34.98
1.07700	34.98
1.09367	34.98
1.11033	34.98
1.12700	34.99
1.14367	34.99
1.16033	34.99
1.17700	34.98
1.19367	34.98
1.21033	35.00
1.22700	35.00
1.24367	35.01
1.26033	35.00
1.27700	35.00
1.29367	35.00
1.31033	34.99
1.32700	34.99
1.34367	34.99
1.36033	34.99
1.37700	34.98
1.39367	34.98
1.41033	34.97
1.42700	34.98
1.44367	34.98
1.46033	34.99
1.47700	34.99
1.49367	34.99
1.51033	35.00
1.52700	35.00
1.54367	34.99
1.56033	34.98
1.57700	34.99
1.59367	35.01
1.61033	35.08
1.62700	35.23
1.64367	35.41
1.66033	35.67
1.67700	36.02
1.69367	36.39
1.71033	36.74
1.72700	37.07
1.74367	37.39
1.76033	37.72
1.77700	38.06
1.79367	38.40
1.81033	38.72
1.82700	39.07
1.84367	39.38
1.86033	39.71
1.87700	40.05
1.89367	40.38
1.91033	40.71
1.92700	41.05
1.94367	41.37
1.96033	41.70
1.97700	42.01
1.99367	42.34
2.01033	42.68
2.02700	42.98
2.04367	43.32
2.06033	43.63
2.07700	43.97
2.09367	44.30
2.11033	44.62
2.12700	44.95
2.14367	45.29
2.16033	45.61
2.17700	45.93
2.19367	46.27
2.21033	46.58
2.22700	46.93
2.24367	47.23
2.26033	47.54
2.27700	47.89
2.29367	48.20
2.31033	48.55
2.32700	48.87
2.34367	49.19
2.36033	49.53
2.37700	49.71
2.39367	49.77
2.41033	49.75
2.42700	49.76
2.44367	49.77
2.46033	49.78
2.47700	49.77
2.49367	49.80
2.51033	49.80
2.52700	49.82
2.54367	49.81
2.56033	49.82
2.57700	49.82
2.59367	49.82
2.61033	49.83
2.62700	49.85
2.64367	49.87
2.66033	49.86
2.67700	49.85
2.69367	49.86
2.71033	49.88
2.72700	49.89
2.74367	49.89
2.76033	49.88
2.77700	49.88
2.79367	49.89
2.81033	49.91
2.82700	49.93
2.84367	49.94
2.86033	49.96
2.87700	49.96
2.89367	49.98
2.91033	49.99
2.92700	50.00
2.94367	50.01
2.96033	50.02
2.97700	50.03
2.99367	50.04
3.01033	50.04
3.02700	50.05
3.04367	50.07
3.06033	50.09
3.07700	50.10
3.09367	50.11
3.11033	50.10
3.12700	50.09
3.14367	50.07
3.16033	50.06
3.17700	50.06
3.19367	50.05
3.21033	50.05
3.22700	50.06
3.24367	50.05
3.26033	50.05
3.27700	50.05
3.29367	50.06
3.31033	50.06
3.32700	50.06
3.34367	50.06
3.36033	50.07
3.37700	50.07
3.39367	50.07
3.41033	50.08
3.42700	50.08
3.44367	50.08
3.46033	50.09
3.47700	50.09
3.49367	50.08
3.51033	50.08
3.52700	50.08
3.54367	50.08
3.56033	50.09
3.57700	50.09
3.59367	50.09
3.61033	50.09
3.62700	50.09
3.64367	50.09
3.66033	50.09
3.67700	50.09
3.69367	50.08
3.71033	50.09
3.72700	50.09
3.74367	50.09
3.76033	50.09
3.77700	50.09
3.79367	50.09
3.81033	50.10
3.82700	50.10
3.84367	50.09
3.86033	50.09
3.87700	50.09
3.89367	50.08
3.91033	50.08
3.92700	50.08
3.94367	50.07
3.96033	50.07
3.97700	50.07
3.99367	50.07

[Status Trace (Injection Unit Temperature)]
Interval(msec)	1000
# of Points	240
Start Time(min)	0.010
End Time(min)	3.994
Intensity Units	
Intensity Multiplier	1
R.Time (min)	Intensity
0.01033	99.97
0.02700	99.97
0.04367	99.97
0.06033	99.97
0.07700	99.97
0.09367	99.97
0.11033	99.97
0.12700	99.98
0.14367	99.98
0.16033	99.97
0.17700	99.97
0.19367	99.98
0.21033	99.98
0.22700	99.98
0.24367	99.98
0.26033	99.98
0.27700	99.98
0.29367	99.98
0.31033	99.98
0.32700	99.98
0.34367	99.98
0.36033	99.98
0.37700	99.98
0.39367	99.98
0.41033	99.98
0.42700	99.98
0.44367	99.98
0.46033	99.98
0.47700	99.98
0.49367	99.98
0.51033	99.98
0.52700	99.99
0.54367	99.98
0.56033	99.98
0.57700	99.98
0.59367	99.98
0.61033	99.98
0.62700	99.99
0.64367	99.98
0.66033	99.98
0.67700	99.98
0.69367	99.98
0.71033	99.98
0.72700	99.99
0.74367	99.98
0.76033	99.98
0.77700	99.98
0.79367	99.98
0.81033	99.98
0.82700	99.98
0.84367	99.98
0.86033	99.98
0.87700	99.98
0.89367	99.98
0.91033	99.98
0.92700	99.98
0.94367	99.98
0.96033	99.98
0.97700	99.98
0.99367	99.98
1.01033	99.98
1.02700	99.98
1.04367	99.98
1.06033	99.98
1.07700	99.98
1.09367	99.98
1.11033	99.98
1.12700	99.98
1.14367	99.98
1.16033	99.98
1.17700	99.98
1.19367	99.98
1.21033	99.98
1.22700	99.98
1.24367	99.98
1.26033	99.98
1.27700	99.98
1.29367	99.98
1.31033	99.98
1.32700	99.98
1.34367	99.98
1.36033	99.98
1.37700	99.98
1.39367	99.98
1.41033	99.98
1.42700	99.98
1.44367	99.98
1.46033	99.98
1.47700	99.98
1.49367	99.98
1.51033	99.97
1.52700	99.98
1.54367	99.97
1.56033	99.98
1.57700	99.98
1.59367	99.98
1.61033	99.98
1.62700	99.98
1.64367	99.98
1.66033	99.98
1.67700	99.98
1.69367	99.98
1.71033	99.98
1.72700	99.98
1.74367	99.98
1.76033	99.98
1.77700	99.98
1.79367	99.98
1.81033	99.98
1.82700	99.98
1.84367	99.98
1.86033	99.98
1.87700	99.98
1.89367	99.98
1.91033	99.98
1.92700	99.98
1.94367	99.97
1.96033	99.97
1.97700	99.98
1.99367	99.97
2.01033	99.97
2.02700	99.98
2.04367	99.97
2.06033	99.97
2.07700	99.97
2.09367	99.97
2.11033	99.97
2.12700	99.97
2.14367	99.97
2.16033	99.97
2.17700	99.97
2.19367	99.96
2.21033	99.97
2.22700	99.96
2.24367	99.97
2.26033	99.97
2.27700	99.96
2.29367	99.96
2.31033	99.96
2.32700	99.96
2.34367	99.96
2.36033	99.96
2.37700	99.96
2.39367	99.96
2.41033	99.96
2.42700	99.96
2.44367	99.96
2.46033	99.96
2.47700	99.96
2.49367	99.97
2.51033	99.96
2.52700	99.97
2.54367	99.96
2.56033	99.97
2.57700	99.97
2.59367	99.97
2.61033	99.97
2.62700	99.97
2.64367	99.97
2.66033	99.97
2.67700	99.98
2.69367	99.98
2.71033	99.98
2.72700	99.97
2.74367	99.98
2.76033	99.98
2.77700	99.98
2.79367	99.98
2.81033	99.99
2.82700	99.99
2.84367	99.99
2.86033	99.99
2.87700	99.99
2.89367	99.99
2.91033	99.99
2.92700	99.99
2.94367	100.00
2.96033	100.00
2.97700	100.00
2.99367	100.00
3.01033	100.00
3.02700	100.00
3.04367	100.01
3.06033	100.01
3.07700	100.01
3.09367	100.01
3.11033	100.01
3.12700	100.01
3.14367	100.01
3.16033	100.01
3.17700	100.01
3.19367	100.02
3.21033	100.02
3.22700	100.02
3.24367	100.02
3.26033	100.02
3.27700	100.02
3.29367	100.02
3.31033	100.02
3.32700	100.03
3.34367	100.02
3.36033	100.02
3.37700	100.03
3.39367	100.03
3.41033	100.03
3.42700	100.03
3.44367	100.03
3.46033	100.03
3.47700	100.03
3.49367	100.04
3.51033	100.04
3.52700	100.04
3.54367	100.04
3.56033	100.04
3.57700	100.04
3.59367	100.04
3.61033	100.04
3.62700	100.04
3.64367	100.04
3.66033	100.04
3.67700	100.04
3.69367	100.04
3.71033	100.05
3.72700	100.05
3.74367	100.05
3.76033	100.04
3.77700	100.05
3.79367	100.05
3.81033	100.05
3.82700	100.05
3.84367	100.05
3.86033	100.05
3.87700	100.05
3.89367	100.05
3.91033	100.05
3.92700	100.05
3.94367	100.05
3.96033	100.05
3.97700	100.05
3.99367	100.05

[Status Trace (Carrier Gas Pressure)]
Interval(msec)	1000
# of Points	240
Start Time(min)	0.010
End Time(min)	3.994
Intensity Units	
Intensity Multiplier	1
R.Time (min)	Intensity
0.01033	58.00
0.02700	55.04
0.04367	57.36
0.06033	59.49
0.07700	59.15
0.09367	58.03
0.11033	57.99
0.12700	58.01
0.14367	58.01
0.16033	58.00
0.17700	58.00
0.19367	58.00
0.21033	58.00
0.22700	58.00
0.24367	58.00
0.26033	58.00
0.27700	58.00
0.29367	58.00
0.31033	58.00
0.32700	58.00
0.34367	58.00
0.36033	58.00
0.37700	58.00
0.39367	58.00
0.41033	58.00
0.42700	58.00
0.44367	58.00
0.46033	58.00
0.47700	58.00
0.49367	58.00
0.51033	58.00
0.52700	58.00
0.54367	58.00
0.56033	58.00
0.57700	58.00
0.59367	58.00
0.61033	58.00
0.62700	58.00
0.64367	58.00
0.66033	58.00
0.67700	58.00
0.69367	58.00
0.71033	58.00
0.72700	58.00
0.74367	58.00
0.76033	58.00
0.77700	58.00
0.79367	58.00
0.81033	58.00
0.82700	58.00
0.84367	58.00
0.86033	58.00
0.87700	58.00
0.89367	58.00
0.91033	58.00
0.92700	58.00
0.94367	58.00
0.96033	58.00
0.97700	58.00
0.99367	58.00
1.01033	58.00
1.02700	58.00
1.04367	58.00
1.06033	58.00
1.07700	58.00
1.09367	58.00
1.11033	58.00
1.12700	58.00
1.14367	58.00
1.16033	58.00
1.17700	58.00
1.19367	58.00
1.21033	58.00
1.22700	58.00
1.24367	58.00
1.26033	58.00
1.27700	58.00
1.29367	58.00
1.31033	58.00
1.32700	58.00
1.34367	58.00
1.36033	58.00
1.37700	58.00
1.39367	58.00
1.41033	58.00
1.42700	58.00
1.44367	58.00
1.46033	58.00
1.47700	58.00
1.49367	58.00
1.51033	58.00
1.52700	58.00
1.54367	58.00
1.56033	58.00
1.57700	58.00
1.59367	58.00
1.61033	58.00
1.62700	58.01
1.64367	58.00
1.66033	58.00
1.67700	58.01
1.69367	58.00
1.71033	58.00
1.72700	58.00
1.74367	58.00
1.76033	58.00
1.77700	58.00
1.79367	58.00
1.81033	58.00
1.82700	58.00
1.84367	58.00
1.86033	58.00
1.87700	58.00
1.89367	58.00
1.91033	58.00
1.92700	58.00
1.94367	58.00
1.96033	58.00
1.97700	58.00
1.99367	58.00
2.01033	58.00
2.02700	58.00
2.04367	58.00
2.06033	58.00
2.07700	58.00
2.09367	58.00
2.11033	58.00
2.12700	58.00
2.14367	58.00
2.16033	58.00
2.17700	58.00
2.19367	58.00
2.21033	58.00
2.22700	58.00
2.24367	58.00
2.26033	58.00
2.27700	58.00
2.29367	58.00
2.31033	58.00
2.32700	58.00
2.34367	58.00
2.36033	58.00
2.37700	58.00
2.39367	57.99
2.41033	57.99
2.42700	58.00
2.44367	58.00
2.46033	58.00
2.47700	58.00
2.49367	58.00
2.51033	57.99
2.52700	57.99
2.54367	58.00
2.56033	58.00
2.57700	58.00
2.59367	58.00
2.61033	58.00
2.62700	58.00
2.64367	58.00
2.66033	58.00
2.67700	58.00
2.69367	58.00
2.71033	58.00
2.72700	58.00
2.74367	58.00
2.76033	58.00
2.77700	58.00
2.79367	58.00
2.81033	58.00
2.82700	58.00
2.84367	58.00
2.86033	58.00
2.87700	58.00
2.89367	58.00
2.91033	58.00
2.92700	58.00
2.94367	58.00
2.96033	58.00
2.97700	58.00
2.99367	58.00
3.01033	58.00
3.02700	58.00
3.04367	58.00
3.06033	58.00
3.07700	58.00
3.09367	58.00
3.11033	58.00
3.12700	58.00
3.14367	58.00
3.16033	58.00
3.17700	58.00
3.19367	58.00
3.21033	58.00
3.22700	58.00
3.24367	58.00
3.26033	58.00
3.27700	58.00
3.29367	58.00
3.31033	58.00
3.32700	58.00
3.34367	58.00
3.36033	58.00
3.37700	58.00
3.39367	58.00
3.41033	58.00
3.42700	58.00
3.44367	58.00
3.46033	58.00
3.47700	58.00
3.49367	58.00
3.51033	58.00
3.52700	58.00
3.54367	58.00
3.56033	58.00
3.57700	58.00
3.59367	58.00
3.61033	58.00
3.62700	58.00
3.64367	58.00
3.66033	58.00
3.67700	58.00
3.69367	58.00
3.71033	58.00
3.72700	58.00
3.74367	58.00
3.76033	58.00
3.77700	58.00
3.79367	58.00
3.81033	58.00
3.82700	58.00
3.84367	58.00
3.86033	58.00
3.87700	58.00
3.89367	58.00
3.91033	58.00
3.92700	58.00
3.94367	58.00
3.96033	58.00
3.97700	58.00
3.99367	58.00

[Status Trace (Carrier Gas Flow)]
Interval(msec)	1000
# of Points	240
Start Time(min)	0.010
End Time(min)	3.994
Intensity Units	
Intensity Multiplier	1
R.Time (min)	Intensity
0.01033	34.52
0.02700	34.54
0.04367	34.54
0.06033	34.55
0.07700	34.50
0.09367	34.52
0.11033	34.52
0.12700	34.52
0.14367	34.52
0.16033	34.52
0.17700	34.52
0.19367	34.51
0.21033	34.52
0.22700	34.52
0.24367	34.51
0.26033	34.52
0.27700	34.52
0.29367	34.52
0.31033	34.51
0.32700	34.52
0.34367	34.52
0.36033	34.52
0.37700	34.52
0.39367	34.52
0.41033	34.52
0.42700	34.51
0.44367	34.52
0.46033	34.52
0.47700	34.52
0.49367	34.52
0.51033	34.52
0.52700	34.52
0.54367	34.52
0.56033	34.52
0.57700	34.52
0.59367	34.52
0.61033	34.52
0.62700	34.52
0.64367	34.52
0.66033	34.52
0.67700	34.52
0.69367	34.52
0.71033	34.51
0.72700	34.52
0.74367	34.52
0.76033	34.52
0.77700	34.51
0.79367	34.52
0.81033	34.52
0.82700	34.52
0.84367	34.52
0.86033	34.52
0.87700	34.52
0.89367	34.52
0.91033	34.52
0.92700	34.52
0.94367	34.52
0.96033	34.52
0.97700	34.52
0.99367	34.52
1.01033	34.51
1.02700	34.52
1.04367	34.52
1.06033	34.52
1.07700	34.52
1.09367	34.52
1.11033	34.52
1.12700	34.52
1.14367	34.52
1.16033	34.52
1.17700	34.52
1.19367	34.52
1.21033	34.52
1.22700	34.52
1.24367	34.52
1.26033	34.52
1.27700	34.52
1.29367	34.52
1.31033	34.52
1.32700	34.52
1.34367	34.51
1.36033	34.52
1.37700	34.52
1.39367	34.51
1.41033	34.52
1.42700	34.52
1.44367	34.52
1.46033	34.52
1.47700	34.52
1.49367	34.52
1.51033	34.51
1.52700	34.52
1.54367	34.51
1.56033	34.52
1.57700	34.52
1.59367	34.52
1.61033	34.52
1.62700	34.52
1.64367	34.52
1.66033	34.52
1.67700	34.52
1.69367	34.52
1.71033	34.52
1.72700	34.52
1.74367	34.52
1.76033	34.52
1.77700	34.52
1.79367	34.51
1.81033	34.52
1.82700	34.52
1.84367	34.52
1.86033	34.52
1.87700	34.52
1.89367	34.52
1.91033	34.52
1.92700	34.52
1.94367	34.52
1.96033	34.52
1.97700	34.52
1.99367	34.51
2.01033	34.51
2.02700	34.52
2.04367	34.52
2.06033	34.52
2.07700	34.52
2.09367	34.51
2.11033	34.52
2.12700	34.52
2.14367	34.52
2.16033	34.52
2.17700	34.52
2.19367	34.52
2.21033	34.52
2.22700	34.52
2.24367	34.52
2.26033	34.51
2.27700	34.52
2.29367	34.52
2.31033	34.51
2.32700	34.52
2.34367	34.52
2.36033	34.52
2.37700	34.51
2.39367	34.52
2.41033	34.52
2.42700	34.52
2.44367	34.52
2.46033	34.52
2.47700	34.52
2.49367	34.52
2.51033	34.51
2.52700	34.52
2.54367	34.52
2.56033	34.52
2.57700	34.52
2.59367	34.52
2.61033	34.51
2.62700	34.52
2.64367	34.52
2.66033	34.52
2.67700	34.52
2.69367	34.52
2.71033	34.52
2.72700	34.52
2.74367	34.52
2.76033	34.52
2.77700	34.52
2.79367	34.52
2.81033	34.52
2.82700	34.52
2.84367	34.52
2.86033	34.52
2.87700	34.52
2.89367	34.52
2.91033	34.52
2.92700	34.52
2.94367	34.52
2.96033	34.52
2.97700	34.52
2.99367	34.52
3.01033	34.52
3.02700	34.52
3.04367	34.52
3.06033	34.52
3.07700	34.52
3.09367	34.52
3.11033	34.52
3.12700	34.52
3.14367	34.52
3.16033	34.52
3.17700	34.52
3.19367	34.52
3.21033	34.52
3.22700	34.52
3.24367	34.52
3.26033	34.52
3.27700	34.52
3.29367	34.52
3.31033	34.52
3.32700	34.51
3.34367	34.52
3.36033	34.52
3.37700	34.52
3.39367	34.52
3.41033	34.52
3.42700	34.52
3.44367	34.52
3.46033	34.52
3.47700	34.52
3.49367	34.52
3.51033	34.52
3.52700	34.52
3.54367	34.52
3.56033	34.52
3.57700	34.52
3.59367	34.52
3.61033	34.52
3.62700	34.52
3.64367	34.52
3.66033	34.52
3.67700	34.52
3.69367	34.52
3.71033	34.52
3.72700	34.52
3.74367	34.52
3.76033	34.52
3.77700	34.52
3.79367	34.52
3.81033	34.52
3.82700	34.52
3.84367	34.52
3.86033	34.52
3.87700	34.52
3.89367	34.52
3.91033	34.52
3.92700	34.52
3.94367	34.52
3.96033	34.52
3.97700	34.52
3.99367	34.52

[Status Trace (Column Flow)]
Interval(msec)	1000
# of Points	240
Start Time(min)	0.010
End Time(min)	3.994
Intensity Units	
Intensity Multiplier	1
R.Time (min)	Intensity
0.01033	5.51
0.02700	5.17
0.04367	5.44
0.06033	5.69
0.07700	5.65
0.09367	5.52
0.11033	5.51
0.12700	5.51
0.14367	5.51
0.16033	5.51
0.17700	5.51
0.19367	5.51
0.21033	5.51
0.22700	5.51
0.24367	5.51
0.26033	5.51
0.27700	5.51
0.29367	5.51
0.31033	5.51
0.32700	5.51
0.34367	5.51
0.36033	5.51
0.37700	5.51
0.39367	5.51
0.41033	5.51
0.42700	5.51
0.44367	5.51
0.46033	5.51
0.47700	5.51
0.49367	5.51
0.51033	5.51
0.52700	5.51
0.54367	5.51
0.56033	5.51
0.57700	5.51
0.59367	5.51
0.61033	5.51
0.62700	5.51
0.64367	5.51
0.66033	5.51
0.67700	5.51
0.69367	5.51
0.71033	5.51
0.72700	5.51
0.74367	5.51
0.76033	5.51
0.77700	5.51
0.79367	5.51
0.81033	5.51
0.82700	5.51
0.84367	5.51
0.86033	5.51
0.87700	5.51
0.89367	5.51
0.91033	5.51
0.92700	5.51
0.94367	5.51
0.96033	5.51
0.97700	5.51
0.99367	5.51
1.01033	5.51
1.02700	5.51
1.04367	5.51
1.06033	5.51
1.07700	5.51
1.09367	5.51
1.11033	5.51
1.12700	5.51
1.14367	5.51
1.16033	5.51
1.17700	5.51
1.19367	5.51
1.21033	5.51
1.22700	5.51
1.24367	5.51
1.26033	5.51
1.27700	5.51
1.29367	5.51
1.31033	5.51
1.32700	5.51
1.34367	5.51
1.36033	5.51
1.37700	5.51
1.39367	5.51
1.41033	5.51
1.42700	5.51
1.44367	5.51
1.46033	5.51
1.47700	5.51
1.49367	5.51
1.51033	5.51
1.52700	5.51
1.54367	5.51
1.56033	5.51
1.57700	5.51
1.59367	5.51
1.61033	5.51
1.62700	5.51
1.64367	5.50
1.66033	5.49
1.67700	5.48
1.69367	5.47
1.71033	5.46
1.72700	5.45
1.74367	5.44
1.76033	5.43
1.77700	5.42
1.79367	5.41
1.81033	5.40
1.82700	5.39
1.84367	5.38
1.86033	5.37
1.87700	5.36
1.89367	5.35
1.91033	5.34
1.92700	5.33
1.94367	5.32
1.96033	5.31
1.97700	5.30
1.99367	5.29
2.01033	5.28
2.02700	5.27
2.04367	5.26
2.06033	5.25
2.07700	5.24
2.09367	5.23
2.11033	5.22
2.12700	5.21
2.14367	5.20
2.16033	5.19
2.17700	5.19
2.19367	5.18
2.21033	5.17
2.22700	5.16
2.24367	5.15
2.26033	5.14
2.27700	5.13
2.29367	5.12
2.31033	5.11
2.32700	5.10
2.34367	5.09
2.36033	5.08
2.37700	5.08
2.39367	5.08
2.41033	5.08
2.42700	5.08
2.44367	5.08
2.46033	5.08
2.47700	5.08
2.49367	5.08
2.51033	5.08
2.52700	5.07
2.54367	5.08
2.56033	5.08
2.57700	5.08
2.59367	5.08
2.61033	5.08
2.62700	5.07
2.64367	5.07
2.66033	5.07
2.67700	5.07
2.69367	5.07
2.71033	5.07
2.72700	5.07
2.74367	5.07
2.76033	5.07
2.77700	5.07
2.79367	5.07
2.81033	5.07
2.82700	5.07
2.84367	5.07
2.86033	5.07
2.87700	5.07
2.89367	5.07
2.91033	5.07
2.92700	5.07
2.94367	5.07
2.96033	5.07
2.97700	5.07
2.99367	5.07
3.01033	5.07
3.02700	5.07
3.04367	5.07
3.06033	5.07
3.07700	5.07
3.09367	5.07
3.11033	5.07
3.12700	5.07
3.14367	5.07
3.16033	5.07
3.17700	5.07
3.19367	5.07
3.21033	5.07
3.22700	5.07
3.24367	5.07
3.26033	5.07
3.27700	5.07
3.29367	5.07
3.31033	5.07
3.32700	5.07
3.34367	5.07
3.36033	5.07
3.37700	5.07
3.39367	5.07
3.41033	5.07
3.42700	5.07
3.44367	5.07
3.46033	5.07
3.47700	5.07
3.49367	5.07
3.51033	5.07
3.52700	5.07
3.54367	5.07
3.56033	5.07
3.57700	5.07
3.59367	5.07
3.61033	5.07
3.62700	5.07
3.64367	5.07
3.66033	5.07
3.67700	5.07
3.69367	5.07
3.71033	5.07
3.72700	5.07
3.74367	5.07
3.76033	5.07
3.77700	5.07
3.79367	5.07
3.81033	5.07
3.82700	5.07
3.84367	5.07
3.86033	5.07
3.87700	5.07
3.89367	5.07
3.91033	5.07
3.92700	5.07
3.94367	5.07
3.96033	5.07
3.97700	5.07
3.99367	5.07

[Status Trace (Linear Velocity)]
Interval(msec)	1000
# of Points	240
Start Time(min)	0.010
End Time(min)	3.994
Intensity Units	
Intensity Multiplier	1
R.Time (min)	Intensity
0.01033	39.01
0.02700	37.07
0.04367	38.59
0.06033	39.99
0.07700	39.76
0.09367	39.03
0.11033	39.00
0.12700	39.02
0.14367	39.02
0.16033	39.01
0.17700	39.01
0.19367	39.01
0.21033	39.01
0.22700	39.01
0.24367	39.01
0.26033	39.01
0.27700	39.01
0.29367	39.01
0.31033	39.01
0.32700	39.01
0.34367	39.01
0.36033	39.01
0.37700	39.01
0.39367	39.01
0.41033	39.01
0.42700	39.02
0.44367	39.01
0.46033	39.02
0.47700	39.02
0.49367	39.02
0.51033	39.02
0.52700	39.02
0.54367	39.02
0.56033	39.02
0.57700	39.01
0.59367	39.01
0.61033	39.01
0.62700	39.01
0.64367	39.02
0.66033	39.01
0.67700	39.02
0.69367	39.02
0.71033	39.02
0.72700	39.02
0.74367	39.01
0.76033	39.02
0.77700	39.02
0.79367	39.02
0.81033	39.01
0.82700	39.01
0.84367	39.02
0.86033	39.02
0.87700	39.02
0.89367	39.02
0.91033	39.01
0.92700	39.01
0.94367	39.01
0.96033	39.01
0.97700	39.01
0.99367	39.01
1.01033	39.02
1.02700	39.02
1.04367	39.02
1.06033	39.02
1.07700	39.02
1.09367	39.02
1.11033	39.02
1.12700	39.02
1.14367	39.02
1.16033	39.02
1.17700	39.02
1.19367	39.02
1.21033	39.01
1.22700	39.01
1.24367	39.01
1.26033	39.01
1.27700	39.01
1.29367	39.01
1.31033	39.02
1.32700	39.02
1.34367	39.02
1.36033	39.02
1.37700	39.02
1.39367	39.02
1.41033	39.02
1.42700	39.02
1.44367	39.02
1.46033	39.02
1.47700	39.02
1.49367	39.02
1.51033	39.02
1.52700	39.01
1.54367	39.02
1.56033	39.02
1.57700	39.02
1.59367	39.01
1.61033	39.01
1.62700	39.00
1.64367	38.98
1.66033	38.95
1.67700	38.92
1.69367	38.89
1.71033	38.85
1.72700	38.82
1.74367	38.79
1.76033	38.76
1.77700	38.72
1.79367	38.69
1.81033	38.66
1.82700	38.63
1.84367	38.60
1.86033	38.57
1.87700	38.54
1.89367	38.51
1.91033	38.47
1.92700	38.44
1.94367	38.42
1.96033	38.38
1.97700	38.35
1.99367	38.33
2.01033	38.29
2.02700	38.26
2.04367	38.24
2.06033	38.20
2.07700	38.17
2.09367	38.14
2.11033	38.11
2.12700	38.08
2.14367	38.06
2.16033	38.02
2.17700	37.99
2.19367	37.97
2.21033	37.94
2.22700	37.91
2.24367	37.88
2.26033	37.85
2.27700	37.82
2.29367	37.79
2.31033	37.76
2.32700	37.73
2.34367	37.71
2.36033	37.67
2.37700	37.65
2.39367	37.65
2.41033	37.65
2.42700	37.65
2.44367	37.65
2.46033	37.65
2.47700	37.65
2.49367	37.65
2.51033	37.64
2.52700	37.64
2.54367	37.65
2.56033	37.65
2.57700	37.65
2.59367	37.65
2.61033	37.65
2.62700	37.64
2.64367	37.64
2.66033	37.64
2.67700	37.64
2.69367	37.64
2.71033	37.64
2.72700	37.64
2.74367	37.64
2.76033	37.64
2.77700	37.64
2.79367	37.64
2.81033	37.64
2.82700	37.64
2.84367	37.64
2.86033	37.63
2.87700	37.63
2.89367	37.63
2.91033	37.63
2.92700	37.63
2.94367	37.63
2.96033	37.63
2.97700	37.63
2.99367	37.63
3.01033	37.63
3.02700	37.63
3.04367	37.62
3.06033	37.62
3.07700	37.62
3.09367	37.62
3.11033	37.62
3.12700	37.62
3.14367	37.62
3.16033	37.63
3.17700	37.63
3.19367	37.63
3.21033	37.63
3.22700	37.63
3.24367	37.63
3.26033	37.63
3.27700	37.63
3.29367	37.63
3.31033	37.63
3.32700	37.62
3.34367	37.63
3.36033	37.62
3.37700	37.62
3.39367	37.62
3.41033	37.62
3.42700	37.62
3.44367	37.62
3.46033	37.62
3.47700	37.62
3.49367	37.62
3.51033	37.62
3.52700	37.62
3.54367	37.62
3.56033	37.62
3.57700	37.62
3.59367	37.62
3.61033	37.62
3.62700	37.62
3.64367	37.62
3.66033	37.62
3.67700	37.62
3.69367	37.62
3.71033	37.62
3.72700	37.62
3.74367	37.62
3.76033	37.62
3.77700	37.62
3.79367	37.62
3.81033	37.62
3.82700	37.62
3.84367	37.62
3.86033	37.62
3.87700	37.62
3.89367	37.62
3.91033	37.62
3.92700	37.62
3.94367	37.62
3.96033	37.62
3.97700	37.62
3.99367	37.62

