[Header]
Application Name	LabSolutions
Version	5.110
Data File Name	C:\Users\User\Desktop\Junior\UIC Prairie Sampling\2023\8.18.23\081823_051.gcd
Output Date	8/31/2023
Output Time	12:48:10 PM

[File Information]
Type	Data File
Generated	8/30/2023 9:34:44 PM
Generated by	System Administrator
Modified	8/30/2023 9:41:07 PM
Modified by	System Administrator

[Sample Information]
Operator Name	System Administrator
Acquired	8/30/2023 9:37:06 PM
Sample Type	0:Unknown
Level	0
Sample Name	051
Sample ID	051
ISTD Amount1	1
ISTD Amount2	1
ISTD Amount3	1
ISTD Amount4	1
ISTD Amount5	1
ISTD Amount6	1
ISTD Amount7	1
ISTD Amount8	1
ISTD Amount9	1
ISTD Amount10	1
ISTD Amount11	1
ISTD Amount12	1
ISTD Amount13	1
ISTD Amount14	1
ISTD Amount15	1
ISTD Amount16	1
ISTD Amount17	1
ISTD Amount18	1
ISTD Amount19	1
ISTD Amount20	1
ISTD Amount21	1
ISTD Amount22	1
ISTD Amount23	1
ISTD Amount24	1
ISTD Amount25	1
ISTD Amount26	1
ISTD Amount27	1
ISTD Amount28	1
ISTD Amount29	1
ISTD Amount30	1
ISTD Amount31	1
ISTD Amount32	1
Sample Amount	1
Dilution Factor	1
Vial#	50
Injection Volume	1
Injection Count	1
Bar Code	

[Original Files]
Data File	C:\Users\User\Desktop\Junior\UIC Prairie Sampling\8.18.23\081823_051.gcd
Method File	C:\LabSolutions\Data\GHG_4min_2022\ghg3_togas_w_acet_4 min_new_int.gcm
Batch File	C:\LabSolutions\Data\BATCH FILES\081823.gcb
Report Format File	c:\LabSolutions\System\DEFAULT.lsr

[File Description]


[Configuration]
Instrument Name	C0B7VH3-Instrument1
Instrument #	1
Line #	1
# of Detectors	3
Detector ID	DET#1	DET#2	DET#3
Detector Name	FID	PTCD	ECD
# of Channels	1	1	1

[Peak Table(Ch1)]
# of Peaks	3
Peak#	R.Time	I.Time	F.Time	Area	Height	A/H	Conc.	Mark	ID#	Name	k'	Plate #	Plate Ht.	Tailing	Resolution	Sep.Factor	Area Ratio	Height Ratio	Conc. %	Norm Conc.
1	1.472	1.446	1.527	3395	1744	1.946	0.000	   	1	CO	0.000	10835	13.844	1.364	0.000	0.000	0	0	0.000	0.000
2	1.564	1.527	1.630	18104	9294	1.948	88.260	 V 	2	CH4	0.062	11696	12.824	1.138	1.603	0.000	0	0	19.276	19.276
3	1.989	1.941	2.645	1917941	912092	2.103	369.623	   	3	CO2	0.351	17293	8.674	1.296	7.189	5.640	0	0	80.724	80.724

[Peak Table(Ch2)]
# of Peaks	0

[Peak Table(Ch3)]
# of Peaks	5
Peak#	R.Time	I.Time	F.Time	Area	Height	A/H	Conc.	Mark	ID#	Name	k'	Plate #	Plate Ht.	Tailing	Resolution	Sep.Factor	Area Ratio	Height Ratio	Conc. %	Norm Conc.
1	2.462	2.440	2.510	815	300	2.716	0.000	   			0.000	13062	11.483	0.000	0.000	0.000	0	0	0.000	0.000
2	2.524	2.510	2.572	346	138	2.501	0.000	 V 			0.025	5278	28.419	0.000	0.554	0.000	0	0	0.000	0.000
3	2.623	2.572	2.689	444	115	3.868	0.000	 V 			0.066	8181	18.336	0.000	0.776	2.588	0	0	0.000	0.000
4	2.891	2.748	3.041	45851	12158	3.771	0.678	   	1	N2O	0.174	13092	11.458	1.535	2.466	2.659	0	0	100.000	100.000
5	3.115	3.041	3.496	10994	806	13.645	0.000	   	2	SF6	0.265	974	154.067	3.151	0.894	1.521	0	0	0.000	0.000

[Compound Results(Ch1)]
# of IDs	6
ID#	Name	R.Time	Area	Height	Conc.	Curve	3rd	2nd	1st	Constant	Area Ratio	Height Ratio	Conc. %	Norm Conc.
1	CO	1.472	3395	1744	0.000	Linear	0.000000e+00	0.000000e+00	0.000000e+00	0.000000e+00	0	0	0.000	0.000
2	CH4	1.564	18104	9294	88.260	Linear	0.000000e+00	0.000000e+00	2.051179e+002	0.000000e+00	0	0	19.276	19.276
3	CO2	1.989	1917941	912092	369.623	Linear	0.000000e+00	0.000000e+00	5.188919e+003	0.000000e+00	0	0	80.724	80.724
4	Ethylene	0.000	0	0	0.000	Linear	0.000000e+00	0.000000e+00	0.000000e+00	0.000000e+00	0	0	0.000	0.000
5	Acetylene	0.000	0	0	0.000	Linear	0.000000e+00	0.000000e+00	0.000000e+00	0.000000e+00	0	0	0.000	0.000
6	Ethane	0.000	0	0	0.000	Linear	0.000000e+00	0.000000e+00	0.000000e+00	0.000000e+00	0	0	0.000	0.000

[Compound Results(Ch2)]
# of IDs	5
ID#	Name	R.Time	Area	Height	Conc.	Curve	3rd	2nd	1st	Constant	Area Ratio	Height Ratio	Conc. %	Norm Conc.
1	Hydrogen	0.000	0	0	0.000	Linear	0.000000e+00	0.000000e+00	0.000000e+00	0.000000e+00	0	0	0.000	0.000
2	Oxygen	0.000	0	0	0.000	Linear	0.000000e+00	0.000000e+00	0.000000e+00	0.000000e+00	0	0	0.000	0.000
3	Nitrogen	0.000	0	0	0.000	Linear	0.000000e+00	0.000000e+00	0.000000e+00	0.000000e+00	0	0	0.000	0.000
4	Methane	0.000	0	0	0.000	Linear	0.000000e+00	0.000000e+00	0.000000e+00	0.000000e+00	0	0	0.000	0.000
5	Carbon Monoxide	0.000	0	0	0.000	Linear	0.000000e+00	0.000000e+00	0.000000e+00	0.000000e+00	0	0	0.000	0.000

[Compound Results(Ch3)]
# of IDs	2
ID#	Name	R.Time	Area	Height	Conc.	Curve	3rd	2nd	1st	Constant	Area Ratio	Height Ratio	Conc. %	Norm Conc.
1	N2O	2.891	45851	12158	0.678	Linear	0.000000e+00	0.000000e+00	6.759880e+004	0.000000e+00	0	0	100.000	100.000
2	SF6	3.115	10994	806	0.000	Linear	0.000000e+00	0.000000e+00	0.000000e+00	0.000000e+00	0	0	0.000	0.000

[Group Results(Ch1)]
# of Groups	0

[Group Results(Ch2)]
# of Groups	0

[Group Results(Ch3)]
# of Groups	0

[Chromatogram (Ch1)]
Interval(msec)	220
# of Points	1091
Start Time(min)	0.002
End Time(min)	3.998
R.Time (min)	Intensity
0.00167	-6
0.00533	-7
0.00900	-8
0.01267	-8
0.01633	-6
0.02000	-3
0.02367	-0
0.02733	2
0.03100	4
0.03467	8
0.03833	14
0.04200	18
0.04567	19
0.04933	17
0.05300	13
0.05667	9
0.06033	5
0.06400	1
0.06767	-1
0.07133	1
0.07500	5
0.07867	8
0.08233	12
0.08600	13
0.08967	12
0.09333	8
0.09700	6
0.10067	6
0.10433	6
0.10800	6
0.11167	6
0.11533	6
0.11900	5
0.12267	4
0.12633	4
0.13000	9
0.13367	15
0.13733	19
0.14100	20
0.14467	18
0.14833	16
0.15200	15
0.15567	11
0.15933	10
0.16300	10
0.16667	13
0.17033	18
0.17400	24
0.17767	26
0.18133	23
0.18500	16
0.18867	7
0.19233	2
0.19600	1
0.19967	2
0.20333	4
0.20700	7
0.21067	8
0.21433	6
0.21800	2
0.22167	-2
0.22533	-3
0.22900	-1
0.23267	0
0.23633	-0
0.24000	-1
0.24367	-3
0.24733	-3
0.25100	-3
0.25467	-2
0.25833	0
0.26200	3
0.26567	9
0.26933	12
0.27300	12
0.27667	11
0.28033	9
0.28400	8
0.28767	6
0.29133	4
0.29500	2
0.29867	0
0.30233	-0
0.30600	-2
0.30967	-5
0.31333	-9
0.31700	-13
0.32067	-16
0.32433	-14
0.32800	-9
0.33167	-4
0.33533	-2
0.33900	-4
0.34267	-7
0.34633	-8
0.35000	-8
0.35367	-6
0.35733	-3
0.36100	3
0.36467	21
0.36833	42
0.37200	57
0.37567	62
0.37933	64
0.38300	61
0.38667	54
0.39033	44
0.39400	32
0.39767	22
0.40133	15
0.40500	12
0.40867	8
0.41233	6
0.41600	4
0.41967	4
0.42333	6
0.42700	8
0.43067	9
0.43433	13
0.43800	16
0.44167	16
0.44533	14
0.44900	13
0.45267	17
0.45633	26
0.46000	32
0.46367	34
0.46733	35
0.47100	36
0.47467	34
0.47833	30
0.48200	28
0.48567	26
0.48933	25
0.49300	26
0.49667	28
0.50033	31
0.50400	34
0.50767	36
0.51133	39
0.51500	45
0.51867	50
0.52233	54
0.52600	56
0.52967	56
0.53333	55
0.53700	53
0.54067	51
0.54433	49
0.54800	47
0.55167	46
0.55533	47
0.55900	50
0.56267	55
0.56633	64
0.57000	69
0.57367	65
0.57733	58
0.58100	52
0.58467	48
0.58833	41
0.59200	36
0.59567	32
0.59933	29
0.60300	23
0.60667	16
0.61033	11
0.61400	9
0.61767	8
0.62133	7
0.62500	5
0.62867	5
0.63233	8
0.63600	10
0.63967	10
0.64333	11
0.64700	12
0.65067	14
0.65433	15
0.65800	15
0.66167	18
0.66533	22
0.66900	25
0.67267	26
0.67633	22
0.68000	18
0.68367	13
0.68733	8
0.69100	3
0.69467	-3
0.69833	-5
0.70200	-5
0.70567	-4
0.70933	-4
0.71300	-3
0.71667	-1
0.72033	1
0.72400	5
0.72767	6
0.73133	8
0.73500	10
0.73867	7
0.74233	3
0.74600	-3
0.74967	-9
0.75333	-11
0.75700	-10
0.76067	-8
0.76433	-5
0.76800	-4
0.77167	-4
0.77533	-3
0.77900	-2
0.78267	-2
0.78633	-6
0.79000	-9
0.79367	-10
0.79733	-11
0.80100	-10
0.80467	-7
0.80833	-4
0.81200	-3
0.81567	-5
0.81933	-6
0.82300	-5
0.82667	-4
0.83033	-3
0.83400	-4
0.83767	-7
0.84133	-9
0.84500	-10
0.84867	-9
0.85233	-9
0.85600	-10
0.85967	-14
0.86333	-18
0.86700	-22
0.87067	-26
0.87433	-28
0.87800	-27
0.88167	-21
0.88533	-15
0.88900	-12
0.89267	-9
0.89633	-7
0.90000	-5
0.90367	-5
0.90733	-7
0.91100	-10
0.91467	-11
0.91833	-10
0.92200	-7
0.92567	-4
0.92933	-4
0.93300	-6
0.93667	-10
0.94033	-15
0.94400	-20
0.94767	-22
0.95133	-26
0.95500	-29
0.95867	-25
0.96233	-15
0.96600	-5
0.96967	1
0.97333	1
0.97700	-4
0.98067	-11
0.98433	-17
0.98800	-23
0.99167	-29
0.99533	-31
0.99900	-32
1.00267	-31
1.00633	-25
1.01000	-20
1.01367	-19
1.01733	-21
1.02100	-19
1.02467	-14
1.02833	-8
1.03200	-6
1.03567	-8
1.03933	-13
1.04300	-18
1.04667	-21
1.05033	-24
1.05400	-27
1.05767	-28
1.06133	-29
1.06500	-29
1.06867	-28
1.07233	-28
1.07600	-29
1.07967	-30
1.08333	-27
1.08700	-22
1.09067	-21
1.09433	-24
1.09800	-28
1.10167	-33
1.10533	-37
1.10900	-40
1.11267	-38
1.11633	-31
1.12000	-25
1.12367	-20
1.12733	-13
1.13100	-5
1.13467	0
1.13833	3
1.14200	5
1.14567	6
1.14933	3
1.15300	-3
1.15667	-9
1.16033	-16
1.16400	-22
1.16767	-23
1.17133	-21
1.17500	-19
1.17867	-21
1.18233	-22
1.18600	-23
1.18967	-26
1.19333	-29
1.19700	-30
1.20067	-28
1.20433	-30
1.20800	-30
1.21167	-30
1.21533	-29
1.21900	-30
1.22267	-32
1.22633	-34
1.23000	-36
1.23367	-38
1.23733	-40
1.24100	-39
1.24467	-35
1.24833	-31
1.25200	-29
1.25567	-27
1.25933	-26
1.26300	-23
1.26667	-22
1.27033	-22
1.27400	-19
1.27767	-13
1.28133	-9
1.28500	-10
1.28867	-13
1.29233	-15
1.29600	-16
1.29967	-18
1.30333	-21
1.30700	-24
1.31067	-25
1.31433	-26
1.31800	-24
1.32167	-22
1.32533	-24
1.32900	-27
1.33267	-32
1.33633	-35
1.34000	-38
1.34367	-38
1.34733	-36
1.35100	-35
1.35467	-35
1.35833	-35
1.36200	-34
1.36567	-34
1.36933	-32
1.37300	-28
1.37667	-26
1.38033	-26
1.38400	-28
1.38767	-33
1.39133	-37
1.39500	-40
1.39867	-39
1.40233	-37
1.40600	-35
1.40967	-34
1.41333	-34
1.41700	-30
1.42067	-25
1.42433	-21
1.42800	-21
1.43167	-21
1.43533	-17
1.43900	-8
1.44267	-14
1.44633	8
1.45000	154
1.45367	439
1.45733	790
1.46100	1130
1.46467	1420
1.46833	1637
1.47200	1752
1.47567	1731
1.47933	1574
1.48300	1324
1.48667	1042
1.49033	778
1.49400	559
1.49767	392
1.50133	274
1.50500	193
1.50867	136
1.51233	95
1.51600	66
1.51967	46
1.52333	32
1.52700	26
1.53067	55
1.53433	231
1.53800	800
1.54167	1978
1.54533	3674
1.54900	5521
1.55267	7167
1.55633	8419
1.56000	9173
1.56367	9298
1.56733	8709
1.57100	7511
1.57467	5996
1.57833	4486
1.58200	3192
1.58567	2191
1.58933	1467
1.59300	965
1.59667	622
1.60033	390
1.60400	238
1.60767	140
1.61133	78
1.61500	40
1.61867	17
1.62233	5
1.62600	3
1.62967	1
1.63333	-5
1.63700	-13
1.64067	-21
1.64433	-27
1.64800	-31
1.65167	-32
1.65533	-31
1.65900	-26
1.66267	-23
1.66633	-19
1.67000	-16
1.67367	-16
1.67733	-22
1.68100	-29
1.68467	-32
1.68833	-32
1.69200	-33
1.69567	-35
1.69933	-35
1.70300	-35
1.70667	-36
1.71033	-40
1.71400	-45
1.71767	-49
1.72133	-54
1.72500	-55
1.72867	-53
1.73233	-50
1.73600	-47
1.73967	-42
1.74333	-38
1.74700	-35
1.75067	-33
1.75433	-31
1.75800	-32
1.76167	-38
1.76533	-45
1.76900	-51
1.77267	-53
1.77633	-54
1.78000	-55
1.78367	-54
1.78733	-52
1.79100	-50
1.79467	-48
1.79833	-43
1.80200	-37
1.80567	-34
1.80933	-34
1.81300	-38
1.81667	-44
1.82033	-50
1.82400	-52
1.82767	-52
1.83133	-52
1.83500	-51
1.83867	-49
1.84233	-43
1.84600	-36
1.84967	-32
1.85333	-28
1.85700	-24
1.86067	-23
1.86433	-27
1.86800	-32
1.87167	-37
1.87533	-39
1.87900	-38
1.88267	-36
1.88633	-34
1.89000	-33
1.89367	-35
1.89733	-38
1.90100	-39
1.90467	-39
1.90833	-39
1.91200	-41
1.91567	-43
1.91933	-40
1.92300	-39
1.92667	-42
1.93033	-46
1.93400	-48
1.93767	-47
1.94133	-43
1.94500	-24
1.94867	109
1.95233	937
1.95600	4887
1.95967	18924
1.96333	56871
1.96700	135909
1.97067	264269
1.97433	430311
1.97800	605800
1.98167	759273
1.98533	866262
1.98900	912072
1.99267	892387
1.99633	814279
2.00000	695660
2.00367	560014
2.00733	428623
2.01100	315295
2.01467	225496
2.01833	158569
2.02200	110789
2.02567	77653
2.02933	55080
2.03300	39838
2.03667	29558
2.04033	22583
2.04400	17794
2.04767	14449
2.05133	12064
2.05500	10319
2.05867	9011
2.06233	8006
2.06600	7213
2.06967	6566
2.07333	6027
2.07700	5573
2.08067	5185
2.08433	4849
2.08800	4555
2.09167	4293
2.09533	4058
2.09900	3846
2.10267	3655
2.10633	3481
2.11000	3322
2.11367	3177
2.11733	3047
2.12100	2927
2.12467	2813
2.12833	2704
2.13200	2599
2.13567	2501
2.13933	2412
2.14300	2326
2.14667	2243
2.15033	2167
2.15400	2102
2.15767	2042
2.16133	1983
2.16500	1924
2.16867	1867
2.17233	1813
2.17600	1763
2.17967	1715
2.18333	1669
2.18700	1624
2.19067	1581
2.19433	1541
2.19800	1501
2.20167	1463
2.20533	1429
2.20900	1398
2.21267	1365
2.21633	1333
2.22000	1303
2.22367	1272
2.22733	1239
2.23100	1210
2.23467	1183
2.23833	1154
2.24200	1125
2.24567	1102
2.24933	1080
2.25300	1058
2.25667	1034
2.26033	1009
2.26400	984
2.26767	961
2.27133	941
2.27500	924
2.27867	910
2.28233	899
2.28600	887
2.28967	872
2.29333	858
2.29700	845
2.30067	834
2.30433	823
2.30800	812
2.31167	800
2.31533	783
2.31900	766
2.32267	750
2.32633	736
2.33000	724
2.33367	715
2.33733	706
2.34100	696
2.34467	685
2.34833	673
2.35200	665
2.35567	661
2.35933	657
2.36300	649
2.36667	636
2.37033	620
2.37400	604
2.37767	591
2.38133	583
2.38500	576
2.38867	569
2.39233	562
2.39600	558
2.39967	556
2.40333	549
2.40700	542
2.41067	535
2.41433	529
2.41800	523
2.42167	515
2.42533	506
2.42900	500
2.43267	498
2.43633	496
2.44000	492
2.44367	487
2.44733	479
2.45100	468
2.45467	456
2.45833	448
2.46200	442
2.46567	438
2.46933	438
2.47300	437
2.47667	433
2.48033	428
2.48400	423
2.48767	418
2.49133	412
2.49500	405
2.49867	400
2.50233	397
2.50600	399
2.50967	399
2.51333	397
2.51700	391
2.52067	381
2.52433	370
2.52800	362
2.53167	356
2.53533	354
2.53900	354
2.54267	354
2.54633	354
2.55000	351
2.55367	351
2.55733	351
2.56100	350
2.56467	347
2.56833	344
2.57200	340
2.57567	336
2.57933	333
2.58300	332
2.58667	330
2.59033	326
2.59400	321
2.59767	319
2.60133	315
2.60500	312
2.60867	310
2.61233	307
2.61600	305
2.61967	303
2.62333	301
2.62700	300
2.63067	299
2.63433	301
2.63800	303
2.64167	303
2.64533	301
2.64900	296
2.65267	297
2.65633	299
2.66000	301
2.66367	301
2.66733	299
2.67100	294
2.67467	286
2.67833	282
2.68200	282
2.68567	282
2.68933	281
2.69300	279
2.69667	277
2.70033	274
2.70400	268
2.70767	261
2.71133	253
2.71500	248
2.71867	248
2.72233	249
2.72600	247
2.72967	245
2.73333	245
2.73700	247
2.74067	249
2.74433	250
2.74800	255
2.75167	256
2.75533	253
2.75900	248
2.76267	244
2.76633	242
2.77000	242
2.77367	244
2.77733	248
2.78100	253
2.78467	252
2.78833	247
2.79200	242
2.79567	238
2.79933	237
2.80300	237
2.80667	235
2.81033	228
2.81400	222
2.81767	219
2.82133	222
2.82500	227
2.82867	230
2.83233	232
2.83600	236
2.83967	241
2.84333	242
2.84700	241
2.85067	237
2.85433	235
2.85800	235
2.86167	236
2.86533	236
2.86900	239
2.87267	243
2.87633	242
2.88000	236
2.88367	230
2.88733	226
2.89100	226
2.89467	229
2.89833	232
2.90200	232
2.90567	229
2.90933	226
2.91300	223
2.91667	223
2.92033	222
2.92400	220
2.92767	218
2.93133	218
2.93500	218
2.93867	217
2.94233	214
2.94600	212
2.94967	212
2.95333	210
2.95700	207
2.96067	204
2.96433	204
2.96800	208
2.97167	214
2.97533	219
2.97900	220
2.98267	221
2.98633	223
2.99000	225
2.99367	231
2.99733	236
3.00100	238
3.00467	239
3.00833	240
3.01200	241
3.01567	238
3.01933	233
3.02300	230
3.02667	232
3.03033	235
3.03400	236
3.03767	232
3.04133	224
3.04500	214
3.04867	205
3.05233	202
3.05600	204
3.05967	209
3.06333	212
3.06700	216
3.07067	217
3.07433	215
3.07800	214
3.08167	216
3.08533	223
3.08900	232
3.09267	240
3.09633	245
3.10000	244
3.10367	237
3.10733	223
3.11100	210
3.11467	198
3.11833	189
3.12200	183
3.12567	184
3.12933	189
3.13300	197
3.13667	205
3.14033	213
3.14400	218
3.14767	219
3.15133	220
3.15500	221
3.15867	224
3.16233	226
3.16600	225
3.16967	222
3.17333	220
3.17700	219
3.18067	221
3.18433	221
3.18800	219
3.19167	214
3.19533	210
3.19900	208
3.20267	206
3.20633	203
3.21000	198
3.21367	196
3.21733	197
3.22100	197
3.22467	195
3.22833	192
3.23200	188
3.23567	185
3.23933	185
3.24300	186
3.24667	187
3.25033	188
3.25400	193
3.25767	199
3.26133	205
3.26500	211
3.26867	213
3.27233	212
3.27600	208
3.27967	203
3.28333	202
3.28700	208
3.29067	216
3.29433	221
3.29800	222
3.30167	221
3.30533	219
3.30900	217
3.31267	219
3.31633	221
3.32000	220
3.32367	218
3.32733	215
3.33100	210
3.33467	205
3.33833	204
3.34200	204
3.34567	203
3.34933	204
3.35300	206
3.35667	210
3.36033	211
3.36400	210
3.36767	208
3.37133	207
3.37500	206
3.37867	203
3.38233	201
3.38600	197
3.38967	193
3.39333	191
3.39700	189
3.40067	190
3.40433	193
3.40800	198
3.41167	198
3.41533	197
3.41900	196
3.42267	195
3.42633	194
3.43000	195
3.43367	196
3.43733	195
3.44100	193
3.44467	193
3.44833	193
3.45200	192
3.45567	189
3.45933	188
3.46300	189
3.46667	191
3.47033	194
3.47400	197
3.47767	201
3.48133	200
3.48500	197
3.48867	194
3.49233	192
3.49600	195
3.49967	200
3.50333	202
3.50700	200
3.51067	192
3.51433	186
3.51800	184
3.52167	185
3.52533	188
3.52900	187
3.53267	185
3.53633	183
3.54000	181
3.54367	181
3.54733	184
3.55100	187
3.55467	191
3.55833	195
3.56200	199
3.56567	200
3.56933	198
3.57300	195
3.57667	192
3.58033	189
3.58400	189
3.58767	189
3.59133	188
3.59500	185
3.59867	181
3.60233	182
3.60600	186
3.60967	191
3.61333	195
3.61700	198
3.62067	201
3.62433	205
3.62800	205
3.63167	202
3.63533	199
3.63900	197
3.64267	198
3.64633	199
3.65000	198
3.65367	195
3.65733	191
3.66100	190
3.66467	191
3.66833	188
3.67200	183
3.67567	178
3.67933	177
3.68300	178
3.68667	180
3.69033	183
3.69400	185
3.69767	183
3.70133	179
3.70500	174
3.70867	172
3.71233	174
3.71600	177
3.71967	179
3.72333	183
3.72700	186
3.73067	183
3.73433	179
3.73800	174
3.74167	170
3.74533	169
3.74900	171
3.75267	175
3.75633	177
3.76000	174
3.76367	171
3.76733	172
3.77100	176
3.77467	179
3.77833	181
3.78200	181
3.78567	181
3.78933	182
3.79300	183
3.79667	182
3.80033	181
3.80400	177
3.80767	170
3.81133	165
3.81500	162
3.81867	161
3.82233	161
3.82600	162
3.82967	167
3.83333	173
3.83700	175
3.84067	171
3.84433	164
3.84800	159
3.85167	159
3.85533	161
3.85900	164
3.86267	167
3.86633	167
3.87000	165
3.87367	163
3.87733	162
3.88100	164
3.88467	167
3.88833	169
3.89200	168
3.89567	167
3.89933	165
3.90300	164
3.90667	163
3.91033	163
3.91400	164
3.91767	167
3.92133	170
3.92500	172
3.92867	172
3.93233	170
3.93600	168
3.93967	165
3.94333	162
3.94700	160
3.95067	160
3.95433	163
3.95800	162
3.96167	159
3.96533	154
3.96900	149
3.97267	145
3.97633	143
3.98000	144
3.98367	148
3.98733	154
3.99100	160
3.99467	161
3.99833	159

[Chromatogram (Ch2)]
Interval(msec)	220
# of Points	1091
Start Time(min)	0.002
End Time(min)	3.998
R.Time (min)	Intensity
0.00167	0
0.00533	0
0.00900	0
0.01267	0
0.01633	-0
0.02000	-0
0.02367	-0
0.02733	0
0.03100	0
0.03467	0
0.03833	0
0.04200	-0
0.04567	-0
0.04933	-1
0.05300	-1
0.05667	-0
0.06033	-0
0.06400	-0
0.06767	-0
0.07133	0
0.07500	0
0.07867	1
0.08233	1
0.08600	1
0.08967	1
0.09333	1
0.09700	1
0.10067	1
0.10433	1
0.10800	0
0.11167	0
0.11533	0
0.11900	0
0.12267	0
0.12633	-0
0.13000	-0
0.13367	-1
0.13733	-1
0.14100	-1
0.14467	-1
0.14833	-2
0.15200	-2
0.15567	-2
0.15933	-2
0.16300	-2
0.16667	-2
0.17033	-2
0.17400	-2
0.17767	-2
0.18133	-2
0.18500	-2
0.18867	-1
0.19233	-1
0.19600	-1
0.19967	-1
0.20333	-1
0.20700	-1
0.21067	-1
0.21433	-2
0.21800	-2
0.22167	-2
0.22533	-2
0.22900	-2
0.23267	-2
0.23633	-2
0.24000	-2
0.24367	-2
0.24733	-2
0.25100	-2
0.25467	-2
0.25833	-2
0.26200	-2
0.26567	-2
0.26933	-2
0.27300	-2
0.27667	-2
0.28033	-2
0.28400	-2
0.28767	-2
0.29133	-2
0.29500	-2
0.29867	-2
0.30233	-2
0.30600	-2
0.30967	-2
0.31333	-2
0.31700	-2
0.32067	-3
0.32433	-3
0.32800	-3
0.33167	-3
0.33533	-3
0.33900	-4
0.34267	-4
0.34633	-4
0.35000	-4
0.35367	-4
0.35733	-4
0.36100	-4
0.36467	-3
0.36833	-3
0.37200	-3
0.37567	-3
0.37933	-3
0.38300	-3
0.38667	-3
0.39033	-3
0.39400	-3
0.39767	-3
0.40133	-2
0.40500	-2
0.40867	-2
0.41233	-2
0.41600	-2
0.41967	-2
0.42333	-2
0.42700	-2
0.43067	-2
0.43433	-2
0.43800	-2
0.44167	-2
0.44533	-2
0.44900	-2
0.45267	-2
0.45633	-3
0.46000	-3
0.46367	-3
0.46733	-3
0.47100	-2
0.47467	-2
0.47833	-2
0.48200	-2
0.48567	-2
0.48933	-2
0.49300	-1
0.49667	-2
0.50033	-2
0.50400	-2
0.50767	-2
0.51133	-2
0.51500	-2
0.51867	-2
0.52233	-2
0.52600	-2
0.52967	-2
0.53333	-2
0.53700	-2
0.54067	-2
0.54433	-2
0.54800	-2
0.55167	-2
0.55533	-3
0.55900	-3
0.56267	-3
0.56633	-3
0.57000	-3
0.57367	-3
0.57733	-3
0.58100	-3
0.58467	-3
0.58833	-3
0.59200	-3
0.59567	-3
0.59933	-3
0.60300	-3
0.60667	-3
0.61033	-3
0.61400	-3
0.61767	-3
0.62133	-3
0.62500	-4
0.62867	-4
0.63233	-4
0.63600	-4
0.63967	-4
0.64333	-4
0.64700	-4
0.65067	-4
0.65433	-4
0.65800	-4
0.66167	-4
0.66533	-4
0.66900	-4
0.67267	-3
0.67633	-3
0.68000	-3
0.68367	-3
0.68733	-3
0.69100	-3
0.69467	-3
0.69833	-2
0.70200	-2
0.70567	-2
0.70933	-2
0.71300	-3
0.71667	-3
0.72033	-3
0.72400	-3
0.72767	-3
0.73133	-3
0.73500	-3
0.73867	-3
0.74233	-3
0.74600	-3
0.74967	-3
0.75333	-3
0.75700	-3
0.76067	-3
0.76433	-3
0.76800	-3
0.77167	-4
0.77533	-4
0.77900	-4
0.78267	-4
0.78633	-3
0.79000	-3
0.79367	-3
0.79733	-3
0.80100	-2
0.80467	-2
0.80833	-2
0.81200	-2
0.81567	-2
0.81933	-2
0.82300	-2
0.82667	-2
0.83033	-2
0.83400	-1
0.83767	-1
0.84133	-2
0.84500	-2
0.84867	-2
0.85233	-2
0.85600	-2
0.85967	-2
0.86333	-2
0.86700	-2
0.87067	-2
0.87433	-3
0.87800	-3
0.88167	-2
0.88533	-2
0.88900	-3
0.89267	-3
0.89633	-3
0.90000	-3
0.90367	-3
0.90733	-3
0.91100	-3
0.91467	-3
0.91833	-3
0.92200	-2
0.92567	-2
0.92933	-2
0.93300	-2
0.93667	-1
0.94033	-1
0.94400	-1
0.94767	-1
0.95133	-2
0.95500	-2
0.95867	-2
0.96233	-1
0.96600	-1
0.96967	-1
0.97333	-1
0.97700	-1
0.98067	-1
0.98433	-1
0.98800	-2
0.99167	-2
0.99533	-2
0.99900	-2
1.00267	-2
1.00633	-2
1.01000	-2
1.01367	-2
1.01733	-2
1.02100	-2
1.02467	-2
1.02833	-2
1.03200	-2
1.03567	-3
1.03933	-3
1.04300	-3
1.04667	-3
1.05033	-3
1.05400	-3
1.05767	-3
1.06133	-3
1.06500	-3
1.06867	-3
1.07233	-3
1.07600	-2
1.07967	-2
1.08333	-3
1.08700	-3
1.09067	-3
1.09433	-3
1.09800	-3
1.10167	-4
1.10533	-4
1.10900	-4
1.11267	-4
1.11633	-4
1.12000	-4
1.12367	-4
1.12733	-4
1.13100	-4
1.13467	-4
1.13833	-4
1.14200	-4
1.14567	-4
1.14933	-3
1.15300	-3
1.15667	-3
1.16033	-3
1.16400	-3
1.16767	-3
1.17133	-3
1.17500	-3
1.17867	-3
1.18233	-3
1.18600	-3
1.18967	-3
1.19333	-3
1.19700	-3
1.20067	-3
1.20433	-3
1.20800	-3
1.21167	-3
1.21533	-3
1.21900	-3
1.22267	-4
1.22633	-4
1.23000	-3
1.23367	-3
1.23733	-3
1.24100	-3
1.24467	-3
1.24833	-3
1.25200	-3
1.25567	-3
1.25933	-3
1.26300	-3
1.26667	-3
1.27033	-3
1.27400	-3
1.27767	-2
1.28133	-2
1.28500	-2
1.28867	-3
1.29233	-3
1.29600	-3
1.29967	-3
1.30333	-3
1.30700	-3
1.31067	-3
1.31433	-2
1.31800	-2
1.32167	-2
1.32533	-2
1.32900	-2
1.33267	-2
1.33633	-2
1.34000	-2
1.34367	-2
1.34733	-2
1.35100	-3
1.35467	-3
1.35833	-3
1.36200	-3
1.36567	-3
1.36933	-3
1.37300	-3
1.37667	-3
1.38033	-3
1.38400	-3
1.38767	-3
1.39133	-3
1.39500	-3
1.39867	-3
1.40233	-2
1.40600	-2
1.40967	-2
1.41333	-2
1.41700	-2
1.42067	-2
1.42433	-2
1.42800	-2
1.43167	-3
1.43533	-3
1.43900	-3
1.44267	-3
1.44633	-3
1.45000	-3
1.45367	-3
1.45733	-4
1.46100	-4
1.46467	-4
1.46833	-4
1.47200	-3
1.47567	-3
1.47933	-3
1.48300	-3
1.48667	-3
1.49033	-3
1.49400	-3
1.49767	-3
1.50133	-3
1.50500	-3
1.50867	-3
1.51233	-3
1.51600	-3
1.51967	-3
1.52333	-4
1.52700	-4
1.53067	-4
1.53433	-3
1.53800	-3
1.54167	-3
1.54533	-3
1.54900	-3
1.55267	-4
1.55633	-4
1.56000	-4
1.56367	-4
1.56733	-3
1.57100	-3
1.57467	-3
1.57833	-3
1.58200	-3
1.58567	-3
1.58933	-3
1.59300	-3
1.59667	-4
1.60033	-5
1.60400	-6
1.60767	-8
1.61133	-10
1.61500	-12
1.61867	-14
1.62233	-16
1.62600	-19
1.62967	-22
1.63333	-25
1.63700	-28
1.64067	-31
1.64433	-35
1.64800	-38
1.65167	-41
1.65533	-45
1.65900	-48
1.66267	-52
1.66633	-55
1.67000	-59
1.67367	-64
1.67733	-69
1.68100	-73
1.68467	-78
1.68833	-81
1.69200	-85
1.69567	-88
1.69933	-90
1.70300	-92
1.70667	-93
1.71033	-94
1.71400	-95
1.71767	-96
1.72133	-96
1.72500	-96
1.72867	-96
1.73233	-96
1.73600	-96
1.73967	-96
1.74333	-97
1.74700	-97
1.75067	-99
1.75433	-99
1.75800	-100
1.76167	-100
1.76533	-101
1.76900	-100
1.77267	-100
1.77633	-100
1.78000	-99
1.78367	-99
1.78733	-98
1.79100	-98
1.79467	-99
1.79833	-99
1.80200	-100
1.80567	-101
1.80933	-102
1.81300	-102
1.81667	-103
1.82033	-104
1.82400	-104
1.82767	-103
1.83133	-103
1.83500	-102
1.83867	-101
1.84233	-101
1.84600	-101
1.84967	-101
1.85333	-100
1.85700	-101
1.86067	-100
1.86433	-100
1.86800	-100
1.87167	-100
1.87533	-99
1.87900	-99
1.88267	-99
1.88633	-98
1.89000	-98
1.89367	-98
1.89733	-99
1.90100	-99
1.90467	-100
1.90833	-100
1.91200	-101
1.91567	-101
1.91933	-101
1.92300	-100
1.92667	-100
1.93033	-99
1.93400	-99
1.93767	-98
1.94133	-97
1.94500	-97
1.94867	-97
1.95233	-97
1.95600	-97
1.95967	-98
1.96333	-98
1.96700	-97
1.97067	-97
1.97433	-97
1.97800	-96
1.98167	-95
1.98533	-95
1.98900	-95
1.99267	-95
1.99633	-95
2.00000	-95
2.00367	-94
2.00733	-94
2.01100	-94
2.01467	-94
2.01833	-94
2.02200	-94
2.02567	-93
2.02933	-92
2.03300	-92
2.03667	-91
2.04033	-90
2.04400	-90
2.04767	-90
2.05133	-90
2.05500	-90
2.05867	-90
2.06233	-90
2.06600	-90
2.06967	-89
2.07333	-88
2.07700	-88
2.08067	-87
2.08433	-87
2.08800	-87
2.09167	-87
2.09533	-87
2.09900	-87
2.10267	-87
2.10633	-87
2.11000	-87
2.11367	-86
2.11733	-86
2.12100	-85
2.12467	-85
2.12833	-84
2.13200	-83
2.13567	-83
2.13933	-83
2.14300	-83
2.14667	-83
2.15033	-84
2.15400	-84
2.15767	-84
2.16133	-84
2.16500	-84
2.16867	-84
2.17233	-84
2.17600	-84
2.17967	-83
2.18333	-82
2.18700	-81
2.19067	-81
2.19433	-80
2.19800	-80
2.20167	-80
2.20533	-79
2.20900	-79
2.21267	-78
2.21633	-78
2.22000	-77
2.22367	-77
2.22733	-77
2.23100	-77
2.23467	-77
2.23833	-77
2.24200	-77
2.24567	-77
2.24933	-77
2.25300	-76
2.25667	-76
2.26033	-75
2.26400	-74
2.26767	-74
2.27133	-73
2.27500	-72
2.27867	-72
2.28233	-71
2.28600	-71
2.28967	-71
2.29333	-72
2.29700	-72
2.30067	-72
2.30433	-72
2.30800	-71
2.31167	-70
2.31533	-69
2.31900	-68
2.32267	-67
2.32633	-67
2.33000	-67
2.33367	-67
2.33733	-66
2.34100	-66
2.34467	-66
2.34833	-66
2.35200	-65
2.35567	-65
2.35933	-64
2.36300	-63
2.36667	-61
2.37033	-58
2.37400	-56
2.37767	-53
2.38133	-49
2.38500	-45
2.38867	-41
2.39233	-37
2.39600	-33
2.39967	-29
2.40333	-25
2.40700	-21
2.41067	-17
2.41433	-13
2.41800	-10
2.42167	-8
2.42533	-6
2.42900	-4
2.43267	-3
2.43633	-1
2.44000	-0
2.44367	1
2.44733	3
2.45100	4
2.45467	5
2.45833	6
2.46200	6
2.46567	8
2.46933	9
2.47300	10
2.47667	11
2.48033	12
2.48400	12
2.48767	12
2.49133	12
2.49500	13
2.49867	13
2.50233	13
2.50600	14
2.50967	14
2.51333	15
2.51700	15
2.52067	15
2.52433	15
2.52800	16
2.53167	16
2.53533	16
2.53900	16
2.54267	15
2.54633	14
2.55000	14
2.55367	13
2.55733	13
2.56100	13
2.56467	12
2.56833	12
2.57200	11
2.57567	11
2.57933	11
2.58300	11
2.58667	11
2.59033	11
2.59400	12
2.59767	13
2.60133	14
2.60500	14
2.60867	15
2.61233	16
2.61600	17
2.61967	17
2.62333	18
2.62700	18
2.63067	19
2.63433	19
2.63800	19
2.64167	19
2.64533	19
2.64900	18
2.65267	18
2.65633	18
2.66000	19
2.66367	19
2.66733	20
2.67100	20
2.67467	21
2.67833	22
2.68200	22
2.68567	23
2.68933	24
2.69300	24
2.69667	24
2.70033	25
2.70400	25
2.70767	25
2.71133	25
2.71500	24
2.71867	24
2.72233	24
2.72600	24
2.72967	24
2.73333	24
2.73700	24
2.74067	25
2.74433	25
2.74800	26
2.75167	26
2.75533	26
2.75900	26
2.76267	26
2.76633	26
2.77000	27
2.77367	27
2.77733	28
2.78100	28
2.78467	28
2.78833	28
2.79200	28
2.79567	28
2.79933	28
2.80300	27
2.80667	27
2.81033	27
2.81400	27
2.81767	27
2.82133	27
2.82500	27
2.82867	27
2.83233	27
2.83600	27
2.83967	27
2.84333	27
2.84700	26
2.85067	26
2.85433	25
2.85800	24
2.86167	20
2.86533	14
2.86900	5
2.87267	-8
2.87633	-26
2.88000	-50
2.88367	-81
2.88733	-117
2.89100	-160
2.89467	-210
2.89833	-266
2.90200	-329
2.90567	-397
2.90933	-470
2.91300	-549
2.91667	-631
2.92033	-717
2.92400	-807
2.92767	-899
2.93133	-994
2.93500	-1090
2.93867	-1188
2.94233	-1289
2.94600	-1388
2.94967	-1474
2.95333	-1536
2.95700	-1563
2.96067	-1552
2.96433	-1505
2.96800	-1430
2.97167	-1335
2.97533	-1228
2.97900	-1115
2.98267	-1002
2.98633	-892
2.99000	-789
2.99367	-692
2.99733	-604
3.00100	-525
3.00467	-454
3.00833	-391
3.01200	-336
3.01567	-288
3.01933	-246
3.02300	-210
3.02667	-178
3.03033	-151
3.03400	-127
3.03767	-107
3.04133	-90
3.04500	-76
3.04867	-63
3.05233	-52
3.05600	-43
3.05967	-35
3.06333	-29
3.06700	-23
3.07067	-18
3.07433	-14
3.07800	-10
3.08167	-7
3.08533	-4
3.08900	-2
3.09267	0
3.09633	2
3.10000	4
3.10367	5
3.10733	6
3.11100	7
3.11467	8
3.11833	9
3.12200	10
3.12567	11
3.12933	12
3.13300	13
3.13667	13
3.14033	14
3.14400	14
3.14767	15
3.15133	15
3.15500	16
3.15867	16
3.16233	17
3.16600	17
3.16967	17
3.17333	17
3.17700	17
3.18067	18
3.18433	18
3.18800	19
3.19167	19
3.19533	20
3.19900	20
3.20267	21
3.20633	21
3.21000	21
3.21367	21
3.21733	21
3.22100	21
3.22467	21
3.22833	21
3.23200	21
3.23567	21
3.23933	21
3.24300	21
3.24667	22
3.25033	22
3.25400	22
3.25767	22
3.26133	22
3.26500	22
3.26867	22
3.27233	22
3.27600	22
3.27967	23
3.28333	23
3.28700	23
3.29067	24
3.29433	24
3.29800	25
3.30167	26
3.30533	26
3.30900	26
3.31267	26
3.31633	26
3.32000	27
3.32367	27
3.32733	27
3.33100	27
3.33467	27
3.33833	27
3.34200	28
3.34567	28
3.34933	28
3.35300	28
3.35667	28
3.36033	29
3.36400	29
3.36767	29
3.37133	29
3.37500	29
3.37867	29
3.38233	29
3.38600	29
3.38967	29
3.39333	29
3.39700	29
3.40067	29
3.40433	29
3.40800	29
3.41167	29
3.41533	29
3.41900	29
3.42267	30
3.42633	30
3.43000	30
3.43367	30
3.43733	30
3.44100	30
3.44467	30
3.44833	29
3.45200	29
3.45567	29
3.45933	29
3.46300	29
3.46667	29
3.47033	29
3.47400	29
3.47767	29
3.48133	29
3.48500	28
3.48867	28
3.49233	28
3.49600	28
3.49967	28
3.50333	28
3.50700	28
3.51067	28
3.51433	28
3.51800	28
3.52167	28
3.52533	28
3.52900	28
3.53267	28
3.53633	28
3.54000	28
3.54367	28
3.54733	28
3.55100	28
3.55467	28
3.55833	28
3.56200	28
3.56567	28
3.56933	28
3.57300	28
3.57667	28
3.58033	28
3.58400	28
3.58767	28
3.59133	28
3.59500	28
3.59867	28
3.60233	28
3.60600	28
3.60967	28
3.61333	28
3.61700	28
3.62067	28
3.62433	28
3.62800	28
3.63167	28
3.63533	28
3.63900	28
3.64267	28
3.64633	29
3.65000	29
3.65367	28
3.65733	28
3.66100	28
3.66467	28
3.66833	28
3.67200	27
3.67567	27
3.67933	27
3.68300	27
3.68667	27
3.69033	28
3.69400	28
3.69767	28
3.70133	28
3.70500	28
3.70867	28
3.71233	28
3.71600	28
3.71967	28
3.72333	28
3.72700	28
3.73067	28
3.73433	28
3.73800	28
3.74167	28
3.74533	28
3.74900	28
3.75267	28
3.75633	28
3.76000	29
3.76367	29
3.76733	29
3.77100	29
3.77467	29
3.77833	29
3.78200	29
3.78567	29
3.78933	28
3.79300	28
3.79667	28
3.80033	27
3.80400	27
3.80767	27
3.81133	27
3.81500	27
3.81867	27
3.82233	27
3.82600	27
3.82967	27
3.83333	28
3.83700	28
3.84067	28
3.84433	28
3.84800	28
3.85167	28
3.85533	27
3.85900	27
3.86267	27
3.86633	27
3.87000	27
3.87367	27
3.87733	28
3.88100	28
3.88467	28
3.88833	28
3.89200	29
3.89567	29
3.89933	29
3.90300	29
3.90667	29
3.91033	29
3.91400	28
3.91767	28
3.92133	28
3.92500	28
3.92867	28
3.93233	27
3.93600	27
3.93967	27
3.94333	27
3.94700	27
3.95067	27
3.95433	27
3.95800	27
3.96167	27
3.96533	27
3.96900	27
3.97267	27
3.97633	27
3.98000	27
3.98367	28
3.98733	28
3.99100	28
3.99467	28
3.99833	28

[Chromatogram (Ch3)]
Interval(msec)	220
# of Points	1091
Start Time(min)	0.002
End Time(min)	3.998
R.Time (min)	Intensity
0.00167	-0
0.00533	-3
0.00900	-5
0.01267	-2
0.01633	-1
0.02000	-2
0.02367	-2
0.02733	1
0.03100	4
0.03467	3
0.03833	2
0.04200	1
0.04567	0
0.04933	-2
0.05300	-2
0.05667	-0
0.06033	1
0.06400	1
0.06767	2
0.07133	0
0.07500	-1
0.07867	-1
0.08233	-0
0.08600	-1
0.08967	-2
0.09333	-0
0.09700	1
0.10067	2
0.10433	1
0.10800	0
0.11167	0
0.11533	1
0.11900	0
0.12267	1
0.12633	2
0.13000	0
0.13367	-4
0.13733	-6
0.14100	-6
0.14467	-6
0.14833	-4
0.15200	-3
0.15567	-4
0.15933	-5
0.16300	-6
0.16667	-6
0.17033	-5
0.17400	-4
0.17767	-5
0.18133	-4
0.18500	-2
0.18867	-3
0.19233	-6
0.19600	-7
0.19967	-7
0.20333	-7
0.20700	-5
0.21067	-3
0.21433	-2
0.21800	-1
0.22167	-2
0.22533	-2
0.22900	-4
0.23267	-5
0.23633	-3
0.24000	-3
0.24367	-2
0.24733	-4
0.25100	-5
0.25467	-4
0.25833	-3
0.26200	-4
0.26567	-4
0.26933	-4
0.27300	-3
0.27667	-2
0.28033	-4
0.28400	-3
0.28767	-2
0.29133	-3
0.29500	-4
0.29867	-7
0.30233	-9
0.30600	-7
0.30967	-5
0.31333	-2
0.31700	-2
0.32067	-4
0.32433	-5
0.32800	-6
0.33167	-8
0.33533	-8
0.33900	-8
0.34267	-9
0.34633	-9
0.35000	-8
0.35367	-7
0.35733	-4
0.36100	-1
0.36467	-2
0.36833	-3
0.37200	-4
0.37567	-6
0.37933	-7
0.38300	-5
0.38667	-4
0.39033	-5
0.39400	-5
0.39767	-5
0.40133	-7
0.40500	-9
0.40867	-8
0.41233	-5
0.41600	-5
0.41967	-5
0.42333	-7
0.42700	-8
0.43067	-8
0.43433	-6
0.43800	-5
0.44167	-6
0.44533	-7
0.44900	-7
0.45267	-5
0.45633	-3
0.46000	-3
0.46367	-3
0.46733	-2
0.47100	1
0.47467	-0
0.47833	-1
0.48200	-0
0.48567	-0
0.48933	-2
0.49300	0
0.49667	0
0.50033	-2
0.50400	-1
0.50767	-1
0.51133	-2
0.51500	-3
0.51867	-2
0.52233	-1
0.52600	-1
0.52967	-2
0.53333	-2
0.53700	-3
0.54067	-4
0.54433	-5
0.54800	-6
0.55167	-7
0.55533	-6
0.55900	-4
0.56267	-5
0.56633	-7
0.57000	-8
0.57367	-9
0.57733	-9
0.58100	-8
0.58467	-8
0.58833	-8
0.59200	-7
0.59567	-6
0.59933	-4
0.60300	-3
0.60667	-0
0.61033	1
0.61400	1
0.61767	0
0.62133	1
0.62500	2
0.62867	1
0.63233	0
0.63600	2
0.63967	2
0.64333	0
0.64700	-1
0.65067	-1
0.65433	-3
0.65800	-3
0.66167	-1
0.66533	1
0.66900	0
0.67267	-0
0.67633	-0
0.68000	-1
0.68367	-2
0.68733	-1
0.69100	3
0.69467	5
0.69833	4
0.70200	3
0.70567	3
0.70933	0
0.71300	-3
0.71667	-5
0.72033	-5
0.72400	-8
0.72767	-7
0.73133	-5
0.73500	-3
0.73867	-1
0.74233	2
0.74600	3
0.74967	3
0.75333	2
0.75700	1
0.76067	2
0.76433	-0
0.76800	-1
0.77167	-2
0.77533	-1
0.77900	-1
0.78267	-1
0.78633	-0
0.79000	-3
0.79367	-7
0.79733	-10
0.80100	-10
0.80467	-9
0.80833	-6
0.81200	-4
0.81567	-2
0.81933	0
0.82300	2
0.82667	3
0.83033	2
0.83400	2
0.83767	2
0.84133	2
0.84500	3
0.84867	1
0.85233	-0
0.85600	-1
0.85967	-2
0.86333	-2
0.86700	-1
0.87067	1
0.87433	1
0.87800	3
0.88167	5
0.88533	5
0.88900	2
0.89267	2
0.89633	2
0.90000	-0
0.90367	-3
0.90733	-3
0.91100	-2
0.91467	-1
0.91833	-1
0.92200	-0
0.92567	-1
0.92933	-2
0.93300	-1
0.93667	-1
0.94033	-0
0.94400	-0
0.94767	0
0.95133	1
0.95500	3
0.95867	2
0.96233	2
0.96600	3
0.96967	3
0.97333	1
0.97700	-0
0.98067	-0
0.98433	-0
0.98800	-1
0.99167	-1
0.99533	-1
0.99900	-3
1.00267	-3
1.00633	-3
1.01000	-2
1.01367	-2
1.01733	0
1.02100	3
1.02467	4
1.02833	5
1.03200	4
1.03567	5
1.03933	6
1.04300	6
1.04667	6
1.05033	6
1.05400	6
1.05767	6
1.06133	4
1.06500	3
1.06867	3
1.07233	5
1.07600	5
1.07967	6
1.08333	8
1.08700	10
1.09067	11
1.09433	10
1.09800	8
1.10167	8
1.10533	10
1.10900	10
1.11267	8
1.11633	6
1.12000	4
1.12367	5
1.12733	5
1.13100	4
1.13467	4
1.13833	6
1.14200	4
1.14567	4
1.14933	6
1.15300	7
1.15667	7
1.16033	5
1.16400	3
1.16767	2
1.17133	5
1.17500	6
1.17867	6
1.18233	6
1.18600	6
1.18967	6
1.19333	6
1.19700	5
1.20067	5
1.20433	7
1.20800	7
1.21167	5
1.21533	5
1.21900	6
1.22267	5
1.22633	3
1.23000	1
1.23367	2
1.23733	3
1.24100	3
1.24467	4
1.24833	5
1.25200	5
1.25567	5
1.25933	9
1.26300	11
1.26667	12
1.27033	12
1.27400	11
1.27767	10
1.28133	10
1.28500	12
1.28867	14
1.29233	13
1.29600	10
1.29967	11
1.30333	12
1.30700	12
1.31067	11
1.31433	9
1.31800	9
1.32167	9
1.32533	9
1.32900	8
1.33267	7
1.33633	8
1.34000	9
1.34367	6
1.34733	4
1.35100	5
1.35467	8
1.35833	8
1.36200	7
1.36567	7
1.36933	6
1.37300	6
1.37667	6
1.38033	6
1.38400	5
1.38767	8
1.39133	11
1.39500	11
1.39867	9
1.40233	9
1.40600	10
1.40967	11
1.41333	12
1.41700	10
1.42067	10
1.42433	11
1.42800	10
1.43167	9
1.43533	8
1.43900	7
1.44267	7
1.44633	6
1.45000	5
1.45367	4
1.45733	8
1.46100	12
1.46467	11
1.46833	8
1.47200	6
1.47567	6
1.47933	7
1.48300	7
1.48667	7
1.49033	8
1.49400	10
1.49767	9
1.50133	6
1.50500	3
1.50867	2
1.51233	5
1.51600	9
1.51967	9
1.52333	8
1.52700	8
1.53067	8
1.53433	8
1.53800	9
1.54167	10
1.54533	11
1.54900	14
1.55267	14
1.55633	11
1.56000	9
1.56367	9
1.56733	9
1.57100	8
1.57467	9
1.57833	9
1.58200	7
1.58567	6
1.58933	5
1.59300	6
1.59667	8
1.60033	7
1.60400	5
1.60767	4
1.61133	4
1.61500	5
1.61867	5
1.62233	6
1.62600	6
1.62967	8
1.63333	9
1.63700	10
1.64067	10
1.64433	11
1.64800	15
1.65167	17
1.65533	16
1.65900	15
1.66267	15
1.66633	12
1.67000	11
1.67367	13
1.67733	16
1.68100	15
1.68467	12
1.68833	13
1.69200	16
1.69567	18
1.69933	18
1.70300	18
1.70667	16
1.71033	16
1.71400	18
1.71767	21
1.72133	23
1.72500	22
1.72867	19
1.73233	18
1.73600	16
1.73967	17
1.74333	19
1.74700	21
1.75067	23
1.75433	21
1.75800	20
1.76167	20
1.76533	21
1.76900	20
1.77267	21
1.77633	20
1.78000	19
1.78367	20
1.78733	21
1.79100	20
1.79467	20
1.79833	20
1.80200	22
1.80567	26
1.80933	29
1.81300	30
1.81667	26
1.82033	21
1.82400	19
1.82767	20
1.83133	21
1.83500	21
1.83867	23
1.84233	26
1.84600	27
1.84967	24
1.85333	21
1.85700	20
1.86067	21
1.86433	24
1.86800	28
1.87167	30
1.87533	30
1.87900	30
1.88267	30
1.88633	29
1.89000	29
1.89367	30
1.89733	30
1.90100	29
1.90467	25
1.90833	22
1.91200	22
1.91567	25
1.91933	29
1.92300	30
1.92667	33
1.93033	36
1.93400	39
1.93767	40
1.94133	40
1.94500	39
1.94867	38
1.95233	36
1.95600	34
1.95967	33
1.96333	33
1.96700	33
1.97067	32
1.97433	31
1.97800	30
1.98167	29
1.98533	28
1.98900	29
1.99267	30
1.99633	33
2.00000	38
2.00367	40
2.00733	41
2.01100	40
2.01467	39
2.01833	38
2.02200	37
2.02567	35
2.02933	33
2.03300	34
2.03667	36
2.04033	40
2.04400	44
2.04767	44
2.05133	45
2.05500	47
2.05867	51
2.06233	54
2.06600	56
2.06967	57
2.07333	54
2.07700	54
2.08067	53
2.08433	52
2.08800	53
2.09167	53
2.09533	55
2.09900	58
2.10267	59
2.10633	60
2.11000	60
2.11367	60
2.11733	63
2.12100	67
2.12467	69
2.12833	70
2.13200	69
2.13567	66
2.13933	65
2.14300	66
2.14667	67
2.15033	67
2.15400	67
2.15767	69
2.16133	75
2.16500	79
2.16867	79
2.17233	79
2.17600	81
2.17967	83
2.18333	83
2.18700	84
2.19067	84
2.19433	82
2.19800	82
2.20167	81
2.20533	79
2.20900	78
2.21267	79
2.21633	83
2.22000	86
2.22367	88
2.22733	89
2.23100	90
2.23467	89
2.23833	92
2.24200	94
2.24567	94
2.24933	93
2.25300	91
2.25667	92
2.26033	90
2.26400	90
2.26767	94
2.27133	100
2.27500	104
2.27867	105
2.28233	105
2.28600	106
2.28967	105
2.29333	104
2.29700	105
2.30067	105
2.30433	106
2.30800	105
2.31167	105
2.31533	107
2.31900	109
2.32267	110
2.32633	112
2.33000	112
2.33367	113
2.33733	113
2.34100	114
2.34467	112
2.34833	112
2.35200	113
2.35567	115
2.35933	117
2.36300	119
2.36667	120
2.37033	119
2.37400	115
2.37767	113
2.38133	112
2.38500	109
2.38867	106
2.39233	107
2.39600	111
2.39967	116
2.40333	123
2.40700	128
2.41067	132
2.41433	134
2.41800	133
2.42167	133
2.42533	132
2.42900	132
2.43267	135
2.43633	135
2.44000	139
2.44367	186
2.44733	272
2.45100	353
2.45467	411
2.45833	439
2.46200	439
2.46567	424
2.46933	407
2.47300	394
2.47667	385
2.48033	373
2.48400	355
2.48767	331
2.49133	307
2.49500	287
2.49867	272
2.50233	263
2.50600	258
2.50967	258
2.51333	264
2.51700	270
2.52067	275
2.52433	278
2.52800	275
2.53167	268
2.53533	257
2.53900	244
2.54267	232
2.54633	221
2.55000	210
2.55367	200
2.55733	193
2.56100	186
2.56467	182
2.56833	181
2.57200	180
2.57567	181
2.57933	183
2.58300	185
2.58667	190
2.59033	195
2.59400	201
2.59767	207
2.60133	215
2.60500	223
2.60867	232
2.61233	239
2.61600	246
2.61967	252
2.62333	256
2.62700	253
2.63067	249
2.63433	245
2.63800	237
2.64167	229
2.64533	223
2.64900	216
2.65267	209
2.65633	200
2.66000	189
2.66367	180
2.66733	171
2.67100	163
2.67467	157
2.67833	151
2.68200	147
2.68567	143
2.68933	142
2.69300	140
2.69667	140
2.70033	140
2.70400	140
2.70767	140
2.71133	140
2.71500	139
2.71867	138
2.72233	139
2.72600	140
2.72967	139
2.73333	139
2.73700	139
2.74067	141
2.74433	144
2.74800	146
2.75167	148
2.75533	149
2.75900	151
2.76267	154
2.76633	158
2.77000	161
2.77367	164
2.77733	168
2.78100	172
2.78467	176
2.78833	178
2.79200	180
2.79567	181
2.79933	183
2.80300	182
2.80667	185
2.81033	190
2.81400	194
2.81767	198
2.82133	200
2.82500	202
2.82867	209
2.83233	225
2.83600	258
2.83967	330
2.84333	485
2.84700	773
2.85067	1249
2.85433	1957
2.85800	2921
2.86167	4125
2.86533	5516
2.86900	7006
2.87267	8489
2.87633	9850
2.88000	10979
2.88367	11789
2.88733	12246
2.89100	12350
2.89467	12139
2.89833	11669
2.90200	11013
2.90567	10234
2.90933	9391
2.91300	8530
2.91667	7685
2.92033	6876
2.92400	6120
2.92767	5425
2.93133	4794
2.93500	4227
2.93867	3721
2.94233	3270
2.94600	2870
2.94967	2518
2.95333	2207
2.95700	1937
2.96067	1702
2.96433	1494
2.96800	1315
2.97167	1160
2.97533	1026
2.97900	909
2.98267	808
2.98633	719
2.99000	643
2.99367	578
2.99733	521
3.00100	473
3.00467	434
3.00833	400
3.01200	371
3.01567	344
3.01933	321
3.02300	302
3.02667	284
3.03033	267
3.03400	254
3.03767	245
3.04133	239
3.04500	248
3.04867	281
3.05233	337
3.05600	412
3.05967	496
3.06333	583
3.06700	668
3.07067	752
3.07433	832
3.07800	900
3.08167	958
3.08533	1004
3.08900	1042
3.09267	1074
3.09633	1099
3.10000	1118
3.10367	1129
3.10733	1137
3.11100	1142
3.11467	1148
3.11833	1150
3.12200	1149
3.12567	1148
3.12933	1146
3.13300	1142
3.13667	1137
3.14033	1133
3.14400	1130
3.14767	1125
3.15133	1121
3.15500	1120
3.15867	1116
3.16233	1111
3.16600	1108
3.16967	1106
3.17333	1102
3.17700	1097
3.18067	1093
3.18433	1090
3.18800	1089
3.19167	1089
3.19533	1087
3.19900	1084
3.20267	1080
3.20633	1077
3.21000	1075
3.21367	1072
3.21733	1072
3.22100	1070
3.22467	1068
3.22833	1066
3.23200	1064
3.23567	1064
3.23933	1061
3.24300	1056
3.24667	1055
3.25033	1055
3.25400	1055
3.25767	1053
3.26133	1051
3.26500	1049
3.26867	1046
3.27233	1040
3.27600	1033
3.27967	1028
3.28333	1024
3.28700	1019
3.29067	1016
3.29433	1013
3.29800	1008
3.30167	1002
3.30533	994
3.30900	986
3.31267	978
3.31633	973
3.32000	969
3.32367	965
3.32733	961
3.33100	957
3.33467	952
3.33833	946
3.34200	941
3.34567	936
3.34933	933
3.35300	932
3.35667	929
3.36033	926
3.36400	922
3.36767	920
3.37133	918
3.37500	917
3.37867	913
3.38233	910
3.38600	906
3.38967	902
3.39333	899
3.39700	895
3.40067	893
3.40433	893
3.40800	891
3.41167	893
3.41533	894
3.41900	894
3.42267	893
3.42633	891
3.43000	889
3.43367	889
3.43733	884
3.44100	882
3.44467	879
3.44833	874
3.45200	870
3.45567	869
3.45933	869
3.46300	871
3.46667	872
3.47033	874
3.47400	874
3.47767	873
3.48133	873
3.48500	874
3.48867	875
3.49233	877
3.49600	878
3.49967	877
3.50333	873
3.50700	869
3.51067	869
3.51433	870
3.51800	872
3.52167	874
3.52533	875
3.52900	875
3.53267	874
3.53633	876
3.54000	873
3.54367	870
3.54733	866
3.55100	867
3.55467	867
3.55833	864
3.56200	860
3.56567	859
3.56933	858
3.57300	857
3.57667	854
3.58033	851
3.58400	847
3.58767	844
3.59133	838
3.59500	834
3.59867	830
3.60233	828
3.60600	826
3.60967	824
3.61333	822
3.61700	822
3.62067	822
3.62433	819
3.62800	814
3.63167	812
3.63533	810
3.63900	809
3.64267	806
3.64633	803
3.65000	800
3.65367	797
3.65733	794
3.66100	789
3.66467	784
3.66833	782
3.67200	781
3.67567	779
3.67933	775
3.68300	771
3.68667	766
3.69033	763
3.69400	757
3.69767	751
3.70133	750
3.70500	750
3.70867	749
3.71233	749
3.71600	749
3.71967	746
3.72333	743
3.72700	741
3.73067	738
3.73433	735
3.73800	732
3.74167	730
3.74533	727
3.74900	724
3.75267	722
3.75633	720
3.76000	720
3.76367	718
3.76733	717
3.77100	716
3.77467	714
3.77833	712
3.78200	710
3.78567	707
3.78933	706
3.79300	705
3.79667	705
3.80033	704
3.80400	700
3.80767	696
3.81133	693
3.81500	690
3.81867	688
3.82233	689
3.82600	692
3.82967	691
3.83333	689
3.83700	688
3.84067	686
3.84433	684
3.84800	682
3.85167	679
3.85533	676
3.85900	674
3.86267	672
3.86633	670
3.87000	670
3.87367	670
3.87733	670
3.88100	669
3.88467	667
3.88833	664
3.89200	664
3.89567	663
3.89933	664
3.90300	664
3.90667	663
3.91033	663
3.91400	660
3.91767	657
3.92133	653
3.92500	652
3.92867	651
3.93233	651
3.93600	650
3.93967	646
3.94333	643
3.94700	642
3.95067	642
3.95433	642
3.95800	642
3.96167	639
3.96533	635
3.96900	634
3.97267	634
3.97633	635
3.98000	633
3.98367	631
3.98733	629
3.99100	625
3.99467	621
3.99833	615

[Status Trace (Column Oven Temperature)]
Interval(msec)	1000
# of Points	240
Start Time(min)	0.010
End Time(min)	3.994
Intensity Units	
Intensity Multiplier	1
R.Time (min)	Intensity
0.01038	35.05
0.02705	35.03
0.04372	35.03
0.06038	35.02
0.07705	35.02
0.09372	35.00
0.11038	35.00
0.12705	35.00
0.14372	35.01
0.16038	35.00
0.17705	35.01
0.19372	35.00
0.21038	35.00
0.22705	35.00
0.24372	35.00
0.26038	35.00
0.27705	35.00
0.29372	35.00
0.31038	35.00
0.32705	35.00
0.34372	35.01
0.36038	35.01
0.37705	35.01
0.39372	35.01
0.41038	35.01
0.42705	35.01
0.44372	35.00
0.46038	35.00
0.47705	34.99
0.49372	35.00
0.51038	34.99
0.52705	34.98
0.54372	34.99
0.56038	34.99
0.57705	34.99
0.59372	34.99
0.61038	34.99
0.62705	35.00
0.64372	35.00
0.66038	35.00
0.67705	35.00
0.69372	35.00
0.71038	35.01
0.72705	35.01
0.74372	35.02
0.76038	35.02
0.77705	35.01
0.79372	35.00
0.81038	35.00
0.82705	34.99
0.84372	34.99
0.86038	34.99
0.87705	35.00
0.89372	35.00
0.91038	35.00
0.92705	35.00
0.94372	35.01
0.96038	35.01
0.97705	35.00
0.99372	35.00
1.01038	34.99
1.02705	34.99
1.04372	34.99
1.06038	34.98
1.07705	34.98
1.09372	34.98
1.11038	34.98
1.12705	34.98
1.14372	34.99
1.16038	34.99
1.17705	34.99
1.19372	34.99
1.21038	34.99
1.22705	34.99
1.24372	34.99
1.26038	34.99
1.27705	34.99
1.29372	34.99
1.31038	35.00
1.32705	34.99
1.34372	34.99
1.36038	34.99
1.37705	34.99
1.39372	34.99
1.41038	34.98
1.42705	34.99
1.44372	34.99
1.46038	35.00
1.47705	35.00
1.49372	35.00
1.51038	35.00
1.52705	35.00
1.54372	35.00
1.56038	35.00
1.57705	35.00
1.59372	35.02
1.61038	35.08
1.62705	35.21
1.64372	35.41
1.66038	35.66
1.67705	36.01
1.69372	36.39
1.71038	36.74
1.72705	37.05
1.74372	37.39
1.76038	37.74
1.77705	38.04
1.79372	38.37
1.81038	38.73
1.82705	39.05
1.84372	39.38
1.86038	39.71
1.87705	40.03
1.89372	40.36
1.91038	40.71
1.92705	41.03
1.94372	41.35
1.96038	41.69
1.97705	42.02
1.99372	42.34
2.01038	42.68
2.02705	43.00
2.04372	43.33
2.06038	43.67
2.07705	43.97
2.09372	44.31
2.11038	44.64
2.12705	44.96
2.14372	45.29
2.16038	45.63
2.17705	45.95
2.19372	46.27
2.21038	46.60
2.22705	46.92
2.24372	47.27
2.26038	47.61
2.27705	47.91
2.29372	48.26
2.31038	48.57
2.32705	48.91
2.34372	49.22
2.36038	49.49
2.37705	49.62
2.39372	49.67
2.41038	49.66
2.42705	49.66
2.44372	49.68
2.46038	49.70
2.47705	49.70
2.49372	49.72
2.51038	49.74
2.52705	49.75
2.54372	49.77
2.56038	49.79
2.57705	49.80
2.59372	49.82
2.61038	49.82
2.62705	49.82
2.64372	49.84
2.66038	49.86
2.67705	49.85
2.69372	49.84
2.71038	49.86
2.72705	49.87
2.74372	49.88
2.76038	49.88
2.77705	49.87
2.79372	49.87
2.81038	49.87
2.82705	49.87
2.84372	49.89
2.86038	49.90
2.87705	49.92
2.89372	49.94
2.91038	49.94
2.92705	49.96
2.94372	49.98
2.96038	49.98
2.97705	49.99
2.99372	50.00
3.01038	50.01
3.02705	50.02
3.04372	50.03
3.06038	50.04
3.07705	50.05
3.09372	50.05
3.11038	50.06
3.12705	50.07
3.14372	50.08
3.16038	50.08
3.17705	50.07
3.19372	50.08
3.21038	50.08
3.22705	50.09
3.24372	50.10
3.26038	50.11
3.27705	50.11
3.29372	50.11
3.31038	50.09
3.32705	50.07
3.34372	50.06
3.36038	50.05
3.37705	50.04
3.39372	50.03
3.41038	50.02
3.42705	50.01
3.44372	50.01
3.46038	50.01
3.47705	50.01
3.49372	50.01
3.51038	50.01
3.52705	50.00
3.54372	50.00
3.56038	50.00
3.57705	50.01
3.59372	50.02
3.61038	50.03
3.62705	50.03
3.64372	50.03
3.66038	50.04
3.67705	50.04
3.69372	50.05
3.71038	50.05
3.72705	50.05
3.74372	50.05
3.76038	50.04
3.77705	50.05
3.79372	50.05
3.81038	50.05
3.82705	50.05
3.84372	50.05
3.86038	50.05
3.87705	50.06
3.89372	50.05
3.91038	50.04
3.92705	50.04
3.94372	50.04
3.96038	50.05
3.97705	50.05
3.99372	50.05

[Status Trace (Injection Unit Temperature)]
Interval(msec)	1000
# of Points	240
Start Time(min)	0.010
End Time(min)	3.994
Intensity Units	
Intensity Multiplier	1
R.Time (min)	Intensity
0.01038	99.97
0.02705	99.97
0.04372	99.97
0.06038	99.97
0.07705	99.97
0.09372	99.97
0.11038	99.97
0.12705	99.97
0.14372	99.97
0.16038	99.97
0.17705	99.97
0.19372	99.97
0.21038	99.97
0.22705	99.97
0.24372	99.97
0.26038	99.97
0.27705	99.97
0.29372	99.97
0.31038	99.97
0.32705	99.97
0.34372	99.97
0.36038	99.97
0.37705	99.97
0.39372	99.98
0.41038	99.97
0.42705	99.98
0.44372	99.98
0.46038	99.97
0.47705	99.97
0.49372	99.98
0.51038	99.98
0.52705	99.98
0.54372	99.98
0.56038	99.98
0.57705	99.98
0.59372	99.98
0.61038	99.98
0.62705	99.98
0.64372	99.98
0.66038	99.98
0.67705	99.98
0.69372	99.98
0.71038	99.98
0.72705	99.98
0.74372	99.98
0.76038	99.98
0.77705	99.98
0.79372	99.98
0.81038	99.98
0.82705	99.98
0.84372	99.98
0.86038	99.98
0.87705	99.98
0.89372	99.98
0.91038	99.98
0.92705	99.98
0.94372	99.98
0.96038	99.98
0.97705	99.98
0.99372	99.98
1.01038	99.98
1.02705	99.98
1.04372	99.98
1.06038	99.98
1.07705	99.98
1.09372	99.98
1.11038	99.98
1.12705	99.98
1.14372	99.98
1.16038	99.98
1.17705	99.98
1.19372	99.98
1.21038	99.98
1.22705	99.98
1.24372	99.98
1.26038	99.98
1.27705	99.98
1.29372	99.98
1.31038	99.98
1.32705	99.98
1.34372	99.98
1.36038	99.98
1.37705	99.98
1.39372	99.98
1.41038	99.98
1.42705	99.98
1.44372	99.98
1.46038	99.98
1.47705	99.98
1.49372	99.98
1.51038	99.98
1.52705	99.98
1.54372	99.98
1.56038	99.98
1.57705	99.98
1.59372	99.98
1.61038	99.98
1.62705	99.98
1.64372	99.98
1.66038	99.98
1.67705	99.98
1.69372	99.98
1.71038	99.98
1.72705	99.98
1.74372	99.98
1.76038	99.98
1.77705	99.98
1.79372	99.98
1.81038	99.98
1.82705	99.98
1.84372	99.98
1.86038	99.97
1.87705	99.98
1.89372	99.97
1.91038	99.98
1.92705	99.98
1.94372	99.98
1.96038	99.98
1.97705	99.97
1.99372	99.97
2.01038	99.97
2.02705	99.97
2.04372	99.97
2.06038	99.97
2.07705	99.97
2.09372	99.97
2.11038	99.97
2.12705	99.97
2.14372	99.97
2.16038	99.97
2.17705	99.97
2.19372	99.97
2.21038	99.97
2.22705	99.97
2.24372	99.97
2.26038	99.97
2.27705	99.97
2.29372	99.97
2.31038	99.97
2.32705	99.97
2.34372	99.97
2.36038	99.97
2.37705	99.97
2.39372	99.97
2.41038	99.97
2.42705	99.97
2.44372	99.97
2.46038	99.97
2.47705	99.97
2.49372	99.97
2.51038	99.97
2.52705	99.97
2.54372	99.97
2.56038	99.97
2.57705	99.97
2.59372	99.97
2.61038	99.96
2.62705	99.98
2.64372	99.98
2.66038	99.97
2.67705	99.98
2.69372	99.98
2.71038	99.98
2.72705	99.98
2.74372	99.98
2.76038	99.98
2.77705	99.98
2.79372	99.99
2.81038	99.99
2.82705	99.99
2.84372	99.99
2.86038	99.99
2.87705	99.99
2.89372	99.99
2.91038	99.99
2.92705	99.99
2.94372	100.00
2.96038	100.00
2.97705	100.00
2.99372	100.00
3.01038	100.00
3.02705	100.00
3.04372	100.00
3.06038	100.01
3.07705	100.01
3.09372	100.01
3.11038	100.01
3.12705	100.01
3.14372	100.01
3.16038	100.01
3.17705	100.01
3.19372	100.01
3.21038	100.02
3.22705	100.02
3.24372	100.02
3.26038	100.02
3.27705	100.02
3.29372	100.02
3.31038	100.02
3.32705	100.02
3.34372	100.02
3.36038	100.02
3.37705	100.02
3.39372	100.03
3.41038	100.03
3.42705	100.03
3.44372	100.03
3.46038	100.03
3.47705	100.03
3.49372	100.03
3.51038	100.03
3.52705	100.03
3.54372	100.03
3.56038	100.03
3.57705	100.03
3.59372	100.04
3.61038	100.04
3.62705	100.04
3.64372	100.04
3.66038	100.04
3.67705	100.04
3.69372	100.04
3.71038	100.04
3.72705	100.04
3.74372	100.05
3.76038	100.05
3.77705	100.05
3.79372	100.05
3.81038	100.04
3.82705	100.04
3.84372	100.05
3.86038	100.05
3.87705	100.04
3.89372	100.05
3.91038	100.05
3.92705	100.05
3.94372	100.05
3.96038	100.05
3.97705	100.05
3.99372	100.05

[Status Trace (Carrier Gas Pressure)]
Interval(msec)	1000
# of Points	240
Start Time(min)	0.010
End Time(min)	3.994
Intensity Units	
Intensity Multiplier	1
R.Time (min)	Intensity
0.01038	58.00
0.02705	55.06
0.04372	57.33
0.06038	59.46
0.07705	59.19
0.09372	58.04
0.11038	57.99
0.12705	58.01
0.14372	58.01
0.16038	58.00
0.17705	58.00
0.19372	58.00
0.21038	58.00
0.22705	58.00
0.24372	58.00
0.26038	58.00
0.27705	58.00
0.29372	58.00
0.31038	58.00
0.32705	58.00
0.34372	58.00
0.36038	58.00
0.37705	58.00
0.39372	58.00
0.41038	58.00
0.42705	58.00
0.44372	58.00
0.46038	58.00
0.47705	58.00
0.49372	58.00
0.51038	58.00
0.52705	58.00
0.54372	58.00
0.56038	58.00
0.57705	58.00
0.59372	58.00
0.61038	58.00
0.62705	58.00
0.64372	58.00
0.66038	58.00
0.67705	58.00
0.69372	58.00
0.71038	58.00
0.72705	58.00
0.74372	58.00
0.76038	58.00
0.77705	58.00
0.79372	58.00
0.81038	58.00
0.82705	58.00
0.84372	58.00
0.86038	58.00
0.87705	58.00
0.89372	58.00
0.91038	58.00
0.92705	58.00
0.94372	58.00
0.96038	58.00
0.97705	58.00
0.99372	58.00
1.01038	58.00
1.02705	58.00
1.04372	58.00
1.06038	58.00
1.07705	58.00
1.09372	58.00
1.11038	58.00
1.12705	58.00
1.14372	58.00
1.16038	58.00
1.17705	58.00
1.19372	58.00
1.21038	58.00
1.22705	58.00
1.24372	58.00
1.26038	58.00
1.27705	58.00
1.29372	58.00
1.31038	58.00
1.32705	58.00
1.34372	58.00
1.36038	58.00
1.37705	58.00
1.39372	58.00
1.41038	58.00
1.42705	58.00
1.44372	58.00
1.46038	58.00
1.47705	58.00
1.49372	58.00
1.51038	58.00
1.52705	58.00
1.54372	58.00
1.56038	58.00
1.57705	58.00
1.59372	58.00
1.61038	58.00
1.62705	58.00
1.64372	58.00
1.66038	58.01
1.67705	58.01
1.69372	58.00
1.71038	58.00
1.72705	58.00
1.74372	58.00
1.76038	58.00
1.77705	58.00
1.79372	58.00
1.81038	58.00
1.82705	58.00
1.84372	58.00
1.86038	58.00
1.87705	58.00
1.89372	58.00
1.91038	58.00
1.92705	58.00
1.94372	58.00
1.96038	58.00
1.97705	58.00
1.99372	58.00
2.01038	58.00
2.02705	58.00
2.04372	58.00
2.06038	58.00
2.07705	58.00
2.09372	58.00
2.11038	58.00
2.12705	58.00
2.14372	58.00
2.16038	58.00
2.17705	58.00
2.19372	58.00
2.21038	58.00
2.22705	58.00
2.24372	58.00
2.26038	58.00
2.27705	58.00
2.29372	58.00
2.31038	58.00
2.32705	58.00
2.34372	58.00
2.36038	58.00
2.37705	57.99
2.39372	57.99
2.41038	57.99
2.42705	58.00
2.44372	58.00
2.46038	58.00
2.47705	58.00
2.49372	58.00
2.51038	57.99
2.52705	57.98
2.54372	58.00
2.56038	58.00
2.57705	58.00
2.59372	58.00
2.61038	58.00
2.62705	58.00
2.64372	58.00
2.66038	58.00
2.67705	58.00
2.69372	58.00
2.71038	58.00
2.72705	58.00
2.74372	58.00
2.76038	58.00
2.77705	58.00
2.79372	58.00
2.81038	58.00
2.82705	58.00
2.84372	58.00
2.86038	58.00
2.87705	58.00
2.89372	58.00
2.91038	58.00
2.92705	58.00
2.94372	58.00
2.96038	58.00
2.97705	58.00
2.99372	58.00
3.01038	58.00
3.02705	58.00
3.04372	58.00
3.06038	58.00
3.07705	58.00
3.09372	58.00
3.11038	58.00
3.12705	58.00
3.14372	58.00
3.16038	58.00
3.17705	58.00
3.19372	58.00
3.21038	58.00
3.22705	58.00
3.24372	58.00
3.26038	58.00
3.27705	58.00
3.29372	58.00
3.31038	58.00
3.32705	58.00
3.34372	58.00
3.36038	58.00
3.37705	58.00
3.39372	58.00
3.41038	58.00
3.42705	58.00
3.44372	58.00
3.46038	58.00
3.47705	58.00
3.49372	58.00
3.51038	58.00
3.52705	58.00
3.54372	58.00
3.56038	58.00
3.57705	58.00
3.59372	58.00
3.61038	58.00
3.62705	58.00
3.64372	58.00
3.66038	58.00
3.67705	58.00
3.69372	58.00
3.71038	58.00
3.72705	58.00
3.74372	58.00
3.76038	58.00
3.77705	58.00
3.79372	58.00
3.81038	58.00
3.82705	58.00
3.84372	58.00
3.86038	58.00
3.87705	58.00
3.89372	58.00
3.91038	58.00
3.92705	58.00
3.94372	58.00
3.96038	58.00
3.97705	58.00
3.99372	58.00

[Status Trace (Carrier Gas Flow)]
Interval(msec)	1000
# of Points	240
Start Time(min)	0.010
End Time(min)	3.994
Intensity Units	
Intensity Multiplier	1
R.Time (min)	Intensity
0.01038	34.52
0.02705	34.54
0.04372	34.54
0.06038	34.55
0.07705	34.50
0.09372	34.51
0.11038	34.51
0.12705	34.52
0.14372	34.52
0.16038	34.52
0.17705	34.52
0.19372	34.52
0.21038	34.52
0.22705	34.52
0.24372	34.52
0.26038	34.51
0.27705	34.52
0.29372	34.52
0.31038	34.52
0.32705	34.52
0.34372	34.52
0.36038	34.52
0.37705	34.52
0.39372	34.52
0.41038	34.52
0.42705	34.52
0.44372	34.52
0.46038	34.52
0.47705	34.52
0.49372	34.52
0.51038	34.52
0.52705	34.52
0.54372	34.52
0.56038	34.53
0.57705	34.52
0.59372	34.52
0.61038	34.51
0.62705	34.51
0.64372	34.52
0.66038	34.52
0.67705	34.52
0.69372	34.51
0.71038	34.52
0.72705	34.52
0.74372	34.52
0.76038	34.52
0.77705	34.52
0.79372	34.52
0.81038	34.52
0.82705	34.51
0.84372	34.52
0.86038	34.51
0.87705	34.52
0.89372	34.52
0.91038	34.52
0.92705	34.52
0.94372	34.53
0.96038	34.52
0.97705	34.52
0.99372	34.52
1.01038	34.52
1.02705	34.52
1.04372	34.52
1.06038	34.52
1.07705	34.53
1.09372	34.52
1.11038	34.52
1.12705	34.52
1.14372	34.52
1.16038	34.51
1.17705	34.52
1.19372	34.52
1.21038	34.52
1.22705	34.52
1.24372	34.52
1.26038	34.52
1.27705	34.52
1.29372	34.52
1.31038	34.52
1.32705	34.52
1.34372	34.52
1.36038	34.52
1.37705	34.52
1.39372	34.52
1.41038	34.52
1.42705	34.52
1.44372	34.52
1.46038	34.52
1.47705	34.52
1.49372	34.52
1.51038	34.51
1.52705	34.52
1.54372	34.52
1.56038	34.52
1.57705	34.51
1.59372	34.52
1.61038	34.52
1.62705	34.52
1.64372	34.52
1.66038	34.52
1.67705	34.52
1.69372	34.51
1.71038	34.52
1.72705	34.52
1.74372	34.52
1.76038	34.52
1.77705	34.52
1.79372	34.52
1.81038	34.52
1.82705	34.52
1.84372	34.52
1.86038	34.52
1.87705	34.52
1.89372	34.52
1.91038	34.52
1.92705	34.52
1.94372	34.53
1.96038	34.52
1.97705	34.52
1.99372	34.52
2.01038	34.52
2.02705	34.52
2.04372	34.52
2.06038	34.52
2.07705	34.52
2.09372	34.52
2.11038	34.51
2.12705	34.52
2.14372	34.52
2.16038	34.52
2.17705	34.52
2.19372	34.52
2.21038	34.52
2.22705	34.52
2.24372	34.52
2.26038	34.51
2.27705	34.52
2.29372	34.52
2.31038	34.52
2.32705	34.52
2.34372	34.52
2.36038	34.52
2.37705	34.52
2.39372	34.52
2.41038	34.52
2.42705	34.52
2.44372	34.52
2.46038	34.52
2.47705	34.52
2.49372	34.52
2.51038	34.51
2.52705	34.52
2.54372	34.52
2.56038	34.52
2.57705	34.52
2.59372	34.52
2.61038	34.52
2.62705	34.52
2.64372	34.52
2.66038	34.52
2.67705	34.52
2.69372	34.52
2.71038	34.52
2.72705	34.52
2.74372	34.52
2.76038	34.52
2.77705	34.52
2.79372	34.52
2.81038	34.51
2.82705	34.52
2.84372	34.52
2.86038	34.51
2.87705	34.52
2.89372	34.52
2.91038	34.52
2.92705	34.52
2.94372	34.52
2.96038	34.52
2.97705	34.52
2.99372	34.52
3.01038	34.52
3.02705	34.52
3.04372	34.52
3.06038	34.52
3.07705	34.52
3.09372	34.52
3.11038	34.52
3.12705	34.52
3.14372	34.52
3.16038	34.52
3.17705	34.52
3.19372	34.52
3.21038	34.51
3.22705	34.52
3.24372	34.52
3.26038	34.52
3.27705	34.52
3.29372	34.52
3.31038	34.52
3.32705	34.52
3.34372	34.52
3.36038	34.52
3.37705	34.52
3.39372	34.52
3.41038	34.52
3.42705	34.52
3.44372	34.52
3.46038	34.52
3.47705	34.52
3.49372	34.52
3.51038	34.52
3.52705	34.52
3.54372	34.52
3.56038	34.52
3.57705	34.52
3.59372	34.52
3.61038	34.52
3.62705	34.52
3.64372	34.52
3.66038	34.52
3.67705	34.52
3.69372	34.51
3.71038	34.52
3.72705	34.52
3.74372	34.52
3.76038	34.52
3.77705	34.52
3.79372	34.52
3.81038	34.52
3.82705	34.52
3.84372	34.52
3.86038	34.52
3.87705	34.52
3.89372	34.52
3.91038	34.52
3.92705	34.51
3.94372	34.52
3.96038	34.52
3.97705	34.51
3.99372	34.52

[Status Trace (Column Flow)]
Interval(msec)	1000
# of Points	240
Start Time(min)	0.010
End Time(min)	3.994
Intensity Units	
Intensity Multiplier	1
R.Time (min)	Intensity
0.01038	5.51
0.02705	5.17
0.04372	5.43
0.06038	5.68
0.07705	5.65
0.09372	5.52
0.11038	5.51
0.12705	5.51
0.14372	5.51
0.16038	5.51
0.17705	5.51
0.19372	5.51
0.21038	5.51
0.22705	5.51
0.24372	5.51
0.26038	5.51
0.27705	5.51
0.29372	5.51
0.31038	5.51
0.32705	5.51
0.34372	5.51
0.36038	5.51
0.37705	5.51
0.39372	5.51
0.41038	5.51
0.42705	5.51
0.44372	5.51
0.46038	5.51
0.47705	5.51
0.49372	5.51
0.51038	5.51
0.52705	5.51
0.54372	5.51
0.56038	5.51
0.57705	5.51
0.59372	5.51
0.61038	5.51
0.62705	5.51
0.64372	5.51
0.66038	5.51
0.67705	5.51
0.69372	5.51
0.71038	5.51
0.72705	5.51
0.74372	5.51
0.76038	5.51
0.77705	5.51
0.79372	5.51
0.81038	5.51
0.82705	5.51
0.84372	5.51
0.86038	5.51
0.87705	5.51
0.89372	5.51
0.91038	5.51
0.92705	5.51
0.94372	5.51
0.96038	5.51
0.97705	5.51
0.99372	5.51
1.01038	5.51
1.02705	5.51
1.04372	5.51
1.06038	5.51
1.07705	5.51
1.09372	5.51
1.11038	5.51
1.12705	5.51
1.14372	5.51
1.16038	5.51
1.17705	5.51
1.19372	5.51
1.21038	5.51
1.22705	5.51
1.24372	5.51
1.26038	5.51
1.27705	5.51
1.29372	5.51
1.31038	5.51
1.32705	5.51
1.34372	5.51
1.36038	5.51
1.37705	5.51
1.39372	5.51
1.41038	5.51
1.42705	5.51
1.44372	5.51
1.46038	5.51
1.47705	5.51
1.49372	5.51
1.51038	5.51
1.52705	5.51
1.54372	5.51
1.56038	5.51
1.57705	5.51
1.59372	5.51
1.61038	5.51
1.62705	5.51
1.64372	5.50
1.66038	5.49
1.67705	5.48
1.69372	5.47
1.71038	5.46
1.72705	5.45
1.74372	5.44
1.76038	5.43
1.77705	5.42
1.79372	5.41
1.81038	5.40
1.82705	5.39
1.84372	5.38
1.86038	5.37
1.87705	5.36
1.89372	5.35
1.91038	5.34
1.92705	5.33
1.94372	5.32
1.96038	5.31
1.97705	5.30
1.99372	5.29
2.01038	5.28
2.02705	5.27
2.04372	5.26
2.06038	5.25
2.07705	5.24
2.09372	5.23
2.11038	5.22
2.12705	5.21
2.14372	5.21
2.16038	5.19
2.17705	5.19
2.19372	5.18
2.21038	5.17
2.22705	5.16
2.24372	5.15
2.26038	5.14
2.27705	5.13
2.29372	5.12
2.31038	5.11
2.32705	5.10
2.34372	5.09
2.36038	5.09
2.37705	5.08
2.39372	5.08
2.41038	5.08
2.42705	5.08
2.44372	5.08
2.46038	5.08
2.47705	5.08
2.49372	5.08
2.51038	5.08
2.52705	5.08
2.54372	5.08
2.56038	5.08
2.57705	5.08
2.59372	5.08
2.61038	5.08
2.62705	5.08
2.64372	5.08
2.66038	5.08
2.67705	5.08
2.69372	5.08
2.71038	5.08
2.72705	5.07
2.74372	5.07
2.76038	5.07
2.77705	5.07
2.79372	5.07
2.81038	5.07
2.82705	5.07
2.84372	5.07
2.86038	5.07
2.87705	5.07
2.89372	5.07
2.91038	5.07
2.92705	5.07
2.94372	5.07
2.96038	5.07
2.97705	5.07
2.99372	5.07
3.01038	5.07
3.02705	5.07
3.04372	5.07
3.06038	5.07
3.07705	5.07
3.09372	5.07
3.11038	5.07
3.12705	5.07
3.14372	5.07
3.16038	5.07
3.17705	5.07
3.19372	5.07
3.21038	5.07
3.22705	5.07
3.24372	5.07
3.26038	5.07
3.27705	5.07
3.29372	5.07
3.31038	5.07
3.32705	5.07
3.34372	5.07
3.36038	5.07
3.37705	5.07
3.39372	5.07
3.41038	5.07
3.42705	5.07
3.44372	5.07
3.46038	5.07
3.47705	5.07
3.49372	5.07
3.51038	5.07
3.52705	5.07
3.54372	5.07
3.56038	5.07
3.57705	5.07
3.59372	5.07
3.61038	5.07
3.62705	5.07
3.64372	5.07
3.66038	5.07
3.67705	5.07
3.69372	5.07
3.71038	5.07
3.72705	5.07
3.74372	5.07
3.76038	5.07
3.77705	5.07
3.79372	5.07
3.81038	5.07
3.82705	5.07
3.84372	5.07
3.86038	5.07
3.87705	5.07
3.89372	5.07
3.91038	5.07
3.92705	5.07
3.94372	5.07
3.96038	5.07
3.97705	5.07
3.99372	5.07

[Status Trace (Linear Velocity)]
Interval(msec)	1000
# of Points	240
Start Time(min)	0.010
End Time(min)	3.994
Intensity Units	
Intensity Multiplier	1
R.Time (min)	Intensity
0.01038	39.01
0.02705	37.08
0.04372	38.57
0.06038	39.97
0.07705	39.79
0.09372	39.04
0.11038	39.00
0.12705	39.02
0.14372	39.02
0.16038	39.02
0.17705	39.02
0.19372	39.02
0.21038	39.02
0.22705	39.02
0.24372	39.02
0.26038	39.02
0.27705	39.02
0.29372	39.02
0.31038	39.02
0.32705	39.02
0.34372	39.01
0.36038	39.01
0.37705	39.01
0.39372	39.01
0.41038	39.01
0.42705	39.01
0.44372	39.02
0.46038	39.02
0.47705	39.02
0.49372	39.02
0.51038	39.02
0.52705	39.02
0.54372	39.02
0.56038	39.02
0.57705	39.02
0.59372	39.02
0.61038	39.02
0.62705	39.02
0.64372	39.01
0.66038	39.02
0.67705	39.01
0.69372	39.02
0.71038	39.01
0.72705	39.01
0.74372	39.01
0.76038	39.01
0.77705	39.01
0.79372	39.01
0.81038	39.01
0.82705	39.02
0.84372	39.02
0.86038	39.02
0.87705	39.02
0.89372	39.01
0.91038	39.01
0.92705	39.01
0.94372	39.01
0.96038	39.01
0.97705	39.01
0.99372	39.01
1.01038	39.02
1.02705	39.02
1.04372	39.02
1.06038	39.02
1.07705	39.02
1.09372	39.02
1.11038	39.02
1.12705	39.02
1.14372	39.02
1.16038	39.02
1.17705	39.02
1.19372	39.02
1.21038	39.02
1.22705	39.02
1.24372	39.02
1.26038	39.02
1.27705	39.02
1.29372	39.02
1.31038	39.01
1.32705	39.02
1.34372	39.02
1.36038	39.02
1.37705	39.02
1.39372	39.02
1.41038	39.02
1.42705	39.02
1.44372	39.02
1.46038	39.02
1.47705	39.01
1.49372	39.01
1.51038	39.01
1.52705	39.01
1.54372	39.01
1.56038	39.02
1.57705	39.01
1.59372	39.01
1.61038	39.01
1.62705	39.00
1.64372	38.98
1.66038	38.95
1.67705	38.92
1.69372	38.89
1.71038	38.85
1.72705	38.82
1.74372	38.79
1.76038	38.75
1.77705	38.72
1.79372	38.70
1.81038	38.66
1.82705	38.63
1.84372	38.60
1.86038	38.57
1.87705	38.54
1.89372	38.51
1.91038	38.47
1.92705	38.44
1.94372	38.42
1.96038	38.38
1.97705	38.35
1.99372	38.33
2.01038	38.29
2.02705	38.26
2.04372	38.23
2.06038	38.20
2.07705	38.17
2.09372	38.15
2.11038	38.11
2.12705	38.08
2.14372	38.06
2.16038	38.02
2.17705	37.99
2.19372	37.97
2.21038	37.93
2.22705	37.91
2.24372	37.88
2.26038	37.84
2.27705	37.82
2.29372	37.79
2.31038	37.76
2.32705	37.73
2.34372	37.70
2.36038	37.67
2.37705	37.66
2.39372	37.66
2.41038	37.66
2.42705	37.66
2.44372	37.66
2.46038	37.66
2.47705	37.66
2.49372	37.66
2.51038	37.65
2.52705	37.64
2.54372	37.65
2.56038	37.65
2.57705	37.65
2.59372	37.65
2.61038	37.65
2.62705	37.65
2.64372	37.65
2.66038	37.64
2.67705	37.64
2.69372	37.64
2.71038	37.64
2.72705	37.64
2.74372	37.64
2.76038	37.64
2.77705	37.64
2.79372	37.64
2.81038	37.64
2.82705	37.64
2.84372	37.64
2.86038	37.64
2.87705	37.64
2.89372	37.64
2.91038	37.64
2.92705	37.63
2.94372	37.63
2.96038	37.63
2.97705	37.63
2.99372	37.63
3.01038	37.63
3.02705	37.63
3.04372	37.63
3.06038	37.63
3.07705	37.63
3.09372	37.63
3.11038	37.63
3.12705	37.62
3.14372	37.62
3.16038	37.62
3.17705	37.62
3.19372	37.62
3.21038	37.62
3.22705	37.62
3.24372	37.62
3.26038	37.62
3.27705	37.62
3.29372	37.62
3.31038	37.62
3.32705	37.62
3.34372	37.63
3.36038	37.63
3.37705	37.63
3.39372	37.63
3.41038	37.63
3.42705	37.63
3.44372	37.63
3.46038	37.63
3.47705	37.63
3.49372	37.63
3.51038	37.63
3.52705	37.63
3.54372	37.63
3.56038	37.63
3.57705	37.63
3.59372	37.63
3.61038	37.63
3.62705	37.63
3.64372	37.63
3.66038	37.63
3.67705	37.63
3.69372	37.63
3.71038	37.63
3.72705	37.63
3.74372	37.63
3.76038	37.63
3.77705	37.63
3.79372	37.63
3.81038	37.63
3.82705	37.63
3.84372	37.63
3.86038	37.63
3.87705	37.63
3.89372	37.63
3.91038	37.63
3.92705	37.63
3.94372	37.63
3.96038	37.63
3.97705	37.63
3.99372	37.63

