[Header]
Application Name	LabSolutions
Version	5.110
Data File Name	C:\Users\User\Desktop\Junior\UIC Prairie Sampling\2023\8.18.23\081823_063.gcd
Output Date	8/31/2023
Output Time	12:48:11 PM

[File Information]
Type	Data File
Generated	8/30/2023 10:52:09 PM
Generated by	System Administrator
Modified	8/30/2023 10:58:32 PM
Modified by	System Administrator

[Sample Information]
Operator Name	System Administrator
Acquired	8/30/2023 10:54:31 PM
Sample Type	0:Unknown
Level	0
Sample Name	063
Sample ID	063
ISTD Amount1	1
ISTD Amount2	1
ISTD Amount3	1
ISTD Amount4	1
ISTD Amount5	1
ISTD Amount6	1
ISTD Amount7	1
ISTD Amount8	1
ISTD Amount9	1
ISTD Amount10	1
ISTD Amount11	1
ISTD Amount12	1
ISTD Amount13	1
ISTD Amount14	1
ISTD Amount15	1
ISTD Amount16	1
ISTD Amount17	1
ISTD Amount18	1
ISTD Amount19	1
ISTD Amount20	1
ISTD Amount21	1
ISTD Amount22	1
ISTD Amount23	1
ISTD Amount24	1
ISTD Amount25	1
ISTD Amount26	1
ISTD Amount27	1
ISTD Amount28	1
ISTD Amount29	1
ISTD Amount30	1
ISTD Amount31	1
ISTD Amount32	1
Sample Amount	1
Dilution Factor	1
Vial#	62
Injection Volume	1
Injection Count	1
Bar Code	

[Original Files]
Data File	C:\Users\User\Desktop\Junior\UIC Prairie Sampling\8.18.23\081823_063.gcd
Method File	C:\LabSolutions\Data\GHG_4min_2022\ghg3_togas_w_acet_4 min_new_int.gcm
Batch File	C:\LabSolutions\Data\BATCH FILES\081823.gcb
Report Format File	c:\LabSolutions\System\DEFAULT.lsr

[File Description]


[Configuration]
Instrument Name	C0B7VH3-Instrument1
Instrument #	1
Line #	1
# of Detectors	3
Detector ID	DET#1	DET#2	DET#3
Detector Name	FID	PTCD	ECD
# of Channels	1	1	1

[Peak Table(Ch1)]
# of Peaks	3
Peak#	R.Time	I.Time	F.Time	Area	Height	A/H	Conc.	Mark	ID#	Name	k'	Plate #	Plate Ht.	Tailing	Resolution	Sep.Factor	Area Ratio	Height Ratio	Conc. %	Norm Conc.
1	1.498	1.468	1.527	1053	377	2.793	0.000	   	1	CO	0.000	1028	145.846	0.000	0.000	0.000	0	0	0.000	0.000
2	1.564	1.527	1.685	5794	2473	2.343	28.247	 V 	2	CH4	0.044	9666	15.518	0.000	0.527	0.000	0	0	14.906	14.906
3	1.989	1.930	2.517	836741	397404	2.106	161.255	   	3	CO2	0.328	17553	8.545	1.330	6.879	7.444	0	0	85.094	85.094

[Peak Table(Ch2)]
# of Peaks	0

[Peak Table(Ch3)]
# of Peaks	5
Peak#	R.Time	I.Time	F.Time	Area	Height	A/H	Conc.	Mark	ID#	Name	k'	Plate #	Plate Ht.	Tailing	Resolution	Sep.Factor	Area Ratio	Height Ratio	Conc. %	Norm Conc.
1	2.458	2.341	2.506	906	320	2.830	0.000	   			0.000	12166	12.329	0.000	0.000	0.000	0	0	0.000	0.000
2	2.524	2.506	2.572	387	140	2.771	0.000	 V 			0.027	4830	31.053	0.000	0.563	0.000	0	0	0.000	0.000
3	2.627	2.572	2.708	468	114	4.119	0.000	 V 			0.069	7917	18.947	0.000	0.780	2.556	0	0	0.000	0.000
4	2.891	2.770	3.071	14551	3955	3.679	0.215	   	1	N2O	0.176	13896	10.795	1.497	2.442	2.565	0	0	100.000	100.000
5	3.217	3.137	3.962	21360	880	24.271	0.000	   	2	SF6	0.309	285	525.975	5.206	0.759	1.754	0	0	0.000	0.000

[Compound Results(Ch1)]
# of IDs	6
ID#	Name	R.Time	Area	Height	Conc.	Curve	3rd	2nd	1st	Constant	Area Ratio	Height Ratio	Conc. %	Norm Conc.
1	CO	1.498	1053	377	0.000	Linear	0.000000e+00	0.000000e+00	0.000000e+00	0.000000e+00	0	0	0.000	0.000
2	CH4	1.564	5794	2473	28.247	Linear	0.000000e+00	0.000000e+00	2.051179e+002	0.000000e+00	0	0	14.906	14.906
3	CO2	1.989	836741	397404	161.255	Linear	0.000000e+00	0.000000e+00	5.188919e+003	0.000000e+00	0	0	85.094	85.094
4	Ethylene	0.000	0	0	0.000	Linear	0.000000e+00	0.000000e+00	0.000000e+00	0.000000e+00	0	0	0.000	0.000
5	Acetylene	0.000	0	0	0.000	Linear	0.000000e+00	0.000000e+00	0.000000e+00	0.000000e+00	0	0	0.000	0.000
6	Ethane	0.000	0	0	0.000	Linear	0.000000e+00	0.000000e+00	0.000000e+00	0.000000e+00	0	0	0.000	0.000

[Compound Results(Ch2)]
# of IDs	5
ID#	Name	R.Time	Area	Height	Conc.	Curve	3rd	2nd	1st	Constant	Area Ratio	Height Ratio	Conc. %	Norm Conc.
1	Hydrogen	0.000	0	0	0.000	Linear	0.000000e+00	0.000000e+00	0.000000e+00	0.000000e+00	0	0	0.000	0.000
2	Oxygen	0.000	0	0	0.000	Linear	0.000000e+00	0.000000e+00	0.000000e+00	0.000000e+00	0	0	0.000	0.000
3	Nitrogen	0.000	0	0	0.000	Linear	0.000000e+00	0.000000e+00	0.000000e+00	0.000000e+00	0	0	0.000	0.000
4	Methane	0.000	0	0	0.000	Linear	0.000000e+00	0.000000e+00	0.000000e+00	0.000000e+00	0	0	0.000	0.000
5	Carbon Monoxide	0.000	0	0	0.000	Linear	0.000000e+00	0.000000e+00	0.000000e+00	0.000000e+00	0	0	0.000	0.000

[Compound Results(Ch3)]
# of IDs	2
ID#	Name	R.Time	Area	Height	Conc.	Curve	3rd	2nd	1st	Constant	Area Ratio	Height Ratio	Conc. %	Norm Conc.
1	N2O	2.891	14551	3955	0.215	Linear	0.000000e+00	0.000000e+00	6.759880e+004	0.000000e+00	0	0	100.000	100.000
2	SF6	3.217	21360	880	0.000	Linear	0.000000e+00	0.000000e+00	0.000000e+00	0.000000e+00	0	0	0.000	0.000

[Group Results(Ch1)]
# of Groups	0

[Group Results(Ch2)]
# of Groups	0

[Group Results(Ch3)]
# of Groups	0

[Chromatogram (Ch1)]
Interval(msec)	220
# of Points	1091
Start Time(min)	0.002
End Time(min)	3.998
R.Time (min)	Intensity
0.00167	-10
0.00533	-10
0.00900	-9
0.01267	-5
0.01633	-1
0.02000	-1
0.02367	-2
0.02733	-0
0.03100	2
0.03467	1
0.03833	-2
0.04200	-6
0.04567	-8
0.04933	-8
0.05300	-10
0.05667	-14
0.06033	-18
0.06400	-20
0.06767	-19
0.07133	-18
0.07500	-19
0.07867	-18
0.08233	-15
0.08600	-9
0.08967	-6
0.09333	-9
0.09700	-12
0.10067	-15
0.10433	-16
0.10800	-13
0.11167	-5
0.11533	4
0.11900	8
0.12267	6
0.12633	2
0.13000	-3
0.13367	-5
0.13733	-4
0.14100	-1
0.14467	2
0.14833	5
0.15200	6
0.15567	4
0.15933	-0
0.16300	-7
0.16667	-11
0.17033	-10
0.17400	-7
0.17767	-3
0.18133	1
0.18500	2
0.18867	2
0.19233	-0
0.19600	1
0.19967	5
0.20333	6
0.20700	0
0.21067	-6
0.21433	-9
0.21800	-9
0.22167	-9
0.22533	-6
0.22900	-1
0.23267	1
0.23633	-0
0.24000	-3
0.24367	-7
0.24733	-11
0.25100	-12
0.25467	-10
0.25833	-5
0.26200	-1
0.26567	5
0.26933	9
0.27300	10
0.27667	5
0.28033	-1
0.28400	-4
0.28767	-6
0.29133	-9
0.29500	-11
0.29867	-13
0.30233	-13
0.30600	-12
0.30967	-13
0.31333	-14
0.31700	-15
0.32067	-17
0.32433	-19
0.32800	-20
0.33167	-18
0.33533	-15
0.33900	-15
0.34267	-16
0.34633	-16
0.35000	-15
0.35367	-18
0.35733	-19
0.36100	-19
0.36467	-20
0.36833	-20
0.37200	-19
0.37567	-19
0.37933	-20
0.38300	-17
0.38667	-13
0.39033	-11
0.39400	-11
0.39767	-13
0.40133	-14
0.40500	-16
0.40867	-18
0.41233	-21
0.41600	-23
0.41967	-23
0.42333	-22
0.42700	-24
0.43067	-25
0.43433	-20
0.43800	-13
0.44167	-6
0.44533	-1
0.44900	-1
0.45267	-4
0.45633	-9
0.46000	-9
0.46367	-6
0.46733	-2
0.47100	3
0.47467	7
0.47833	6
0.48200	2
0.48567	-3
0.48933	-9
0.49300	-12
0.49667	-16
0.50033	-22
0.50400	-27
0.50767	-31
0.51133	-30
0.51500	-25
0.51867	-21
0.52233	-19
0.52600	-17
0.52967	-15
0.53333	-12
0.53700	-8
0.54067	-8
0.54433	-9
0.54800	-11
0.55167	-14
0.55533	-21
0.55900	-28
0.56267	-31
0.56633	-34
0.57000	-34
0.57367	-30
0.57733	-24
0.58100	-17
0.58467	-11
0.58833	-11
0.59200	-11
0.59567	-10
0.59933	-12
0.60300	-16
0.60667	-22
0.61033	-27
0.61400	-30
0.61767	-32
0.62133	-34
0.62500	-36
0.62867	-36
0.63233	-31
0.63600	-25
0.63967	-23
0.64333	-23
0.64700	-17
0.65067	-11
0.65433	-9
0.65800	-10
0.66167	-10
0.66533	-11
0.66900	-17
0.67267	-23
0.67633	-25
0.68000	-25
0.68367	-23
0.68733	-18
0.69100	-16
0.69467	-17
0.69833	-19
0.70200	-22
0.70567	-24
0.70933	-23
0.71300	-22
0.71667	-20
0.72033	-19
0.72400	-20
0.72767	-21
0.73133	-18
0.73500	-12
0.73867	-5
0.74233	-3
0.74600	-5
0.74967	-9
0.75333	-16
0.75700	-21
0.76067	-22
0.76433	-18
0.76800	-12
0.77167	-7
0.77533	-1
0.77900	4
0.78267	8
0.78633	9
0.79000	5
0.79367	1
0.79733	-2
0.80100	-5
0.80467	-8
0.80833	-10
0.81200	-11
0.81567	-10
0.81933	-5
0.82300	2
0.82667	8
0.83033	9
0.83400	6
0.83767	0
0.84133	-4
0.84500	-8
0.84867	-11
0.85233	-14
0.85600	-18
0.85967	-22
0.86333	-22
0.86700	-17
0.87067	-9
0.87433	-3
0.87800	-2
0.88167	-4
0.88533	-7
0.88900	-12
0.89267	-17
0.89633	-18
0.90000	-15
0.90367	-10
0.90733	-10
0.91100	-11
0.91467	-12
0.91833	-12
0.92200	-14
0.92567	-17
0.92933	-18
0.93300	-18
0.93667	-19
0.94033	-18
0.94400	-15
0.94767	-15
0.95133	-14
0.95500	-11
0.95867	-6
0.96233	-6
0.96600	-8
0.96967	-15
0.97333	-19
0.97700	-18
0.98067	-14
0.98433	-11
0.98800	-9
0.99167	-6
0.99533	-1
0.99900	1
1.00267	-3
1.00633	-8
1.01000	-14
1.01367	-22
1.01733	-25
1.02100	-24
1.02467	-20
1.02833	-16
1.03200	-17
1.03567	-20
1.03933	-21
1.04300	-19
1.04667	-18
1.05033	-18
1.05400	-19
1.05767	-21
1.06133	-21
1.06500	-20
1.06867	-19
1.07233	-19
1.07600	-17
1.07967	-14
1.08333	-10
1.08700	-8
1.09067	-7
1.09433	-8
1.09800	-10
1.10167	-12
1.10533	-16
1.10900	-20
1.11267	-20
1.11633	-23
1.12000	-29
1.12367	-31
1.12733	-30
1.13100	-27
1.13467	-23
1.13833	-21
1.14200	-20
1.14567	-16
1.14933	-11
1.15300	-7
1.15667	-7
1.16033	-10
1.16400	-13
1.16767	-15
1.17133	-17
1.17500	-18
1.17867	-19
1.18233	-22
1.18600	-24
1.18967	-23
1.19333	-22
1.19700	-23
1.20067	-23
1.20433	-23
1.20800	-24
1.21167	-27
1.21533	-31
1.21900	-32
1.22267	-28
1.22633	-24
1.23000	-21
1.23367	-21
1.23733	-21
1.24100	-22
1.24467	-23
1.24833	-23
1.25200	-22
1.25567	-19
1.25933	-17
1.26300	-18
1.26667	-19
1.27033	-20
1.27400	-21
1.27767	-22
1.28133	-19
1.28500	-16
1.28867	-13
1.29233	-11
1.29600	-10
1.29967	-10
1.30333	-13
1.30700	-17
1.31067	-22
1.31433	-25
1.31800	-24
1.32167	-22
1.32533	-18
1.32900	-14
1.33267	-13
1.33633	-17
1.34000	-22
1.34367	-28
1.34733	-33
1.35100	-36
1.35467	-39
1.35833	-42
1.36200	-46
1.36567	-49
1.36933	-47
1.37300	-41
1.37667	-32
1.38033	-25
1.38400	-17
1.38767	-15
1.39133	-16
1.39500	-18
1.39867	-22
1.40233	-27
1.40600	-31
1.40967	-37
1.41333	-42
1.41700	-44
1.42067	-42
1.42433	-36
1.42800	-30
1.43167	-24
1.43533	-16
1.43900	-12
1.44267	-43
1.44633	-128
1.45000	-235
1.45367	-333
1.45733	-410
1.46100	-462
1.46467	-474
1.46833	-437
1.47200	-362
1.47567	-270
1.47933	-180
1.48300	-107
1.48667	-58
1.49033	-29
1.49400	-13
1.49767	-6
1.50133	-5
1.50500	-8
1.50867	-11
1.51233	-13
1.51600	-14
1.51967	-16
1.52333	-18
1.52700	-18
1.53067	-12
1.53433	28
1.53800	158
1.54167	429
1.54533	830
1.54900	1274
1.55267	1672
1.55633	1978
1.56000	2168
1.56367	2212
1.56733	2084
1.57100	1801
1.57467	1438
1.57833	1072
1.58200	755
1.58567	508
1.58933	327
1.59300	201
1.59667	118
1.60033	62
1.60400	22
1.60767	-4
1.61133	-22
1.61500	-31
1.61867	-33
1.62233	-30
1.62600	-25
1.62967	-21
1.63333	-18
1.63700	-15
1.64067	-13
1.64433	-13
1.64800	-16
1.65167	-23
1.65533	-29
1.65900	-34
1.66267	-39
1.66633	-43
1.67000	-46
1.67367	-47
1.67733	-46
1.68100	-40
1.68467	-36
1.68833	-35
1.69200	-38
1.69567	-41
1.69933	-40
1.70300	-40
1.70667	-37
1.71033	-33
1.71400	-27
1.71767	-25
1.72133	-26
1.72500	-31
1.72867	-40
1.73233	-51
1.73600	-61
1.73967	-66
1.74333	-65
1.74700	-60
1.75067	-54
1.75433	-50
1.75800	-47
1.76167	-45
1.76533	-42
1.76900	-41
1.77267	-41
1.77633	-42
1.78000	-40
1.78367	-37
1.78733	-36
1.79100	-37
1.79467	-40
1.79833	-42
1.80200	-42
1.80567	-42
1.80933	-43
1.81300	-43
1.81667	-44
1.82033	-47
1.82400	-51
1.82767	-51
1.83133	-47
1.83500	-42
1.83867	-40
1.84233	-41
1.84600	-42
1.84967	-41
1.85333	-37
1.85700	-35
1.86067	-35
1.86433	-35
1.86800	-37
1.87167	-42
1.87533	-47
1.87900	-51
1.88267	-52
1.88633	-51
1.89000	-52
1.89367	-55
1.89733	-56
1.90100	-56
1.90467	-54
1.90833	-50
1.91200	-49
1.91567	-52
1.91933	-56
1.92300	-55
1.92667	-52
1.93033	-48
1.93400	-43
1.93767	-33
1.94133	-25
1.94500	-14
1.94867	35
1.95233	339
1.95600	1809
1.95967	7130
1.96333	21671
1.96700	52439
1.97067	103761
1.97433	172524
1.97800	248409
1.98167	318295
1.98533	370662
1.98900	397378
1.99267	394642
1.99633	364308
2.00000	313915
2.00367	254254
2.00733	195467
2.01100	144295
2.01467	103525
2.01833	73032
2.02200	51201
2.02567	36022
2.02933	25659
2.03300	18645
2.03667	13899
2.04033	10671
2.04400	8445
2.04767	6885
2.05133	5769
2.05500	4951
2.05867	4338
2.06233	3863
2.06600	3485
2.06967	3178
2.07333	2923
2.07700	2709
2.08067	2524
2.08433	2365
2.08800	2223
2.09167	2094
2.09533	1974
2.09900	1865
2.10267	1765
2.10633	1675
2.11000	1598
2.11367	1530
2.11733	1470
2.12100	1415
2.12467	1361
2.12833	1311
2.13200	1263
2.13567	1215
2.13933	1171
2.14300	1129
2.14667	1087
2.15033	1045
2.15400	1007
2.15767	971
2.16133	941
2.16500	916
2.16867	892
2.17233	867
2.17600	845
2.17967	824
2.18333	803
2.18700	787
2.19067	772
2.19433	753
2.19800	732
2.20167	711
2.20533	691
2.20900	671
2.21267	652
2.21633	633
2.22000	619
2.22367	608
2.22733	596
2.23100	581
2.23467	564
2.23833	550
2.24200	540
2.24567	535
2.24933	529
2.25300	517
2.25667	501
2.26033	483
2.26400	467
2.26767	456
2.27133	445
2.27500	437
2.27867	429
2.28233	423
2.28600	418
2.28967	413
2.29333	407
2.29700	402
2.30067	397
2.30433	394
2.30800	389
2.31167	384
2.31533	377
2.31900	369
2.32267	361
2.32633	352
2.33000	348
2.33367	347
2.33733	342
2.34100	331
2.34467	323
2.34833	319
2.35200	316
2.35567	315
2.35933	315
2.36300	311
2.36667	309
2.37033	307
2.37400	304
2.37767	299
2.38133	294
2.38500	288
2.38867	281
2.39233	271
2.39600	264
2.39967	258
2.40333	252
2.40700	245
2.41067	240
2.41433	239
2.41800	239
2.42167	240
2.42533	239
2.42900	238
2.43267	237
2.43633	238
2.44000	236
2.44367	231
2.44733	223
2.45100	216
2.45467	211
2.45833	205
2.46200	200
2.46567	199
2.46933	201
2.47300	203
2.47667	203
2.48033	202
2.48400	200
2.48767	196
2.49133	192
2.49500	190
2.49867	188
2.50233	186
2.50600	186
2.50967	184
2.51333	181
2.51700	178
2.52067	177
2.52433	176
2.52800	171
2.53167	168
2.53533	169
2.53900	173
2.54267	173
2.54633	168
2.55000	163
2.55367	161
2.55733	159
2.56100	158
2.56467	156
2.56833	152
2.57200	148
2.57567	147
2.57933	149
2.58300	152
2.58667	154
2.59033	158
2.59400	161
2.59767	162
2.60133	162
2.60500	159
2.60867	155
2.61233	149
2.61600	149
2.61967	154
2.62333	158
2.62700	162
2.63067	162
2.63433	161
2.63800	159
2.64167	157
2.64533	155
2.64900	151
2.65267	147
2.65633	143
2.66000	136
2.66367	129
2.66733	125
2.67100	128
2.67467	135
2.67833	143
2.68200	150
2.68567	156
2.68933	160
2.69300	159
2.69667	153
2.70033	145
2.70400	139
2.70767	134
2.71133	127
2.71500	123
2.71867	118
2.72233	111
2.72600	104
2.72967	104
2.73333	107
2.73700	113
2.74067	119
2.74433	122
2.74800	123
2.75167	125
2.75533	129
2.75900	134
2.76267	137
2.76633	138
2.77000	137
2.77367	134
2.77733	133
2.78100	132
2.78467	132
2.78833	128
2.79200	124
2.79567	124
2.79933	127
2.80300	133
2.80667	137
2.81033	136
2.81400	131
2.81767	126
2.82133	122
2.82500	120
2.82867	119
2.83233	120
2.83600	118
2.83967	115
2.84333	114
2.84700	115
2.85067	118
2.85433	125
2.85800	130
2.86167	133
2.86533	138
2.86900	141
2.87267	138
2.87633	132
2.88000	125
2.88367	120
2.88733	118
2.89100	117
2.89467	114
2.89833	111
2.90200	111
2.90567	110
2.90933	106
2.91300	103
2.91667	105
2.92033	108
2.92400	111
2.92767	116
2.93133	122
2.93500	128
2.93867	132
2.94233	133
2.94600	131
2.94967	130
2.95333	131
2.95700	133
2.96067	133
2.96433	134
2.96800	136
2.97167	138
2.97533	140
2.97900	140
2.98267	138
2.98633	135
2.99000	132
2.99367	130
2.99733	130
3.00100	131
3.00467	133
3.00833	135
3.01200	135
3.01567	135
3.01933	133
3.02300	130
3.02667	128
3.03033	127
3.03400	128
3.03767	127
3.04133	123
3.04500	117
3.04867	114
3.05233	114
3.05600	118
3.05967	126
3.06333	134
3.06700	140
3.07067	148
3.07433	150
3.07800	150
3.08167	152
3.08533	156
3.08900	157
3.09267	153
3.09633	148
3.10000	146
3.10367	145
3.10733	145
3.11100	146
3.11467	147
3.11833	147
3.12200	145
3.12567	143
3.12933	139
3.13300	132
3.13667	125
3.14033	120
3.14400	120
3.14767	124
3.15133	127
3.15500	129
3.15867	128
3.16233	125
3.16600	123
3.16967	124
3.17333	125
3.17700	126
3.18067	129
3.18433	133
3.18800	140
3.19167	147
3.19533	151
3.19900	154
3.20267	158
3.20633	160
3.21000	159
3.21367	157
3.21733	157
3.22100	157
3.22467	157
3.22833	155
3.23200	153
3.23567	154
3.23933	152
3.24300	149
3.24667	144
3.25033	141
3.25400	140
3.25767	141
3.26133	139
3.26500	134
3.26867	132
3.27233	134
3.27600	139
3.27967	144
3.28333	146
3.28700	143
3.29067	132
3.29433	122
3.29800	120
3.30167	123
3.30533	129
3.30900	136
3.31267	140
3.31633	141
3.32000	140
3.32367	140
3.32733	140
3.33100	139
3.33467	137
3.33833	136
3.34200	137
3.34567	138
3.34933	141
3.35300	145
3.35667	147
3.36033	147
3.36400	146
3.36767	146
3.37133	146
3.37500	144
3.37867	143
3.38233	144
3.38600	143
3.38967	140
3.39333	135
3.39700	130
3.40067	123
3.40433	118
3.40800	116
3.41167	120
3.41533	124
3.41900	126
3.42267	129
3.42633	132
3.43000	136
3.43367	139
3.43733	139
3.44100	135
3.44467	128
3.44833	123
3.45200	121
3.45567	120
3.45933	118
3.46300	119
3.46667	121
3.47033	125
3.47400	130
3.47767	135
3.48133	137
3.48500	133
3.48867	124
3.49233	120
3.49600	119
3.49967	122
3.50333	129
3.50700	136
3.51067	142
3.51433	148
3.51800	152
3.52167	154
3.52533	153
3.52900	150
3.53267	146
3.53633	141
3.54000	138
3.54367	138
3.54733	141
3.55100	140
3.55467	135
3.55833	128
3.56200	122
3.56567	117
3.56933	113
3.57300	111
3.57667	109
3.58033	107
3.58400	108
3.58767	115
3.59133	121
3.59500	123
3.59867	123
3.60233	125
3.60600	130
3.60967	134
3.61333	134
3.61700	133
3.62067	132
3.62433	130
3.62800	128
3.63167	126
3.63533	125
3.63900	125
3.64267	124
3.64633	124
3.65000	122
3.65367	119
3.65733	112
3.66100	105
3.66467	101
3.66833	101
3.67200	105
3.67567	112
3.67933	121
3.68300	131
3.68667	139
3.69033	143
3.69400	142
3.69767	139
3.70133	136
3.70500	133
3.70867	132
3.71233	129
3.71600	124
3.71967	118
3.72333	111
3.72700	108
3.73067	110
3.73433	112
3.73800	108
3.74167	98
3.74533	89
3.74900	87
3.75267	89
3.75633	90
3.76000	88
3.76367	90
3.76733	96
3.77100	103
3.77467	107
3.77833	105
3.78200	101
3.78567	100
3.78933	102
3.79300	103
3.79667	105
3.80033	108
3.80400	112
3.80767	114
3.81133	115
3.81500	115
3.81867	114
3.82233	112
3.82600	111
3.82967	111
3.83333	114
3.83700	115
3.84067	112
3.84433	104
3.84800	97
3.85167	92
3.85533	93
3.85900	97
3.86267	98
3.86633	94
3.87000	89
3.87367	86
3.87733	90
3.88100	96
3.88467	101
3.88833	103
3.89200	104
3.89567	104
3.89933	103
3.90300	98
3.90667	95
3.91033	93
3.91400	93
3.91767	91
3.92133	88
3.92500	85
3.92867	84
3.93233	85
3.93600	87
3.93967	92
3.94333	94
3.94700	92
3.95067	90
3.95433	91
3.95800	92
3.96167	92
3.96533	91
3.96900	91
3.97267	92
3.97633	91
3.98000	93
3.98367	96
3.98733	97
3.99100	96
3.99467	96
3.99833	95

[Chromatogram (Ch2)]
Interval(msec)	220
# of Points	1091
Start Time(min)	0.002
End Time(min)	3.998
R.Time (min)	Intensity
0.00167	-0
0.00533	-0
0.00900	-0
0.01267	-0
0.01633	-0
0.02000	0
0.02367	0
0.02733	0
0.03100	0
0.03467	-0
0.03833	-0
0.04200	-1
0.04567	-1
0.04933	-2
0.05300	-2
0.05667	-2
0.06033	-2
0.06400	-2
0.06767	-2
0.07133	-2
0.07500	-1
0.07867	-1
0.08233	-0
0.08600	-0
0.08967	-0
0.09333	-0
0.09700	-0
0.10067	-0
0.10433	0
0.10800	0
0.11167	0
0.11533	0
0.11900	0
0.12267	0
0.12633	0
0.13000	0
0.13367	0
0.13733	0
0.14100	0
0.14467	1
0.14833	1
0.15200	1
0.15567	1
0.15933	0
0.16300	0
0.16667	0
0.17033	0
0.17400	1
0.17767	1
0.18133	1
0.18500	1
0.18867	1
0.19233	1
0.19600	1
0.19967	1
0.20333	1
0.20700	1
0.21067	1
0.21433	0
0.21800	-0
0.22167	-0
0.22533	-0
0.22900	-0
0.23267	-0
0.23633	-0
0.24000	-0
0.24367	-0
0.24733	-0
0.25100	-0
0.25467	-1
0.25833	-1
0.26200	-1
0.26567	-1
0.26933	-1
0.27300	-1
0.27667	-1
0.28033	-1
0.28400	-1
0.28767	-1
0.29133	-1
0.29500	-1
0.29867	-1
0.30233	-1
0.30600	-0
0.30967	-0
0.31333	-0
0.31700	-0
0.32067	-0
0.32433	-0
0.32800	-0
0.33167	-0
0.33533	-0
0.33900	-0
0.34267	0
0.34633	0
0.35000	0
0.35367	0
0.35733	1
0.36100	1
0.36467	1
0.36833	1
0.37200	1
0.37567	0
0.37933	0
0.38300	-0
0.38667	-1
0.39033	-1
0.39400	-2
0.39767	-2
0.40133	-2
0.40500	-3
0.40867	-2
0.41233	-2
0.41600	-2
0.41967	-2
0.42333	-2
0.42700	-1
0.43067	-1
0.43433	-1
0.43800	-0
0.44167	-0
0.44533	0
0.44900	0
0.45267	0
0.45633	0
0.46000	0
0.46367	0
0.46733	0
0.47100	0
0.47467	0
0.47833	0
0.48200	0
0.48567	0
0.48933	0
0.49300	0
0.49667	0
0.50033	-0
0.50400	-0
0.50767	0
0.51133	0
0.51500	0
0.51867	0
0.52233	0
0.52600	0
0.52967	0
0.53333	0
0.53700	-0
0.54067	-0
0.54433	-0
0.54800	-0
0.55167	-0
0.55533	-0
0.55900	-0
0.56267	-0
0.56633	0
0.57000	0
0.57367	0
0.57733	0
0.58100	0
0.58467	0
0.58833	0
0.59200	-0
0.59567	-0
0.59933	-0
0.60300	-0
0.60667	-0
0.61033	-0
0.61400	-0
0.61767	-0
0.62133	-1
0.62500	-1
0.62867	-1
0.63233	-1
0.63600	-1
0.63967	-1
0.64333	-1
0.64700	-1
0.65067	-1
0.65433	-1
0.65800	-1
0.66167	-1
0.66533	-1
0.66900	-2
0.67267	-2
0.67633	-2
0.68000	-2
0.68367	-2
0.68733	-2
0.69100	-1
0.69467	-1
0.69833	-1
0.70200	-1
0.70567	-1
0.70933	-1
0.71300	-1
0.71667	-1
0.72033	-1
0.72400	-1
0.72767	-1
0.73133	-1
0.73500	-1
0.73867	-1
0.74233	-1
0.74600	-1
0.74967	-1
0.75333	-1
0.75700	-1
0.76067	-1
0.76433	-1
0.76800	-2
0.77167	-2
0.77533	-2
0.77900	-2
0.78267	-1
0.78633	-1
0.79000	-1
0.79367	-1
0.79733	-1
0.80100	-1
0.80467	-1
0.80833	-1
0.81200	-1
0.81567	-1
0.81933	-1
0.82300	-1
0.82667	-2
0.83033	-2
0.83400	-2
0.83767	-2
0.84133	-2
0.84500	-2
0.84867	-2
0.85233	-2
0.85600	-2
0.85967	-2
0.86333	-2
0.86700	-2
0.87067	-2
0.87433	-2
0.87800	-2
0.88167	-2
0.88533	-2
0.88900	-2
0.89267	-2
0.89633	-2
0.90000	-3
0.90367	-3
0.90733	-3
0.91100	-3
0.91467	-3
0.91833	-3
0.92200	-3
0.92567	-2
0.92933	-2
0.93300	-2
0.93667	-2
0.94033	-2
0.94400	-2
0.94767	-2
0.95133	-2
0.95500	-2
0.95867	-2
0.96233	-2
0.96600	-1
0.96967	-1
0.97333	-1
0.97700	-1
0.98067	-1
0.98433	-1
0.98800	-1
0.99167	-1
0.99533	-1
0.99900	-1
1.00267	-1
1.00633	-1
1.01000	-1
1.01367	-2
1.01733	-2
1.02100	-2
1.02467	-1
1.02833	-2
1.03200	-2
1.03567	-2
1.03933	-2
1.04300	-2
1.04667	-2
1.05033	-2
1.05400	-3
1.05767	-3
1.06133	-3
1.06500	-3
1.06867	-2
1.07233	-2
1.07600	-2
1.07967	-2
1.08333	-2
1.08700	-2
1.09067	-2
1.09433	-2
1.09800	-2
1.10167	-3
1.10533	-3
1.10900	-3
1.11267	-3
1.11633	-3
1.12000	-3
1.12367	-4
1.12733	-4
1.13100	-4
1.13467	-4
1.13833	-3
1.14200	-3
1.14567	-3
1.14933	-3
1.15300	-3
1.15667	-3
1.16033	-3
1.16400	-2
1.16767	-2
1.17133	-2
1.17500	-3
1.17867	-3
1.18233	-3
1.18600	-2
1.18967	-3
1.19333	-3
1.19700	-3
1.20067	-3
1.20433	-2
1.20800	-2
1.21167	-2
1.21533	-2
1.21900	-2
1.22267	-2
1.22633	-2
1.23000	-2
1.23367	-2
1.23733	-2
1.24100	-2
1.24467	-2
1.24833	-2
1.25200	-2
1.25567	-2
1.25933	-2
1.26300	-2
1.26667	-2
1.27033	-2
1.27400	-2
1.27767	-2
1.28133	-2
1.28500	-2
1.28867	-2
1.29233	-2
1.29600	-2
1.29967	-2
1.30333	-2
1.30700	-2
1.31067	-2
1.31433	-2
1.31800	-2
1.32167	-2
1.32533	-2
1.32900	-2
1.33267	-2
1.33633	-2
1.34000	-2
1.34367	-2
1.34733	-2
1.35100	-2
1.35467	-3
1.35833	-3
1.36200	-3
1.36567	-3
1.36933	-3
1.37300	-3
1.37667	-3
1.38033	-3
1.38400	-3
1.38767	-3
1.39133	-3
1.39500	-3
1.39867	-3
1.40233	-3
1.40600	-3
1.40967	-3
1.41333	-3
1.41700	-3
1.42067	-3
1.42433	-3
1.42800	-3
1.43167	-3
1.43533	-3
1.43900	-3
1.44267	-3
1.44633	-3
1.45000	-3
1.45367	-4
1.45733	-4
1.46100	-4
1.46467	-4
1.46833	-4
1.47200	-4
1.47567	-4
1.47933	-3
1.48300	-3
1.48667	-3
1.49033	-3
1.49400	-3
1.49767	-3
1.50133	-3
1.50500	-3
1.50867	-3
1.51233	-3
1.51600	-3
1.51967	-2
1.52333	-2
1.52700	-2
1.53067	-2
1.53433	-1
1.53800	-1
1.54167	-1
1.54533	-2
1.54900	-2
1.55267	-2
1.55633	-2
1.56000	-2
1.56367	-2
1.56733	-3
1.57100	-3
1.57467	-3
1.57833	-3
1.58200	-3
1.58567	-3
1.58933	-3
1.59300	-4
1.59667	-4
1.60033	-5
1.60400	-6
1.60767	-8
1.61133	-9
1.61500	-11
1.61867	-14
1.62233	-16
1.62600	-19
1.62967	-22
1.63333	-26
1.63700	-29
1.64067	-32
1.64433	-36
1.64800	-39
1.65167	-42
1.65533	-46
1.65900	-49
1.66267	-53
1.66633	-57
1.67000	-61
1.67367	-66
1.67733	-70
1.68100	-74
1.68467	-78
1.68833	-82
1.69200	-85
1.69567	-88
1.69933	-90
1.70300	-92
1.70667	-93
1.71033	-94
1.71400	-95
1.71767	-96
1.72133	-96
1.72500	-96
1.72867	-96
1.73233	-96
1.73600	-96
1.73967	-95
1.74333	-95
1.74700	-94
1.75067	-93
1.75433	-92
1.75800	-92
1.76167	-92
1.76533	-93
1.76900	-94
1.77267	-95
1.77633	-95
1.78000	-96
1.78367	-97
1.78733	-99
1.79100	-100
1.79467	-101
1.79833	-101
1.80200	-102
1.80567	-103
1.80933	-103
1.81300	-103
1.81667	-102
1.82033	-102
1.82400	-101
1.82767	-100
1.83133	-99
1.83500	-98
1.83867	-98
1.84233	-98
1.84600	-98
1.84967	-99
1.85333	-100
1.85700	-100
1.86067	-100
1.86433	-101
1.86800	-101
1.87167	-101
1.87533	-101
1.87900	-101
1.88267	-101
1.88633	-100
1.89000	-100
1.89367	-100
1.89733	-100
1.90100	-100
1.90467	-100
1.90833	-101
1.91200	-101
1.91567	-101
1.91933	-101
1.92300	-101
1.92667	-100
1.93033	-100
1.93400	-100
1.93767	-99
1.94133	-99
1.94500	-99
1.94867	-98
1.95233	-98
1.95600	-98
1.95967	-98
1.96333	-97
1.96700	-97
1.97067	-96
1.97433	-96
1.97800	-95
1.98167	-95
1.98533	-95
1.98900	-95
1.99267	-94
1.99633	-94
2.00000	-94
2.00367	-93
2.00733	-93
2.01100	-93
2.01467	-93
2.01833	-93
2.02200	-93
2.02567	-93
2.02933	-93
2.03300	-93
2.03667	-93
2.04033	-92
2.04400	-92
2.04767	-91
2.05133	-90
2.05500	-89
2.05867	-88
2.06233	-88
2.06600	-87
2.06967	-87
2.07333	-87
2.07700	-88
2.08067	-88
2.08433	-89
2.08800	-89
2.09167	-89
2.09533	-89
2.09900	-88
2.10267	-87
2.10633	-86
2.11000	-86
2.11367	-85
2.11733	-85
2.12100	-85
2.12467	-85
2.12833	-85
2.13200	-85
2.13567	-85
2.13933	-85
2.14300	-84
2.14667	-84
2.15033	-83
2.15400	-83
2.15767	-83
2.16133	-82
2.16500	-82
2.16867	-81
2.17233	-81
2.17600	-81
2.17967	-81
2.18333	-80
2.18700	-80
2.19067	-80
2.19433	-80
2.19800	-79
2.20167	-79
2.20533	-78
2.20900	-78
2.21267	-77
2.21633	-77
2.22000	-77
2.22367	-77
2.22733	-76
2.23100	-76
2.23467	-76
2.23833	-75
2.24200	-75
2.24567	-75
2.24933	-74
2.25300	-74
2.25667	-73
2.26033	-73
2.26400	-73
2.26767	-72
2.27133	-72
2.27500	-72
2.27867	-72
2.28233	-72
2.28600	-72
2.28967	-72
2.29333	-72
2.29700	-72
2.30067	-71
2.30433	-71
2.30800	-70
2.31167	-69
2.31533	-69
2.31900	-69
2.32267	-69
2.32633	-69
2.33000	-68
2.33367	-68
2.33733	-68
2.34100	-67
2.34467	-67
2.34833	-66
2.35200	-65
2.35567	-64
2.35933	-63
2.36300	-61
2.36667	-59
2.37033	-57
2.37400	-54
2.37767	-50
2.38133	-47
2.38500	-44
2.38867	-40
2.39233	-36
2.39600	-32
2.39967	-28
2.40333	-24
2.40700	-20
2.41067	-16
2.41433	-13
2.41800	-10
2.42167	-8
2.42533	-6
2.42900	-4
2.43267	-2
2.43633	-1
2.44000	1
2.44367	2
2.44733	4
2.45100	5
2.45467	7
2.45833	8
2.46200	9
2.46567	10
2.46933	11
2.47300	11
2.47667	11
2.48033	11
2.48400	11
2.48767	12
2.49133	13
2.49500	13
2.49867	14
2.50233	15
2.50600	15
2.50967	16
2.51333	16
2.51700	16
2.52067	16
2.52433	17
2.52800	17
2.53167	16
2.53533	16
2.53900	16
2.54267	15
2.54633	15
2.55000	15
2.55367	14
2.55733	13
2.56100	12
2.56467	11
2.56833	11
2.57200	11
2.57567	11
2.57933	11
2.58300	11
2.58667	12
2.59033	13
2.59400	13
2.59767	13
2.60133	14
2.60500	14
2.60867	14
2.61233	15
2.61600	16
2.61967	16
2.62333	17
2.62700	17
2.63067	17
2.63433	17
2.63800	17
2.64167	17
2.64533	17
2.64900	17
2.65267	17
2.65633	17
2.66000	18
2.66367	18
2.66733	19
2.67100	19
2.67467	20
2.67833	21
2.68200	21
2.68567	22
2.68933	23
2.69300	24
2.69667	25
2.70033	26
2.70400	26
2.70767	27
2.71133	27
2.71500	27
2.71867	27
2.72233	26
2.72600	26
2.72967	26
2.73333	25
2.73700	25
2.74067	25
2.74433	25
2.74800	25
2.75167	25
2.75533	26
2.75900	26
2.76267	26
2.76633	26
2.77000	26
2.77367	27
2.77733	27
2.78100	27
2.78467	27
2.78833	28
2.79200	28
2.79567	28
2.79933	28
2.80300	28
2.80667	29
2.81033	29
2.81400	29
2.81767	29
2.82133	29
2.82500	29
2.82867	28
2.83233	28
2.83600	28
2.83967	28
2.84333	28
2.84700	28
2.85067	28
2.85433	27
2.85800	26
2.86167	23
2.86533	18
2.86900	10
2.87267	-1
2.87633	-17
2.88000	-38
2.88367	-64
2.88733	-96
2.89100	-133
2.89467	-175
2.89833	-222
2.90200	-274
2.90567	-330
2.90933	-389
2.91300	-451
2.91667	-514
2.92033	-579
2.92400	-645
2.92767	-709
2.93133	-772
2.93500	-832
2.93867	-889
2.94233	-944
2.94600	-1000
2.94967	-1054
2.95333	-1099
2.95700	-1125
2.96067	-1126
2.96433	-1102
2.96800	-1056
2.97167	-993
2.97533	-919
2.97900	-838
2.98267	-756
2.98633	-674
2.99000	-597
2.99367	-524
2.99733	-458
3.00100	-397
3.00467	-343
3.00833	-295
3.01200	-253
3.01567	-215
3.01933	-183
3.02300	-155
3.02667	-130
3.03033	-109
3.03400	-91
3.03767	-76
3.04133	-62
3.04500	-51
3.04867	-41
3.05233	-33
3.05600	-26
3.05967	-20
3.06333	-15
3.06700	-10
3.07067	-7
3.07433	-3
3.07800	-0
3.08167	2
3.08533	4
3.08900	6
3.09267	8
3.09633	9
3.10000	10
3.10367	11
3.10733	12
3.11100	13
3.11467	13
3.11833	14
3.12200	15
3.12567	15
3.12933	15
3.13300	16
3.13667	16
3.14033	17
3.14400	17
3.14767	18
3.15133	18
3.15500	19
3.15867	19
3.16233	20
3.16600	20
3.16967	20
3.17333	21
3.17700	21
3.18067	21
3.18433	22
3.18800	22
3.19167	22
3.19533	22
3.19900	22
3.20267	22
3.20633	22
3.21000	22
3.21367	22
3.21733	22
3.22100	22
3.22467	23
3.22833	23
3.23200	23
3.23567	24
3.23933	24
3.24300	24
3.24667	24
3.25033	25
3.25400	25
3.25767	25
3.26133	26
3.26500	26
3.26867	27
3.27233	27
3.27600	27
3.27967	28
3.28333	28
3.28700	28
3.29067	28
3.29433	28
3.29800	28
3.30167	28
3.30533	28
3.30900	28
3.31267	28
3.31633	28
3.32000	28
3.32367	28
3.32733	28
3.33100	28
3.33467	28
3.33833	29
3.34200	29
3.34567	29
3.34933	29
3.35300	29
3.35667	29
3.36033	29
3.36400	29
3.36767	29
3.37133	29
3.37500	29
3.37867	29
3.38233	28
3.38600	28
3.38967	28
3.39333	28
3.39700	28
3.40067	28
3.40433	29
3.40800	29
3.41167	29
3.41533	29
3.41900	29
3.42267	29
3.42633	29
3.43000	29
3.43367	29
3.43733	29
3.44100	29
3.44467	29
3.44833	28
3.45200	28
3.45567	28
3.45933	28
3.46300	28
3.46667	28
3.47033	28
3.47400	28
3.47767	28
3.48133	28
3.48500	28
3.48867	28
3.49233	29
3.49600	29
3.49967	28
3.50333	28
3.50700	29
3.51067	29
3.51433	29
3.51800	29
3.52167	29
3.52533	29
3.52900	29
3.53267	29
3.53633	29
3.54000	29
3.54367	29
3.54733	29
3.55100	29
3.55467	30
3.55833	30
3.56200	30
3.56567	30
3.56933	30
3.57300	30
3.57667	30
3.58033	30
3.58400	30
3.58767	29
3.59133	29
3.59500	29
3.59867	29
3.60233	29
3.60600	28
3.60967	28
3.61333	28
3.61700	28
3.62067	28
3.62433	28
3.62800	28
3.63167	28
3.63533	28
3.63900	28
3.64267	28
3.64633	28
3.65000	29
3.65367	29
3.65733	29
3.66100	29
3.66467	29
3.66833	29
3.67200	30
3.67567	30
3.67933	30
3.68300	29
3.68667	29
3.69033	29
3.69400	29
3.69767	29
3.70133	29
3.70500	30
3.70867	30
3.71233	30
3.71600	30
3.71967	30
3.72333	30
3.72700	30
3.73067	29
3.73433	29
3.73800	29
3.74167	29
3.74533	29
3.74900	29
3.75267	30
3.75633	30
3.76000	30
3.76367	30
3.76733	30
3.77100	30
3.77467	30
3.77833	29
3.78200	29
3.78567	30
3.78933	30
3.79300	30
3.79667	30
3.80033	30
3.80400	30
3.80767	30
3.81133	30
3.81500	29
3.81867	29
3.82233	29
3.82600	29
3.82967	29
3.83333	29
3.83700	29
3.84067	29
3.84433	29
3.84800	29
3.85167	28
3.85533	28
3.85900	28
3.86267	29
3.86633	29
3.87000	29
3.87367	29
3.87733	28
3.88100	29
3.88467	29
3.88833	29
3.89200	29
3.89567	29
3.89933	29
3.90300	30
3.90667	30
3.91033	30
3.91400	30
3.91767	30
3.92133	30
3.92500	30
3.92867	30
3.93233	30
3.93600	30
3.93967	30
3.94333	30
3.94700	30
3.95067	30
3.95433	30
3.95800	30
3.96167	30
3.96533	30
3.96900	30
3.97267	30
3.97633	30
3.98000	30
3.98367	30
3.98733	30
3.99100	30
3.99467	30
3.99833	30

[Chromatogram (Ch3)]
Interval(msec)	220
# of Points	1091
Start Time(min)	0.002
End Time(min)	3.998
R.Time (min)	Intensity
0.00167	-2
0.00533	-5
0.00900	-3
0.01267	1
0.01633	2
0.02000	-2
0.02367	-4
0.02733	-3
0.03100	-2
0.03467	-3
0.03833	-4
0.04200	-4
0.04567	-3
0.04933	-5
0.05300	-5
0.05667	-2
0.06033	1
0.06400	3
0.06767	5
0.07133	4
0.07500	3
0.07867	2
0.08233	4
0.08600	6
0.08967	7
0.09333	4
0.09700	1
0.10067	-0
0.10433	2
0.10800	2
0.11167	2
0.11533	1
0.11900	1
0.12267	2
0.12633	1
0.13000	2
0.13367	2
0.13733	1
0.14100	2
0.14467	3
0.14833	1
0.15200	-2
0.15567	-3
0.15933	-4
0.16300	-4
0.16667	-3
0.17033	-2
0.17400	-3
0.17767	-5
0.18133	-5
0.18500	-4
0.18867	1
0.19233	4
0.19600	4
0.19967	-1
0.20333	-4
0.20700	-3
0.21067	0
0.21433	0
0.21800	-3
0.22167	-5
0.22533	-4
0.22900	-2
0.23267	1
0.23633	2
0.24000	0
0.24367	-2
0.24733	-2
0.25100	0
0.25467	2
0.25833	3
0.26200	2
0.26567	-2
0.26933	-5
0.27300	-4
0.27667	0
0.28033	2
0.28400	2
0.28767	1
0.29133	-2
0.29500	-5
0.29867	-3
0.30233	-0
0.30600	0
0.30967	-1
0.31333	-4
0.31700	-5
0.32067	-5
0.32433	-6
0.32800	-5
0.33167	-5
0.33533	-4
0.33900	-5
0.34267	-4
0.34633	-2
0.35000	-2
0.35367	-2
0.35733	-4
0.36100	-3
0.36467	-1
0.36833	-0
0.37200	-1
0.37567	-3
0.37933	-3
0.38300	-3
0.38667	-2
0.39033	-3
0.39400	-3
0.39767	-5
0.40133	-6
0.40500	-5
0.40867	-5
0.41233	-6
0.41600	-8
0.41967	-8
0.42333	-8
0.42700	-7
0.43067	-8
0.43433	-11
0.43800	-11
0.44167	-8
0.44533	-9
0.44900	-11
0.45267	-10
0.45633	-9
0.46000	-8
0.46367	-7
0.46733	-6
0.47100	-6
0.47467	-6
0.47833	-7
0.48200	-10
0.48567	-12
0.48933	-12
0.49300	-10
0.49667	-8
0.50033	-8
0.50400	-7
0.50767	-5
0.51133	-4
0.51500	-3
0.51867	-6
0.52233	-9
0.52600	-11
0.52967	-10
0.53333	-7
0.53700	-7
0.54067	-9
0.54433	-8
0.54800	-6
0.55167	-5
0.55533	-5
0.55900	-6
0.56267	-6
0.56633	-5
0.57000	-3
0.57367	-1
0.57733	-1
0.58100	-2
0.58467	-3
0.58833	-3
0.59200	-1
0.59567	1
0.59933	3
0.60300	2
0.60667	-1
0.61033	-2
0.61400	0
0.61767	1
0.62133	0
0.62500	-3
0.62867	-6
0.63233	-6
0.63600	-4
0.63967	-0
0.64333	2
0.64700	3
0.65067	0
0.65433	-3
0.65800	-3
0.66167	0
0.66533	3
0.66900	5
0.67267	2
0.67633	-2
0.68000	-3
0.68367	-2
0.68733	1
0.69100	4
0.69467	6
0.69833	4
0.70200	3
0.70567	2
0.70933	2
0.71300	4
0.71667	8
0.72033	9
0.72400	8
0.72767	6
0.73133	3
0.73500	2
0.73867	1
0.74233	2
0.74600	4
0.74967	2
0.75333	-2
0.75700	-5
0.76067	-6
0.76433	-2
0.76800	2
0.77167	3
0.77533	2
0.77900	-1
0.78267	-3
0.78633	-1
0.79000	-0
0.79367	2
0.79733	2
0.80100	-1
0.80467	-3
0.80833	-2
0.81200	-0
0.81567	1
0.81933	1
0.82300	2
0.82667	2
0.83033	2
0.83400	3
0.83767	4
0.84133	5
0.84500	7
0.84867	7
0.85233	8
0.85600	7
0.85967	7
0.86333	7
0.86700	7
0.87067	5
0.87433	4
0.87800	5
0.88167	7
0.88533	4
0.88900	1
0.89267	3
0.89633	4
0.90000	5
0.90367	5
0.90733	3
0.91100	3
0.91467	4
0.91833	5
0.92200	5
0.92567	6
0.92933	8
0.93300	8
0.93667	8
0.94033	8
0.94400	8
0.94767	8
0.95133	8
0.95500	8
0.95867	5
0.96233	1
0.96600	0
0.96967	4
0.97333	7
0.97700	7
0.98067	6
0.98433	6
0.98800	7
0.99167	8
0.99533	8
0.99900	7
1.00267	6
1.00633	6
1.01000	7
1.01367	7
1.01733	7
1.02100	4
1.02467	1
1.02833	2
1.03200	3
1.03567	4
1.03933	6
1.04300	5
1.04667	5
1.05033	5
1.05400	5
1.05767	4
1.06133	2
1.06500	2
1.06867	3
1.07233	5
1.07600	8
1.07967	10
1.08333	7
1.08700	3
1.09067	2
1.09433	2
1.09800	4
1.10167	5
1.10533	8
1.10900	11
1.11267	11
1.11633	8
1.12000	6
1.12367	5
1.12733	3
1.13100	2
1.13467	3
1.13833	5
1.14200	6
1.14567	5
1.14933	5
1.15300	3
1.15667	2
1.16033	2
1.16400	3
1.16767	4
1.17133	3
1.17500	0
1.17867	-1
1.18233	-0
1.18600	-1
1.18967	-2
1.19333	-3
1.19700	0
1.20067	3
1.20433	3
1.20800	3
1.21167	4
1.21533	6
1.21900	8
1.22267	8
1.22633	10
1.23000	12
1.23367	11
1.23733	8
1.24100	5
1.24467	3
1.24833	3
1.25200	4
1.25567	5
1.25933	4
1.26300	1
1.26667	0
1.27033	-0
1.27400	0
1.27767	3
1.28133	4
1.28500	6
1.28867	5
1.29233	0
1.29600	-2
1.29967	2
1.30333	5
1.30700	8
1.31067	8
1.31433	6
1.31800	7
1.32167	6
1.32533	3
1.32900	2
1.33267	2
1.33633	5
1.34000	7
1.34367	6
1.34733	6
1.35100	6
1.35467	6
1.35833	2
1.36200	0
1.36567	1
1.36933	2
1.37300	1
1.37667	1
1.38033	1
1.38400	1
1.38767	1
1.39133	-0
1.39500	-1
1.39867	2
1.40233	5
1.40600	8
1.40967	7
1.41333	5
1.41700	3
1.42067	1
1.42433	1
1.42800	-0
1.43167	0
1.43533	2
1.43900	3
1.44267	1
1.44633	0
1.45000	1
1.45367	2
1.45733	5
1.46100	5
1.46467	4
1.46833	3
1.47200	5
1.47567	10
1.47933	11
1.48300	13
1.48667	13
1.49033	10
1.49400	9
1.49767	10
1.50133	10
1.50500	10
1.50867	10
1.51233	8
1.51600	5
1.51967	3
1.52333	4
1.52700	5
1.53067	7
1.53433	10
1.53800	12
1.54167	10
1.54533	8
1.54900	6
1.55267	4
1.55633	4
1.56000	5
1.56367	4
1.56733	3
1.57100	1
1.57467	0
1.57833	1
1.58200	1
1.58567	2
1.58933	4
1.59300	8
1.59667	9
1.60033	11
1.60400	11
1.60767	9
1.61133	9
1.61500	9
1.61867	10
1.62233	9
1.62600	7
1.62967	6
1.63333	6
1.63700	6
1.64067	7
1.64433	8
1.64800	10
1.65167	11
1.65533	14
1.65900	17
1.66267	16
1.66633	14
1.67000	11
1.67367	11
1.67733	14
1.68100	15
1.68467	15
1.68833	15
1.69200	14
1.69567	13
1.69933	11
1.70300	11
1.70667	12
1.71033	14
1.71400	14
1.71767	13
1.72133	11
1.72500	11
1.72867	11
1.73233	11
1.73600	11
1.73967	11
1.74333	11
1.74700	11
1.75067	9
1.75433	6
1.75800	9
1.76167	14
1.76533	18
1.76900	20
1.77267	21
1.77633	19
1.78000	19
1.78367	19
1.78733	20
1.79100	21
1.79467	22
1.79833	21
1.80200	18
1.80567	16
1.80933	17
1.81300	14
1.81667	14
1.82033	14
1.82400	16
1.82767	16
1.83133	16
1.83500	17
1.83867	19
1.84233	20
1.84600	20
1.84967	18
1.85333	18
1.85700	19
1.86067	20
1.86433	21
1.86800	22
1.87167	24
1.87533	24
1.87900	24
1.88267	24
1.88633	24
1.89000	23
1.89367	23
1.89733	26
1.90100	27
1.90467	24
1.90833	21
1.91200	23
1.91567	26
1.91933	30
1.92300	33
1.92667	35
1.93033	34
1.93400	32
1.93767	34
1.94133	34
1.94500	33
1.94867	34
1.95233	35
1.95600	34
1.95967	30
1.96333	25
1.96700	25
1.97067	27
1.97433	27
1.97800	27
1.98167	29
1.98533	31
1.98900	32
1.99267	34
1.99633	38
2.00000	38
2.00367	36
2.00733	38
2.01100	43
2.01467	48
2.01833	52
2.02200	52
2.02567	50
2.02933	50
2.03300	49
2.03667	48
2.04033	48
2.04400	48
2.04767	46
2.05133	46
2.05500	48
2.05867	53
2.06233	55
2.06600	53
2.06967	55
2.07333	58
2.07700	59
2.08067	56
2.08433	55
2.08800	56
2.09167	57
2.09533	56
2.09900	57
2.10267	58
2.10633	61
2.11000	64
2.11367	66
2.11733	67
2.12100	65
2.12467	65
2.12833	68
2.13200	70
2.13567	71
2.13933	71
2.14300	71
2.14667	72
2.15033	71
2.15400	71
2.15767	70
2.16133	70
2.16500	72
2.16867	72
2.17233	73
2.17600	75
2.17967	74
2.18333	74
2.18700	76
2.19067	79
2.19433	82
2.19800	81
2.20167	80
2.20533	80
2.20900	79
2.21267	81
2.21633	85
2.22000	89
2.22367	91
2.22733	90
2.23100	91
2.23467	91
2.23833	92
2.24200	92
2.24567	95
2.24933	96
2.25300	96
2.25667	93
2.26033	91
2.26400	93
2.26767	96
2.27133	96
2.27500	98
2.27867	99
2.28233	99
2.28600	101
2.28967	101
2.29333	102
2.29700	104
2.30067	106
2.30433	105
2.30800	104
2.31167	105
2.31533	108
2.31900	110
2.32267	111
2.32633	112
2.33000	110
2.33367	108
2.33733	108
2.34100	111
2.34467	113
2.34833	114
2.35200	114
2.35567	114
2.35933	115
2.36300	116
2.36667	115
2.37033	114
2.37400	112
2.37767	112
2.38133	114
2.38500	113
2.38867	110
2.39233	110
2.39600	112
2.39967	115
2.40333	120
2.40700	124
2.41067	126
2.41433	128
2.41800	129
2.42167	131
2.42533	133
2.42900	132
2.43267	130
2.43633	130
2.44000	135
2.44367	182
2.44733	267
2.45100	344
2.45467	399
2.45833	421
2.46200	417
2.46567	397
2.46933	376
2.47300	360
2.47667	348
2.48033	334
2.48400	314
2.48767	291
2.49133	267
2.49500	246
2.49867	230
2.50233	218
2.50600	214
2.50967	217
2.51333	223
2.51700	230
2.52067	234
2.52433	235
2.52800	231
2.53167	223
2.53533	216
2.53900	207
2.54267	194
2.54633	181
2.55000	169
2.55367	157
2.55733	148
2.56100	143
2.56467	138
2.56833	136
2.57200	135
2.57567	135
2.57933	138
2.58300	141
2.58667	144
2.59033	148
2.59400	151
2.59767	156
2.60133	163
2.60500	169
2.60867	176
2.61233	183
2.61600	190
2.61967	195
2.62333	199
2.62700	201
2.63067	200
2.63433	197
2.63800	192
2.64167	181
2.64533	169
2.64900	158
2.65267	148
2.65633	139
2.66000	131
2.66367	123
2.66733	115
2.67100	111
2.67467	109
2.67833	107
2.68200	103
2.68567	96
2.68933	91
2.69300	88
2.69667	85
2.70033	83
2.70400	82
2.70767	80
2.71133	81
2.71500	81
2.71867	81
2.72233	81
2.72600	80
2.72967	78
2.73333	76
2.73700	75
2.74067	77
2.74433	81
2.74800	83
2.75167	83
2.75533	82
2.75900	83
2.76267	83
2.76633	83
2.77000	83
2.77367	85
2.77733	89
2.78100	93
2.78467	97
2.78833	103
2.79200	105
2.79567	105
2.79933	105
2.80300	107
2.80667	110
2.81033	112
2.81400	115
2.81767	118
2.82133	120
2.82500	122
2.82867	123
2.83233	127
2.83600	138
2.83967	160
2.84333	201
2.84700	283
2.85067	421
2.85433	633
2.85800	932
2.86167	1313
2.86533	1765
2.86900	2258
2.87267	2756
2.87633	3217
2.88000	3596
2.88367	3868
2.88733	4017
2.89100	4047
2.89467	3969
2.89833	3803
2.90200	3575
2.90567	3309
2.90933	3024
2.91300	2733
2.91667	2446
2.92033	2174
2.92400	1923
2.92767	1695
2.93133	1489
2.93500	1306
2.93867	1143
2.94233	1000
2.94600	874
2.94967	765
2.95333	671
2.95700	589
2.96067	517
2.96433	456
2.96800	406
2.97167	361
2.97533	325
2.97900	293
2.98267	265
2.98633	240
2.99000	218
2.99367	201
2.99733	187
3.00100	175
3.00467	164
3.00833	153
3.01200	143
3.01567	135
3.01933	130
3.02300	126
3.02667	123
3.03033	122
3.03400	119
3.03767	116
3.04133	113
3.04500	113
3.04867	112
3.05233	112
3.05600	111
3.05967	110
3.06333	110
3.06700	107
3.07067	106
3.07433	107
3.07800	107
3.08167	107
3.08533	106
3.08900	107
3.09267	111
3.09633	113
3.10000	114
3.10367	116
3.10733	119
3.11100	123
3.11467	124
3.11833	122
3.12200	123
3.12567	127
3.12933	125
3.13300	114
3.13667	112
3.14033	132
3.14400	177
3.14767	241
3.15133	312
3.15500	385
3.15867	457
3.16233	529
3.16600	603
3.16967	674
3.17333	739
3.17700	797
3.18067	846
3.18433	888
3.18800	922
3.19167	949
3.19533	973
3.19900	993
3.20267	1010
3.20633	1023
3.21000	1031
3.21367	1037
3.21733	1041
3.22100	1042
3.22467	1044
3.22833	1044
3.23200	1045
3.23567	1045
3.23933	1046
3.24300	1046
3.24667	1044
3.25033	1044
3.25400	1043
3.25767	1042
3.26133	1040
3.26500	1038
3.26867	1037
3.27233	1033
3.27600	1030
3.27967	1028
3.28333	1024
3.28700	1020
3.29067	1017
3.29433	1015
3.29800	1013
3.30167	1009
3.30533	1004
3.30900	997
3.31267	991
3.31633	989
3.32000	987
3.32367	983
3.32733	980
3.33100	976
3.33467	970
3.33833	963
3.34200	955
3.34567	951
3.34933	949
3.35300	945
3.35667	941
3.36033	936
3.36400	930
3.36767	924
3.37133	920
3.37500	918
3.37867	912
3.38233	905
3.38600	900
3.38967	898
3.39333	897
3.39700	894
3.40067	889
3.40433	886
3.40800	881
3.41167	878
3.41533	877
3.41900	875
3.42267	869
3.42633	862
3.43000	861
3.43367	861
3.43733	858
3.44100	853
3.44467	851
3.44833	849
3.45200	848
3.45567	846
3.45933	844
3.46300	841
3.46667	837
3.47033	834
3.47400	834
3.47767	833
3.48133	833
3.48500	834
3.48867	834
3.49233	833
3.49600	832
3.49967	830
3.50333	828
3.50700	828
3.51067	828
3.51433	826
3.51800	825
3.52167	824
3.52533	822
3.52900	819
3.53267	819
3.53633	818
3.54000	817
3.54367	815
3.54733	811
3.55100	808
3.55467	806
3.55833	804
3.56200	800
3.56567	797
3.56933	794
3.57300	793
3.57667	793
3.58033	792
3.58400	787
3.58767	782
3.59133	780
3.59500	778
3.59867	777
3.60233	776
3.60600	775
3.60967	772
3.61333	768
3.61700	766
3.62067	766
3.62433	762
3.62800	761
3.63167	761
3.63533	761
3.63900	758
3.64267	757
3.64633	755
3.65000	753
3.65367	751
3.65733	750
3.66100	750
3.66467	751
3.66833	751
3.67200	751
3.67567	750
3.67933	750
3.68300	748
3.68667	744
3.69033	742
3.69400	739
3.69767	737
3.70133	736
3.70500	733
3.70867	730
3.71233	728
3.71600	727
3.71967	726
3.72333	725
3.72700	724
3.73067	721
3.73433	720
3.73800	716
3.74167	714
3.74533	712
3.74900	707
3.75267	701
3.75633	698
3.76000	696
3.76367	696
3.76733	695
3.77100	693
3.77467	693
3.77833	689
3.78200	685
3.78567	682
3.78933	680
3.79300	680
3.79667	679
3.80033	676
3.80400	671
3.80767	670
3.81133	669
3.81500	669
3.81867	669
3.82233	667
3.82600	665
3.82967	664
3.83333	663
3.83700	662
3.84067	661
3.84433	659
3.84800	657
3.85167	656
3.85533	655
3.85900	655
3.86267	655
3.86633	654
3.87000	652
3.87367	650
3.87733	647
3.88100	644
3.88467	643
3.88833	642
3.89200	642
3.89567	641
3.89933	638
3.90300	635
3.90667	631
3.91033	629
3.91400	628
3.91767	627
3.92133	627
3.92500	626
3.92867	626
3.93233	625
3.93600	621
3.93967	617
3.94333	614
3.94700	614
3.95067	614
3.95433	612
3.95800	609
3.96167	607
3.96533	607
3.96900	607
3.97267	605
3.97633	605
3.98000	607
3.98367	608
3.98733	608
3.99100	609
3.99467	606
3.99833	598

[Status Trace (Column Oven Temperature)]
Interval(msec)	1000
# of Points	240
Start Time(min)	0.005
End Time(min)	3.988
Intensity Units	
Intensity Multiplier	1
R.Time (min)	Intensity
0.00483	35.03
0.02150	35.03
0.03817	35.03
0.05483	35.03
0.07150	35.04
0.08817	35.04
0.10483	35.04
0.12150	35.03
0.13817	35.03
0.15483	35.03
0.17150	35.03
0.18817	35.03
0.20483	35.03
0.22150	35.03
0.23817	35.02
0.25483	35.02
0.27150	35.02
0.28817	35.02
0.30483	35.03
0.32150	35.02
0.33817	35.01
0.35483	35.01
0.37150	35.01
0.38817	35.02
0.40483	35.03
0.42150	35.02
0.43817	35.01
0.45483	35.02
0.47150	35.01
0.48817	35.01
0.50483	35.01
0.52150	35.01
0.53817	35.00
0.55483	35.00
0.57150	34.99
0.58817	35.00
0.60483	35.00
0.62150	34.99
0.63817	34.99
0.65483	34.99
0.67150	34.99
0.68817	34.99
0.70483	35.00
0.72150	35.00
0.73817	35.00
0.75483	35.00
0.77150	34.99
0.78817	34.99
0.80483	34.98
0.82150	34.99
0.83817	34.98
0.85483	34.98
0.87150	34.99
0.88817	35.00
0.90483	35.00
0.92150	35.00
0.93817	34.99
0.95483	34.99
0.97150	34.98
0.98817	34.99
1.00483	34.99
1.02150	35.00
1.03817	34.99
1.05483	34.99
1.07150	35.00
1.08817	35.00
1.10483	35.00
1.12150	35.01
1.13817	35.01
1.15483	34.99
1.17150	35.00
1.18817	35.00
1.20483	35.00
1.22150	35.00
1.23817	34.99
1.25483	34.99
1.27150	34.99
1.28817	34.99
1.30483	34.99
1.32150	34.99
1.33817	34.99
1.35483	34.99
1.37150	34.98
1.38817	34.98
1.40483	34.98
1.42150	34.99
1.43817	34.99
1.45483	35.00
1.47150	35.00
1.48817	35.00
1.50483	35.00
1.52150	34.99
1.53817	34.98
1.55483	34.98
1.57150	34.99
1.58817	35.00
1.60483	35.04
1.62150	35.15
1.63817	35.33
1.65483	35.58
1.67150	35.92
1.68817	36.29
1.70483	36.64
1.72150	36.98
1.73817	37.30
1.75483	37.60
1.77150	37.93
1.78817	38.29
1.80483	38.63
1.82150	38.94
1.83817	39.26
1.85483	39.60
1.87150	39.94
1.88817	40.25
1.90483	40.60
1.92150	40.93
1.93817	41.25
1.95483	41.59
1.97150	41.92
1.98817	42.25
2.00483	42.56
2.02150	42.90
2.03817	43.23
2.05483	43.53
2.07150	43.87
2.08817	44.22
2.10483	44.52
2.12150	44.85
2.13817	45.18
2.15483	45.52
2.17150	45.84
2.18817	46.16
2.20483	46.50
2.22150	46.84
2.23817	47.16
2.25483	47.48
2.27150	47.81
2.28817	48.16
2.30483	48.48
2.32150	48.81
2.33817	49.12
2.35483	49.41
2.37150	49.60
2.38817	49.67
2.40483	49.67
2.42150	49.67
2.43817	49.69
2.45483	49.67
2.47150	49.70
2.48817	49.73
2.50483	49.73
2.52150	49.74
2.53817	49.76
2.55483	49.78
2.57150	49.79
2.58817	49.79
2.60483	49.81
2.62150	49.81
2.63817	49.83
2.65483	49.85
2.67150	49.86
2.68817	49.86
2.70483	49.84
2.72150	49.85
2.73817	49.87
2.75483	49.87
2.77150	49.88
2.78817	49.89
2.80483	49.88
2.82150	49.88
2.83817	49.88
2.85483	49.90
2.87150	49.91
2.88817	49.92
2.90483	49.93
2.92150	49.95
2.93817	49.96
2.95483	49.97
2.97150	49.97
2.98817	49.98
3.00483	50.00
3.02150	50.01
3.03817	50.02
3.05483	50.03
3.07150	50.04
3.08817	50.05
3.10483	50.05
3.12150	50.07
3.13817	50.07
3.15483	50.07
3.17150	50.08
3.18817	50.09
3.20483	50.10
3.22150	50.10
3.23817	50.10
3.25483	50.10
3.27150	50.09
3.28817	50.08
3.30483	50.07
3.32150	50.07
3.33817	50.08
3.35483	50.07
3.37150	50.07
3.38817	50.08
3.40483	50.07
3.42150	50.07
3.43817	50.08
3.45483	50.08
3.47150	50.08
3.48817	50.08
3.50483	50.08
3.52150	50.08
3.53817	50.08
3.55483	50.08
3.57150	50.08
3.58817	50.08
3.60483	50.09
3.62150	50.09
3.63817	50.09
3.65483	50.08
3.67150	50.08
3.68817	50.08
3.70483	50.08
3.72150	50.09
3.73817	50.09
3.75483	50.10
3.77150	50.09
3.78817	50.08
3.80483	50.08
3.82150	50.08
3.83817	50.08
3.85483	50.08
3.87150	50.08
3.88817	50.08
3.90483	50.08
3.92150	50.07
3.93817	50.06
3.95483	50.06
3.97150	50.07
3.98817	50.07

[Status Trace (Injection Unit Temperature)]
Interval(msec)	1000
# of Points	240
Start Time(min)	0.005
End Time(min)	3.988
Intensity Units	
Intensity Multiplier	1
R.Time (min)	Intensity
0.00483	99.97
0.02150	99.97
0.03817	99.97
0.05483	99.98
0.07150	99.97
0.08817	99.97
0.10483	99.97
0.12150	99.97
0.13817	99.97
0.15483	99.98
0.17150	99.97
0.18817	99.97
0.20483	99.97
0.22150	99.98
0.23817	99.97
0.25483	99.98
0.27150	99.98
0.28817	99.98
0.30483	99.97
0.32150	99.98
0.33817	99.98
0.35483	99.98
0.37150	99.98
0.38817	99.98
0.40483	99.98
0.42150	99.98
0.43817	99.98
0.45483	99.98
0.47150	99.98
0.48817	99.98
0.50483	99.98
0.52150	99.99
0.53817	99.99
0.55483	99.98
0.57150	99.99
0.58817	99.98
0.60483	99.99
0.62150	99.99
0.63817	99.98
0.65483	99.98
0.67150	99.98
0.68817	99.99
0.70483	99.99
0.72150	99.99
0.73817	99.99
0.75483	99.99
0.77150	99.99
0.78817	99.99
0.80483	99.99
0.82150	99.99
0.83817	99.98
0.85483	99.99
0.87150	99.98
0.88817	99.99
0.90483	99.99
0.92150	99.98
0.93817	99.98
0.95483	99.98
0.97150	99.98
0.98817	99.98
1.00483	99.98
1.02150	99.99
1.03817	99.99
1.05483	99.98
1.07150	99.99
1.08817	99.98
1.10483	99.98
1.12150	99.98
1.13817	99.98
1.15483	99.98
1.17150	99.98
1.18817	99.98
1.20483	99.98
1.22150	99.98
1.23817	99.98
1.25483	99.98
1.27150	99.98
1.28817	99.98
1.30483	99.98
1.32150	99.98
1.33817	99.98
1.35483	99.98
1.37150	99.98
1.38817	99.98
1.40483	99.98
1.42150	99.98
1.43817	99.98
1.45483	99.98
1.47150	99.98
1.48817	99.98
1.50483	99.98
1.52150	99.98
1.53817	99.98
1.55483	99.98
1.57150	99.98
1.58817	99.98
1.60483	99.98
1.62150	99.98
1.63817	99.98
1.65483	99.98
1.67150	99.99
1.68817	99.98
1.70483	99.98
1.72150	99.98
1.73817	99.98
1.75483	99.98
1.77150	99.98
1.78817	99.98
1.80483	99.98
1.82150	99.98
1.83817	99.98
1.85483	99.98
1.87150	99.98
1.88817	99.98
1.90483	99.98
1.92150	99.97
1.93817	99.97
1.95483	99.97
1.97150	99.97
1.98817	99.97
2.00483	99.97
2.02150	99.97
2.03817	99.97
2.05483	99.97
2.07150	99.97
2.08817	99.97
2.10483	99.97
2.12150	99.97
2.13817	99.97
2.15483	99.96
2.17150	99.96
2.18817	99.96
2.20483	99.96
2.22150	99.96
2.23817	99.96
2.25483	99.96
2.27150	99.96
2.28817	99.96
2.30483	99.96
2.32150	99.96
2.33817	99.96
2.35483	99.96
2.37150	99.96
2.38817	99.96
2.40483	99.96
2.42150	99.96
2.43817	99.96
2.45483	99.96
2.47150	99.96
2.48817	99.96
2.50483	99.96
2.52150	99.96
2.53817	99.96
2.55483	99.96
2.57150	99.96
2.58817	99.96
2.60483	99.96
2.62150	99.96
2.63817	99.96
2.65483	99.97
2.67150	99.96
2.68817	99.97
2.70483	99.97
2.72150	99.98
2.73817	99.97
2.75483	99.97
2.77150	99.98
2.78817	99.98
2.80483	99.98
2.82150	99.98
2.83817	99.98
2.85483	99.98
2.87150	99.99
2.88817	99.99
2.90483	99.99
2.92150	99.99
2.93817	99.99
2.95483	99.99
2.97150	100.00
2.98817	100.00
3.00483	100.00
3.02150	100.00
3.03817	100.00
3.05483	100.00
3.07150	100.01
3.08817	100.01
3.10483	100.01
3.12150	100.01
3.13817	100.01
3.15483	100.01
3.17150	100.02
3.18817	100.02
3.20483	100.02
3.22150	100.02
3.23817	100.02
3.25483	100.02
3.27150	100.02
3.28817	100.02
3.30483	100.02
3.32150	100.02
3.33817	100.03
3.35483	100.03
3.37150	100.03
3.38817	100.03
3.40483	100.03
3.42150	100.03
3.43817	100.03
3.45483	100.04
3.47150	100.03
3.48817	100.04
3.50483	100.04
3.52150	100.04
3.53817	100.04
3.55483	100.04
3.57150	100.04
3.58817	100.04
3.60483	100.04
3.62150	100.04
3.63817	100.04
3.65483	100.04
3.67150	100.04
3.68817	100.05
3.70483	100.04
3.72150	100.04
3.73817	100.04
3.75483	100.04
3.77150	100.05
3.78817	100.04
3.80483	100.05
3.82150	100.05
3.83817	100.05
3.85483	100.05
3.87150	100.05
3.88817	100.05
3.90483	100.05
3.92150	100.04
3.93817	100.05
3.95483	100.04
3.97150	100.05
3.98817	100.05

[Status Trace (Carrier Gas Pressure)]
Interval(msec)	1000
# of Points	240
Start Time(min)	0.005
End Time(min)	3.988
Intensity Units	
Intensity Multiplier	1
R.Time (min)	Intensity
0.00483	58.00
0.02150	55.91
0.03817	56.63
0.05483	58.87
0.07150	59.79
0.08817	58.20
0.10483	57.97
0.12150	58.00
0.13817	58.01
0.15483	58.01
0.17150	58.00
0.18817	58.00
0.20483	58.00
0.22150	58.00
0.23817	58.00
0.25483	58.00
0.27150	58.00
0.28817	58.00
0.30483	58.00
0.32150	58.00
0.33817	58.00
0.35483	58.00
0.37150	58.00
0.38817	58.00
0.40483	58.00
0.42150	58.00
0.43817	58.00
0.45483	58.00
0.47150	58.00
0.48817	58.00
0.50483	58.00
0.52150	58.00
0.53817	58.00
0.55483	58.00
0.57150	58.00
0.58817	58.00
0.60483	58.00
0.62150	58.00
0.63817	58.00
0.65483	58.00
0.67150	58.00
0.68817	58.00
0.70483	58.00
0.72150	58.00
0.73817	58.00
0.75483	58.00
0.77150	58.00
0.78817	58.00
0.80483	58.00
0.82150	58.00
0.83817	58.00
0.85483	58.00
0.87150	58.00
0.88817	58.00
0.90483	58.00
0.92150	58.00
0.93817	58.00
0.95483	58.00
0.97150	58.00
0.98817	58.00
1.00483	58.00
1.02150	58.00
1.03817	58.00
1.05483	58.00
1.07150	58.00
1.08817	58.00
1.10483	58.00
1.12150	58.00
1.13817	58.00
1.15483	58.00
1.17150	58.00
1.18817	58.00
1.20483	58.00
1.22150	58.00
1.23817	58.00
1.25483	58.00
1.27150	58.00
1.28817	58.00
1.30483	58.00
1.32150	58.00
1.33817	58.00
1.35483	58.00
1.37150	58.00
1.38817	58.00
1.40483	58.00
1.42150	58.00
1.43817	58.00
1.45483	58.00
1.47150	58.00
1.48817	58.00
1.50483	58.00
1.52150	58.00
1.53817	58.00
1.55483	58.00
1.57150	58.00
1.58817	58.00
1.60483	58.00
1.62150	58.00
1.63817	58.01
1.65483	58.00
1.67150	58.01
1.68817	58.01
1.70483	58.00
1.72150	58.00
1.73817	58.00
1.75483	58.00
1.77150	58.00
1.78817	58.00
1.80483	58.00
1.82150	58.00
1.83817	58.00
1.85483	58.00
1.87150	58.00
1.88817	58.00
1.90483	58.00
1.92150	58.00
1.93817	58.00
1.95483	58.00
1.97150	58.00
1.98817	58.00
2.00483	58.00
2.02150	58.00
2.03817	58.00
2.05483	58.00
2.07150	58.00
2.08817	58.00
2.10483	58.00
2.12150	58.00
2.13817	58.00
2.15483	58.00
2.17150	58.00
2.18817	58.00
2.20483	58.00
2.22150	58.00
2.23817	58.00
2.25483	58.00
2.27150	58.00
2.28817	58.00
2.30483	58.00
2.32150	58.00
2.33817	58.00
2.35483	58.00
2.37150	58.00
2.38817	57.99
2.40483	57.99
2.42150	58.00
2.43817	58.00
2.45483	58.00
2.47150	58.00
2.48817	58.00
2.50483	57.99
2.52150	57.99
2.53817	58.00
2.55483	58.00
2.57150	58.00
2.58817	58.00
2.60483	58.00
2.62150	58.00
2.63817	58.00
2.65483	58.00
2.67150	58.00
2.68817	58.00
2.70483	58.00
2.72150	58.00
2.73817	58.00
2.75483	58.00
2.77150	58.00
2.78817	58.00
2.80483	58.00
2.82150	58.00
2.83817	58.00
2.85483	58.00
2.87150	58.00
2.88817	58.00
2.90483	58.00
2.92150	58.00
2.93817	58.00
2.95483	58.00
2.97150	58.00
2.98817	58.00
3.00483	58.00
3.02150	58.00
3.03817	58.00
3.05483	58.00
3.07150	58.00
3.08817	58.00
3.10483	58.00
3.12150	58.00
3.13817	58.00
3.15483	58.00
3.17150	58.00
3.18817	58.00
3.20483	58.00
3.22150	58.00
3.23817	58.00
3.25483	58.00
3.27150	58.00
3.28817	58.00
3.30483	58.00
3.32150	58.00
3.33817	58.00
3.35483	58.00
3.37150	58.00
3.38817	58.00
3.40483	58.00
3.42150	58.00
3.43817	58.00
3.45483	58.00
3.47150	58.00
3.48817	58.00
3.50483	58.00
3.52150	58.00
3.53817	58.00
3.55483	58.00
3.57150	58.00
3.58817	58.00
3.60483	58.00
3.62150	58.00
3.63817	58.00
3.65483	58.00
3.67150	58.00
3.68817	58.00
3.70483	58.00
3.72150	58.00
3.73817	58.00
3.75483	58.00
3.77150	58.00
3.78817	58.00
3.80483	58.00
3.82150	58.00
3.83817	58.00
3.85483	58.00
3.87150	58.00
3.88817	58.00
3.90483	58.00
3.92150	58.00
3.93817	58.00
3.95483	58.00
3.97150	58.00
3.98817	58.00

[Status Trace (Carrier Gas Flow)]
Interval(msec)	1000
# of Points	240
Start Time(min)	0.005
End Time(min)	3.988
Intensity Units	
Intensity Multiplier	1
R.Time (min)	Intensity
0.00483	34.51
0.02150	34.57
0.03817	34.54
0.05483	34.54
0.07150	34.50
0.08817	34.52
0.10483	34.52
0.12150	34.52
0.13817	34.52
0.15483	34.52
0.17150	34.52
0.18817	34.52
0.20483	34.52
0.22150	34.52
0.23817	34.52
0.25483	34.52
0.27150	34.52
0.28817	34.52
0.30483	34.52
0.32150	34.51
0.33817	34.52
0.35483	34.52
0.37150	34.52
0.38817	34.52
0.40483	34.52
0.42150	34.52
0.43817	34.52
0.45483	34.52
0.47150	34.51
0.48817	34.51
0.50483	34.52
0.52150	34.52
0.53817	34.52
0.55483	34.52
0.57150	34.53
0.58817	34.52
0.60483	34.52
0.62150	34.52
0.63817	34.52
0.65483	34.52
0.67150	34.52
0.68817	34.52
0.70483	34.52
0.72150	34.52
0.73817	34.52
0.75483	34.52
0.77150	34.52
0.78817	34.52
0.80483	34.52
0.82150	34.52
0.83817	34.52
0.85483	34.52
0.87150	34.52
0.88817	34.52
0.90483	34.52
0.92150	34.51
0.93817	34.52
0.95483	34.52
0.97150	34.52
0.98817	34.52
1.00483	34.52
1.02150	34.51
1.03817	34.52
1.05483	34.52
1.07150	34.52
1.08817	34.52
1.10483	34.52
1.12150	34.52
1.13817	34.52
1.15483	34.52
1.17150	34.52
1.18817	34.51
1.20483	34.51
1.22150	34.52
1.23817	34.51
1.25483	34.52
1.27150	34.52
1.28817	34.52
1.30483	34.52
1.32150	34.52
1.33817	34.52
1.35483	34.51
1.37150	34.52
1.38817	34.52
1.40483	34.52
1.42150	34.52
1.43817	34.52
1.45483	34.52
1.47150	34.51
1.48817	34.52
1.50483	34.52
1.52150	34.52
1.53817	34.52
1.55483	34.52
1.57150	34.52
1.58817	34.52
1.60483	34.52
1.62150	34.51
1.63817	34.51
1.65483	34.51
1.67150	34.51
1.68817	34.51
1.70483	34.52
1.72150	34.52
1.73817	34.52
1.75483	34.52
1.77150	34.52
1.78817	34.52
1.80483	34.52
1.82150	34.52
1.83817	34.52
1.85483	34.52
1.87150	34.52
1.88817	34.52
1.90483	34.51
1.92150	34.52
1.93817	34.52
1.95483	34.52
1.97150	34.52
1.98817	34.52
2.00483	34.52
2.02150	34.52
2.03817	34.52
2.05483	34.52
2.07150	34.51
2.08817	34.52
2.10483	34.53
2.12150	34.52
2.13817	34.52
2.15483	34.52
2.17150	34.52
2.18817	34.52
2.20483	34.52
2.22150	34.52
2.23817	34.52
2.25483	34.52
2.27150	34.52
2.28817	34.52
2.30483	34.52
2.32150	34.52
2.33817	34.52
2.35483	34.52
2.37150	34.52
2.38817	34.52
2.40483	34.52
2.42150	34.52
2.43817	34.52
2.45483	34.51
2.47150	34.52
2.48817	34.52
2.50483	34.53
2.52150	34.52
2.53817	34.52
2.55483	34.52
2.57150	34.51
2.58817	34.52
2.60483	34.52
2.62150	34.52
2.63817	34.51
2.65483	34.52
2.67150	34.51
2.68817	34.51
2.70483	34.52
2.72150	34.52
2.73817	34.51
2.75483	34.51
2.77150	34.52
2.78817	34.52
2.80483	34.52
2.82150	34.52
2.83817	34.51
2.85483	34.52
2.87150	34.52
2.88817	34.52
2.90483	34.52
2.92150	34.52
2.93817	34.52
2.95483	34.52
2.97150	34.52
2.98817	34.52
3.00483	34.52
3.02150	34.52
3.03817	34.52
3.05483	34.52
3.07150	34.52
3.08817	34.52
3.10483	34.52
3.12150	34.52
3.13817	34.52
3.15483	34.52
3.17150	34.52
3.18817	34.52
3.20483	34.52
3.22150	34.51
3.23817	34.52
3.25483	34.52
3.27150	34.52
3.28817	34.52
3.30483	34.52
3.32150	34.52
3.33817	34.52
3.35483	34.52
3.37150	34.52
3.38817	34.52
3.40483	34.51
3.42150	34.52
3.43817	34.52
3.45483	34.52
3.47150	34.52
3.48817	34.52
3.50483	34.52
3.52150	34.52
3.53817	34.52
3.55483	34.52
3.57150	34.52
3.58817	34.52
3.60483	34.52
3.62150	34.52
3.63817	34.52
3.65483	34.52
3.67150	34.52
3.68817	34.52
3.70483	34.52
3.72150	34.52
3.73817	34.52
3.75483	34.51
3.77150	34.52
3.78817	34.52
3.80483	34.52
3.82150	34.52
3.83817	34.52
3.85483	34.52
3.87150	34.52
3.88817	34.52
3.90483	34.52
3.92150	34.52
3.93817	34.51
3.95483	34.51
3.97150	34.52
3.98817	34.52

[Status Trace (Column Flow)]
Interval(msec)	1000
# of Points	240
Start Time(min)	0.005
End Time(min)	3.988
Intensity Units	
Intensity Multiplier	1
R.Time (min)	Intensity
0.00483	5.51
0.02150	5.27
0.03817	5.36
0.05483	5.62
0.07150	5.72
0.08817	5.54
0.10483	5.51
0.12150	5.52
0.13817	5.52
0.15483	5.52
0.17150	5.52
0.18817	5.51
0.20483	5.52
0.22150	5.52
0.23817	5.52
0.25483	5.52
0.27150	5.52
0.28817	5.52
0.30483	5.52
0.32150	5.52
0.33817	5.52
0.35483	5.52
0.37150	5.52
0.38817	5.52
0.40483	5.52
0.42150	5.52
0.43817	5.52
0.45483	5.52
0.47150	5.52
0.48817	5.52
0.50483	5.52
0.52150	5.52
0.53817	5.52
0.55483	5.52
0.57150	5.52
0.58817	5.52
0.60483	5.52
0.62150	5.52
0.63817	5.52
0.65483	5.52
0.67150	5.52
0.68817	5.52
0.70483	5.52
0.72150	5.52
0.73817	5.52
0.75483	5.52
0.77150	5.52
0.78817	5.52
0.80483	5.52
0.82150	5.52
0.83817	5.52
0.85483	5.52
0.87150	5.52
0.88817	5.52
0.90483	5.52
0.92150	5.52
0.93817	5.52
0.95483	5.52
0.97150	5.52
0.98817	5.52
1.00483	5.52
1.02150	5.52
1.03817	5.52
1.05483	5.52
1.07150	5.52
1.08817	5.52
1.10483	5.52
1.12150	5.52
1.13817	5.52
1.15483	5.52
1.17150	5.52
1.18817	5.52
1.20483	5.52
1.22150	5.52
1.23817	5.52
1.25483	5.52
1.27150	5.52
1.28817	5.52
1.30483	5.52
1.32150	5.52
1.33817	5.52
1.35483	5.52
1.37150	5.52
1.38817	5.52
1.40483	5.52
1.42150	5.52
1.43817	5.52
1.45483	5.52
1.47150	5.52
1.48817	5.52
1.50483	5.52
1.52150	5.52
1.53817	5.52
1.55483	5.52
1.57150	5.52
1.58817	5.52
1.60483	5.51
1.62150	5.51
1.63817	5.51
1.65483	5.50
1.67150	5.49
1.68817	5.48
1.70483	5.46
1.72150	5.45
1.73817	5.44
1.75483	5.43
1.77150	5.43
1.78817	5.41
1.80483	5.40
1.82150	5.39
1.83817	5.38
1.85483	5.37
1.87150	5.36
1.88817	5.35
1.90483	5.34
1.92150	5.33
1.93817	5.32
1.95483	5.31
1.97150	5.31
1.98817	5.29
2.00483	5.29
2.02150	5.28
2.03817	5.27
2.05483	5.26
2.07150	5.25
2.08817	5.24
2.10483	5.23
2.12150	5.22
2.13817	5.21
2.15483	5.20
2.17150	5.19
2.18817	5.18
2.20483	5.17
2.22150	5.16
2.23817	5.15
2.25483	5.14
2.27150	5.13
2.28817	5.12
2.30483	5.12
2.32150	5.11
2.33817	5.10
2.35483	5.09
2.37150	5.08
2.38817	5.08
2.40483	5.08
2.42150	5.08
2.43817	5.08
2.45483	5.08
2.47150	5.08
2.48817	5.08
2.50483	5.08
2.52150	5.08
2.53817	5.08
2.55483	5.08
2.57150	5.08
2.58817	5.08
2.60483	5.08
2.62150	5.08
2.63817	5.08
2.65483	5.08
2.67150	5.08
2.68817	5.08
2.70483	5.08
2.72150	5.08
2.73817	5.08
2.75483	5.08
2.77150	5.08
2.78817	5.08
2.80483	5.08
2.82150	5.08
2.83817	5.08
2.85483	5.08
2.87150	5.08
2.88817	5.08
2.90483	5.07
2.92150	5.07
2.93817	5.07
2.95483	5.07
2.97150	5.07
2.98817	5.07
3.00483	5.07
3.02150	5.07
3.03817	5.07
3.05483	5.07
3.07150	5.07
3.08817	5.07
3.10483	5.07
3.12150	5.07
3.13817	5.07
3.15483	5.07
3.17150	5.07
3.18817	5.07
3.20483	5.07
3.22150	5.07
3.23817	5.07
3.25483	5.07
3.27150	5.07
3.28817	5.07
3.30483	5.07
3.32150	5.07
3.33817	5.07
3.35483	5.07
3.37150	5.07
3.38817	5.07
3.40483	5.07
3.42150	5.07
3.43817	5.07
3.45483	5.07
3.47150	5.07
3.48817	5.07
3.50483	5.07
3.52150	5.07
3.53817	5.07
3.55483	5.07
3.57150	5.07
3.58817	5.07
3.60483	5.07
3.62150	5.07
3.63817	5.07
3.65483	5.07
3.67150	5.07
3.68817	5.07
3.70483	5.07
3.72150	5.07
3.73817	5.07
3.75483	5.07
3.77150	5.07
3.78817	5.07
3.80483	5.07
3.82150	5.07
3.83817	5.07
3.85483	5.07
3.87150	5.07
3.88817	5.07
3.90483	5.07
3.92150	5.07
3.93817	5.07
3.95483	5.07
3.97150	5.07
3.98817	5.07

[Status Trace (Linear Velocity)]
Interval(msec)	1000
# of Points	240
Start Time(min)	0.005
End Time(min)	3.988
Intensity Units	
Intensity Multiplier	1
R.Time (min)	Intensity
0.00483	39.01
0.02150	37.64
0.03817	38.11
0.05483	39.58
0.07150	40.19
0.08817	39.14
0.10483	38.99
0.12150	39.01
0.13817	39.02
0.15483	39.02
0.17150	39.01
0.18817	39.01
0.20483	39.01
0.22150	39.01
0.23817	39.01
0.25483	39.01
0.27150	39.01
0.28817	39.01
0.30483	39.01
0.32150	39.01
0.33817	39.01
0.35483	39.01
0.37150	39.01
0.38817	39.01
0.40483	39.01
0.42150	39.01
0.43817	39.01
0.45483	39.01
0.47150	39.01
0.48817	39.02
0.50483	39.01
0.52150	39.01
0.53817	39.02
0.55483	39.02
0.57150	39.02
0.58817	39.02
0.60483	39.02
0.62150	39.02
0.63817	39.02
0.65483	39.02
0.67150	39.02
0.68817	39.02
0.70483	39.02
0.72150	39.02
0.73817	39.01
0.75483	39.02
0.77150	39.02
0.78817	39.02
0.80483	39.02
0.82150	39.02
0.83817	39.02
0.85483	39.02
0.87150	39.02
0.88817	39.02
0.90483	39.01
0.92150	39.02
0.93817	39.02
0.95483	39.02
0.97150	39.02
0.98817	39.02
1.00483	39.02
1.02150	39.02
1.03817	39.02
1.05483	39.02
1.07150	39.02
1.08817	39.02
1.10483	39.02
1.12150	39.01
1.13817	39.01
1.15483	39.02
1.17150	39.02
1.18817	39.01
1.20483	39.02
1.22150	39.02
1.23817	39.02
1.25483	39.02
1.27150	39.02
1.28817	39.02
1.30483	39.02
1.32150	39.02
1.33817	39.02
1.35483	39.02
1.37150	39.02
1.38817	39.02
1.40483	39.02
1.42150	39.02
1.43817	39.02
1.45483	39.02
1.47150	39.02
1.48817	39.02
1.50483	39.01
1.52150	39.02
1.53817	39.02
1.55483	39.02
1.57150	39.02
1.58817	39.02
1.60483	39.01
1.62150	39.00
1.63817	38.99
1.65483	38.96
1.67150	38.93
1.68817	38.90
1.70483	38.86
1.72150	38.83
1.73817	38.80
1.75483	38.77
1.77150	38.74
1.78817	38.70
1.80483	38.67
1.82150	38.64
1.83817	38.61
1.85483	38.58
1.87150	38.55
1.88817	38.52
1.90483	38.48
1.92150	38.46
1.93817	38.42
1.95483	38.39
1.97150	38.37
1.98817	38.33
2.00483	38.30
2.02150	38.28
2.03817	38.24
2.05483	38.21
2.07150	38.19
2.08817	38.15
2.10483	38.12
2.12150	38.10
2.13817	38.06
2.15483	38.03
2.17150	38.01
2.18817	37.97
2.20483	37.95
2.22150	37.92
2.23817	37.88
2.25483	37.86
2.27150	37.83
2.28817	37.80
2.30483	37.77
2.32150	37.74
2.33817	37.71
2.35483	37.68
2.37150	37.67
2.38817	37.66
2.40483	37.66
2.42150	37.66
2.43817	37.66
2.45483	37.66
2.47150	37.66
2.48817	37.65
2.50483	37.65
2.52150	37.65
2.53817	37.65
2.55483	37.65
2.57150	37.65
2.58817	37.65
2.60483	37.65
2.62150	37.65
2.63817	37.65
2.65483	37.64
2.67150	37.64
2.68817	37.64
2.70483	37.64
2.72150	37.65
2.73817	37.64
2.75483	37.64
2.77150	37.64
2.78817	37.64
2.80483	37.64
2.82150	37.64
2.83817	37.64
2.85483	37.64
2.87150	37.64
2.88817	37.64
2.90483	37.64
2.92150	37.64
2.93817	37.63
2.95483	37.63
2.97150	37.63
2.98817	37.63
3.00483	37.63
3.02150	37.63
3.03817	37.63
3.05483	37.63
3.07150	37.63
3.08817	37.63
3.10483	37.63
3.12150	37.63
3.13817	37.62
3.15483	37.62
3.17150	37.62
3.18817	37.62
3.20483	37.62
3.22150	37.62
3.23817	37.62
3.25483	37.62
3.27150	37.62
3.28817	37.62
3.30483	37.62
3.32150	37.62
3.33817	37.62
3.35483	37.63
3.37150	37.63
3.38817	37.62
3.40483	37.62
3.42150	37.62
3.43817	37.62
3.45483	37.62
3.47150	37.62
3.48817	37.62
3.50483	37.62
3.52150	37.62
3.53817	37.62
3.55483	37.62
3.57150	37.62
3.58817	37.62
3.60483	37.62
3.62150	37.62
3.63817	37.62
3.65483	37.62
3.67150	37.62
3.68817	37.62
3.70483	37.62
3.72150	37.62
3.73817	37.62
3.75483	37.62
3.77150	37.62
3.78817	37.62
3.80483	37.62
3.82150	37.62
3.83817	37.62
3.85483	37.62
3.87150	37.62
3.88817	37.62
3.90483	37.62
3.92150	37.63
3.93817	37.63
3.95483	37.63
3.97150	37.63
3.98817	37.63

