[Header]
Application Name	LabSolutions
Version	5.110
Data File Name	C:\Users\User\Desktop\Junior\UIC Prairie Sampling\2023\8.18.23\081823_011.gcd
Output Date	8/31/2023
Output Time	12:48:06 PM

[File Information]
Type	Data File
Generated	8/30/2023 5:17:08 PM
Generated by	System Administrator
Modified	8/30/2023 5:23:29 PM
Modified by	System Administrator

[Sample Information]
Operator Name	System Administrator
Acquired	8/30/2023 5:19:28 PM
Sample Type	0:Unknown
Level	0
Sample Name	011
Sample ID	011
ISTD Amount1	1
ISTD Amount2	1
ISTD Amount3	1
ISTD Amount4	1
ISTD Amount5	1
ISTD Amount6	1
ISTD Amount7	1
ISTD Amount8	1
ISTD Amount9	1
ISTD Amount10	1
ISTD Amount11	1
ISTD Amount12	1
ISTD Amount13	1
ISTD Amount14	1
ISTD Amount15	1
ISTD Amount16	1
ISTD Amount17	1
ISTD Amount18	1
ISTD Amount19	1
ISTD Amount20	1
ISTD Amount21	1
ISTD Amount22	1
ISTD Amount23	1
ISTD Amount24	1
ISTD Amount25	1
ISTD Amount26	1
ISTD Amount27	1
ISTD Amount28	1
ISTD Amount29	1
ISTD Amount30	1
ISTD Amount31	1
ISTD Amount32	1
Sample Amount	1
Dilution Factor	1
Vial#	10
Injection Volume	1
Injection Count	1
Bar Code	

[Original Files]
Data File	C:\Users\User\Desktop\Junior\UIC Prairie Sampling\8.18.23\081823_011.gcd
Method File	C:\LabSolutions\Data\GHG_4min_2022\ghg3_togas_w_acet_4 min_new_int.gcm
Batch File	C:\LabSolutions\Data\BATCH FILES\081823.gcb
Report Format File	c:\LabSolutions\System\DEFAULT.lsr

[File Description]


[Configuration]
Instrument Name	C0B7VH3-Instrument1
Instrument #	1
Line #	1
# of Detectors	3
Detector ID	DET#1	DET#2	DET#3
Detector Name	FID	PTCD	ECD
# of Channels	1	1	1

[Peak Table(Ch1)]
# of Peaks	3
Peak#	R.Time	I.Time	F.Time	Area	Height	A/H	Conc.	Mark	ID#	Name	k'	Plate #	Plate Ht.	Tailing	Resolution	Sep.Factor	Area Ratio	Height Ratio	Conc. %	Norm Conc.
1	1.472	1.439	1.527	4052	2050	1.977	0.000	   	1	CO	0.000	9765	15.360	1.333	0.000	0.000	0	0	0.000	0.000
2	1.564	1.527	1.626	4419	2235	1.977	21.542	 V 	2	CH4	0.062	11510	13.032	1.120	1.555	0.000	0	0	10.916	10.916
3	1.989	1.941	2.480	912191	437238	2.086	175.796	   	3	CO2	0.351	17573	8.536	1.297	7.190	5.640	0	0	89.084	89.084

[Peak Table(Ch2)]
# of Peaks	0

[Peak Table(Ch3)]
# of Peaks	5
Peak#	R.Time	I.Time	F.Time	Area	Height	A/H	Conc.	Mark	ID#	Name	k'	Plate #	Plate Ht.	Tailing	Resolution	Sep.Factor	Area Ratio	Height Ratio	Conc. %	Norm Conc.
1	2.458	2.440	2.506	665	265	2.508	0.000	   			0.000	15968	9.394	0.000	0.000	0.000	0	0	0.000	0.000
2	2.517	2.506	2.568	233	114	2.041	0.000	 V 			0.024	9639	15.562	0.000	0.651	0.000	0	0	0.000	0.000
3	2.616	2.568	2.649	197	75	2.647	0.000	 V 			0.064	18849	7.958	0.000	1.108	2.688	0	0	0.000	0.000
4	2.891	2.825	3.052	14276	3965	3.600	0.211	   	1	N2O	0.176	14227	10.543	1.496	3.176	2.744	0	0	100.000	100.000
5	3.236	3.151	3.995	21271	880	24.176	0.000	   			0.316	170	884.771	5.157	0.632	1.797	0	0	0.000	0.000

[Compound Results(Ch1)]
# of IDs	6
ID#	Name	R.Time	Area	Height	Conc.	Curve	3rd	2nd	1st	Constant	Area Ratio	Height Ratio	Conc. %	Norm Conc.
1	CO	1.472	4052	2050	0.000	Linear	0.000000e+00	0.000000e+00	0.000000e+00	0.000000e+00	0	0	0.000	0.000
2	CH4	1.564	4419	2235	21.542	Linear	0.000000e+00	0.000000e+00	2.051179e+002	0.000000e+00	0	0	10.916	10.916
3	CO2	1.989	912191	437238	175.796	Linear	0.000000e+00	0.000000e+00	5.188919e+003	0.000000e+00	0	0	89.084	89.084
4	Ethylene	0.000	0	0	0.000	Linear	0.000000e+00	0.000000e+00	0.000000e+00	0.000000e+00	0	0	0.000	0.000
5	Acetylene	0.000	0	0	0.000	Linear	0.000000e+00	0.000000e+00	0.000000e+00	0.000000e+00	0	0	0.000	0.000
6	Ethane	0.000	0	0	0.000	Linear	0.000000e+00	0.000000e+00	0.000000e+00	0.000000e+00	0	0	0.000	0.000

[Compound Results(Ch2)]
# of IDs	5
ID#	Name	R.Time	Area	Height	Conc.	Curve	3rd	2nd	1st	Constant	Area Ratio	Height Ratio	Conc. %	Norm Conc.
1	Hydrogen	0.000	0	0	0.000	Linear	0.000000e+00	0.000000e+00	0.000000e+00	0.000000e+00	0	0	0.000	0.000
2	Oxygen	0.000	0	0	0.000	Linear	0.000000e+00	0.000000e+00	0.000000e+00	0.000000e+00	0	0	0.000	0.000
3	Nitrogen	0.000	0	0	0.000	Linear	0.000000e+00	0.000000e+00	0.000000e+00	0.000000e+00	0	0	0.000	0.000
4	Methane	0.000	0	0	0.000	Linear	0.000000e+00	0.000000e+00	0.000000e+00	0.000000e+00	0	0	0.000	0.000
5	Carbon Monoxide	0.000	0	0	0.000	Linear	0.000000e+00	0.000000e+00	0.000000e+00	0.000000e+00	0	0	0.000	0.000

[Compound Results(Ch3)]
# of IDs	2
ID#	Name	R.Time	Area	Height	Conc.	Curve	3rd	2nd	1st	Constant	Area Ratio	Height Ratio	Conc. %	Norm Conc.
1	N2O	2.891	14276	3965	0.211	Linear	0.000000e+00	0.000000e+00	6.759880e+004	0.000000e+00	0	0	100.000	100.000
2	SF6	0.000	0	0	0.000	Linear	0.000000e+00	0.000000e+00	0.000000e+00	0.000000e+00	0	0	0.000	0.000

[Group Results(Ch1)]
# of Groups	0

[Group Results(Ch2)]
# of Groups	0

[Group Results(Ch3)]
# of Groups	0

[Chromatogram (Ch1)]
Interval(msec)	220
# of Points	1091
Start Time(min)	0.002
End Time(min)	3.998
R.Time (min)	Intensity
0.00167	-15
0.00533	-16
0.00900	-14
0.01267	-11
0.01633	-8
0.02000	-5
0.02367	-3
0.02733	-2
0.03100	-1
0.03467	-0
0.03833	2
0.04200	3
0.04567	3
0.04933	3
0.05300	3
0.05667	1
0.06033	0
0.06400	-1
0.06767	-1
0.07133	0
0.07500	1
0.07867	2
0.08233	1
0.08600	0
0.08967	2
0.09333	4
0.09700	8
0.10067	12
0.10433	14
0.10800	15
0.11167	18
0.11533	23
0.11900	22
0.12267	17
0.12633	11
0.13000	6
0.13367	3
0.13733	3
0.14100	2
0.14467	-0
0.14833	-0
0.15200	4
0.15567	7
0.15933	9
0.16300	8
0.16667	6
0.17033	7
0.17400	11
0.17767	14
0.18133	16
0.18500	15
0.18867	15
0.19233	15
0.19600	17
0.19967	18
0.20333	18
0.20700	16
0.21067	13
0.21433	10
0.21800	6
0.22167	4
0.22533	4
0.22900	5
0.23267	3
0.23633	0
0.24000	-2
0.24367	-6
0.24733	-10
0.25100	-13
0.25467	-13
0.25833	-9
0.26200	-6
0.26567	-4
0.26933	-3
0.27300	-5
0.27667	-6
0.28033	-5
0.28400	-4
0.28767	-3
0.29133	-0
0.29500	2
0.29867	2
0.30233	-2
0.30600	-8
0.30967	-12
0.31333	-11
0.31700	-6
0.32067	-0
0.32433	6
0.32800	11
0.33167	14
0.33533	14
0.33900	13
0.34267	12
0.34633	10
0.35000	11
0.35367	15
0.35733	19
0.36100	19
0.36467	17
0.36833	15
0.37200	12
0.37567	11
0.37933	9
0.38300	8
0.38667	7
0.39033	4
0.39400	-1
0.39767	-8
0.40133	-13
0.40500	-16
0.40867	-17
0.41233	-14
0.41600	-9
0.41967	-3
0.42333	-0
0.42700	-3
0.43067	-5
0.43433	-6
0.43800	-6
0.44167	-7
0.44533	-6
0.44900	-3
0.45267	0
0.45633	2
0.46000	3
0.46367	6
0.46733	10
0.47100	18
0.47467	23
0.47833	24
0.48200	25
0.48567	25
0.48933	25
0.49300	24
0.49667	24
0.50033	22
0.50400	20
0.50767	18
0.51133	18
0.51500	21
0.51867	25
0.52233	30
0.52600	34
0.52967	35
0.53333	34
0.53700	30
0.54067	26
0.54433	25
0.54800	25
0.55167	26
0.55533	31
0.55900	37
0.56267	44
0.56633	49
0.57000	54
0.57367	56
0.57733	60
0.58100	64
0.58467	66
0.58833	62
0.59200	59
0.59567	60
0.59933	63
0.60300	64
0.60667	64
0.61033	64
0.61400	64
0.61767	62
0.62133	62
0.62500	65
0.62867	72
0.63233	76
0.63600	74
0.63967	69
0.64333	62
0.64700	56
0.65067	49
0.65433	43
0.65800	38
0.66167	33
0.66533	27
0.66900	24
0.67267	23
0.67633	24
0.68000	22
0.68367	20
0.68733	18
0.69100	14
0.69467	8
0.69833	3
0.70200	0
0.70567	-2
0.70933	-2
0.71300	1
0.71667	3
0.72033	4
0.72400	2
0.72767	-2
0.73133	-5
0.73500	-5
0.73867	-6
0.74233	-8
0.74600	-11
0.74967	-14
0.75333	-16
0.75700	-17
0.76067	-19
0.76433	-19
0.76800	-20
0.77167	-24
0.77533	-29
0.77900	-29
0.78267	-28
0.78633	-26
0.79000	-26
0.79367	-27
0.79733	-29
0.80100	-29
0.80467	-27
0.80833	-22
0.81200	-18
0.81567	-14
0.81933	-11
0.82300	-7
0.82667	-6
0.83033	-10
0.83400	-16
0.83767	-21
0.84133	-27
0.84500	-34
0.84867	-37
0.85233	-39
0.85600	-38
0.85967	-35
0.86333	-30
0.86700	-27
0.87067	-29
0.87433	-33
0.87800	-36
0.88167	-37
0.88533	-36
0.88900	-30
0.89267	-26
0.89633	-22
0.90000	-19
0.90367	-17
0.90733	-15
0.91100	-12
0.91467	-11
0.91833	-12
0.92200	-15
0.92567	-21
0.92933	-29
0.93300	-36
0.93667	-40
0.94033	-42
0.94400	-41
0.94767	-38
0.95133	-38
0.95500	-39
0.95867	-39
0.96233	-39
0.96600	-37
0.96967	-38
0.97333	-38
0.97700	-38
0.98067	-39
0.98433	-42
0.98800	-44
0.99167	-44
0.99533	-39
0.99900	-32
1.00267	-27
1.00633	-25
1.01000	-27
1.01367	-32
1.01733	-35
1.02100	-37
1.02467	-39
1.02833	-40
1.03200	-41
1.03567	-43
1.03933	-46
1.04300	-46
1.04667	-45
1.05033	-45
1.05400	-42
1.05767	-39
1.06133	-35
1.06500	-36
1.06867	-39
1.07233	-45
1.07600	-48
1.07967	-50
1.08333	-51
1.08700	-53
1.09067	-55
1.09433	-52
1.09800	-44
1.10167	-37
1.10533	-30
1.10900	-26
1.11267	-26
1.11633	-24
1.12000	-22
1.12367	-25
1.12733	-34
1.13100	-43
1.13467	-47
1.13833	-49
1.14200	-50
1.14567	-45
1.14933	-36
1.15300	-29
1.15667	-26
1.16033	-27
1.16400	-28
1.16767	-28
1.17133	-32
1.17500	-37
1.17867	-43
1.18233	-47
1.18600	-48
1.18967	-49
1.19333	-51
1.19700	-53
1.20067	-57
1.20433	-61
1.20800	-62
1.21167	-63
1.21533	-62
1.21900	-60
1.22267	-57
1.22633	-57
1.23000	-59
1.23367	-62
1.23733	-65
1.24100	-67
1.24467	-69
1.24833	-68
1.25200	-63
1.25567	-54
1.25933	-46
1.26300	-41
1.26667	-41
1.27033	-45
1.27400	-49
1.27767	-51
1.28133	-52
1.28500	-54
1.28867	-56
1.29233	-58
1.29600	-55
1.29967	-46
1.30333	-37
1.30700	-35
1.31067	-40
1.31433	-44
1.31800	-49
1.32167	-56
1.32533	-63
1.32900	-70
1.33267	-74
1.33633	-75
1.34000	-71
1.34367	-66
1.34733	-61
1.35100	-60
1.35467	-61
1.35833	-64
1.36200	-65
1.36567	-62
1.36933	-56
1.37300	-51
1.37667	-51
1.38033	-54
1.38400	-56
1.38767	-53
1.39133	-44
1.39500	-37
1.39867	-34
1.40233	-36
1.40600	-41
1.40967	-43
1.41333	-47
1.41700	-53
1.42067	-57
1.42433	-62
1.42800	-68
1.43167	-70
1.43533	-63
1.43900	-54
1.44267	-51
1.44633	-1
1.45000	193
1.45367	540
1.45733	952
1.46100	1340
1.46467	1662
1.46833	1893
1.47200	1997
1.47567	1942
1.47933	1738
1.48300	1439
1.48667	1116
1.49033	822
1.49400	580
1.49767	393
1.50133	255
1.50500	159
1.50867	96
1.51233	55
1.51600	31
1.51967	15
1.52333	3
1.52700	-4
1.53067	2
1.53433	45
1.53800	181
1.54167	462
1.54533	866
1.54900	1306
1.55267	1697
1.55633	1992
1.56000	2164
1.56367	2183
1.56733	2031
1.57100	1735
1.57467	1369
1.57833	1010
1.58200	706
1.58567	472
1.58933	303
1.59300	186
1.59667	105
1.60033	48
1.60400	11
1.60767	-13
1.61133	-27
1.61500	-35
1.61867	-41
1.62233	-47
1.62600	-51
1.62967	-54
1.63333	-55
1.63700	-55
1.64067	-57
1.64433	-62
1.64800	-68
1.65167	-72
1.65533	-72
1.65900	-70
1.66267	-67
1.66633	-64
1.67000	-62
1.67367	-58
1.67733	-57
1.68100	-58
1.68467	-61
1.68833	-64
1.69200	-65
1.69567	-66
1.69933	-67
1.70300	-71
1.70667	-75
1.71033	-78
1.71400	-77
1.71767	-74
1.72133	-69
1.72500	-64
1.72867	-62
1.73233	-62
1.73600	-63
1.73967	-65
1.74333	-71
1.74700	-78
1.75067	-84
1.75433	-88
1.75800	-89
1.76167	-88
1.76533	-83
1.76900	-80
1.77267	-78
1.77633	-78
1.78000	-78
1.78367	-77
1.78733	-75
1.79100	-75
1.79467	-79
1.79833	-81
1.80200	-81
1.80567	-78
1.80933	-78
1.81300	-78
1.81667	-77
1.82033	-74
1.82400	-72
1.82767	-72
1.83133	-74
1.83500	-75
1.83867	-76
1.84233	-76
1.84600	-77
1.84967	-78
1.85333	-78
1.85700	-75
1.86067	-73
1.86433	-71
1.86800	-74
1.87167	-82
1.87533	-91
1.87900	-100
1.88267	-100
1.88633	-95
1.89000	-92
1.89367	-89
1.89733	-84
1.90100	-76
1.90467	-65
1.90833	-58
1.91200	-58
1.91567	-62
1.91933	-68
1.92300	-75
1.92667	-82
1.93033	-85
1.93400	-84
1.93767	-81
1.94133	-79
1.94500	-67
1.94867	5
1.95233	424
1.95600	2351
1.95967	9052
1.96333	26795
1.96700	63274
1.97067	122446
1.97433	199848
1.97800	283450
1.98167	358546
1.98533	412542
1.98900	437178
1.99267	429211
1.99633	391800
2.00000	334109
2.00367	268112
2.00733	204513
2.01100	150021
2.01467	107100
2.01833	75261
2.02200	52607
2.02567	36926
2.02933	26251
2.03300	19043
2.03667	14178
2.04033	10873
2.04400	8596
2.04767	7003
2.05133	5865
2.05500	5029
2.05867	4401
2.06233	3912
2.06600	3519
2.06967	3195
2.07333	2924
2.07700	2696
2.08067	2501
2.08433	2335
2.08800	2191
2.09167	2063
2.09533	1950
2.09900	1850
2.10267	1760
2.10633	1675
2.11000	1600
2.11367	1532
2.11733	1470
2.12100	1409
2.12467	1346
2.12833	1286
2.13200	1228
2.13567	1177
2.13933	1132
2.14300	1092
2.14667	1057
2.15033	1021
2.15400	986
2.15767	955
2.16133	924
2.16500	894
2.16867	865
2.17233	838
2.17600	813
2.17967	791
2.18333	770
2.18700	748
2.19067	729
2.19433	710
2.19800	689
2.20167	666
2.20533	642
2.20900	619
2.21267	596
2.21633	573
2.22000	554
2.22367	538
2.22733	524
2.23100	513
2.23467	506
2.23833	500
2.24200	496
2.24567	487
2.24933	474
2.25300	460
2.25667	449
2.26033	438
2.26400	429
2.26767	421
2.27133	415
2.27500	409
2.27867	402
2.28233	393
2.28600	384
2.28967	376
2.29333	364
2.29700	353
2.30067	346
2.30433	339
2.30800	332
2.31167	324
2.31533	315
2.31900	302
2.32267	290
2.32633	283
2.33000	280
2.33367	277
2.33733	275
2.34100	273
2.34467	271
2.34833	266
2.35200	263
2.35567	262
2.35933	263
2.36300	264
2.36667	262
2.37033	254
2.37400	245
2.37767	237
2.38133	231
2.38500	225
2.38867	219
2.39233	213
2.39600	208
2.39967	203
2.40333	199
2.40700	194
2.41067	190
2.41433	187
2.41800	182
2.42167	179
2.42533	178
2.42900	178
2.43267	179
2.43633	177
2.44000	175
2.44367	173
2.44733	170
2.45100	167
2.45467	162
2.45833	155
2.46200	148
2.46567	143
2.46933	137
2.47300	130
2.47667	124
2.48033	121
2.48400	119
2.48767	118
2.49133	118
2.49500	115
2.49867	114
2.50233	120
2.50600	125
2.50967	127
2.51333	127
2.51700	123
2.52067	120
2.52433	120
2.52800	121
2.53167	120
2.53533	120
2.53900	123
2.54267	126
2.54633	126
2.55000	127
2.55367	124
2.55733	114
2.56100	102
2.56467	91
2.56833	83
2.57200	78
2.57567	72
2.57933	66
2.58300	61
2.58667	62
2.59033	66
2.59400	74
2.59767	80
2.60133	81
2.60500	80
2.60867	79
2.61233	78
2.61600	74
2.61967	70
2.62333	69
2.62700	71
2.63067	74
2.63433	77
2.63800	78
2.64167	76
2.64533	74
2.64900	71
2.65267	65
2.65633	60
2.66000	57
2.66367	56
2.66733	56
2.67100	56
2.67467	56
2.67833	56
2.68200	59
2.68567	60
2.68933	61
2.69300	59
2.69667	57
2.70033	56
2.70400	55
2.70767	54
2.71133	55
2.71500	57
2.71867	59
2.72233	58
2.72600	55
2.72967	53
2.73333	54
2.73700	55
2.74067	54
2.74433	51
2.74800	48
2.75167	48
2.75533	46
2.75900	43
2.76267	38
2.76633	33
2.77000	29
2.77367	26
2.77733	25
2.78100	27
2.78467	30
2.78833	31
2.79200	31
2.79567	32
2.79933	34
2.80300	35
2.80667	36
2.81033	37
2.81400	36
2.81767	35
2.82133	34
2.82500	33
2.82867	31
2.83233	28
2.83600	23
2.83967	19
2.84333	19
2.84700	21
2.85067	20
2.85433	17
2.85800	13
2.86167	11
2.86533	10
2.86900	11
2.87267	12
2.87633	13
2.88000	13
2.88367	12
2.88733	9
2.89100	9
2.89467	12
2.89833	14
2.90200	10
2.90567	4
2.90933	0
2.91300	-2
2.91667	-4
2.92033	-4
2.92400	-1
2.92767	3
2.93133	5
2.93500	8
2.93867	11
2.94233	13
2.94600	14
2.94967	14
2.95333	12
2.95700	13
2.96067	14
2.96433	12
2.96800	9
2.97167	9
2.97533	12
2.97900	17
2.98267	21
2.98633	22
2.99000	24
2.99367	25
2.99733	22
3.00100	17
3.00467	10
3.00833	4
3.01200	3
3.01567	3
3.01933	3
3.02300	5
3.02667	7
3.03033	8
3.03400	8
3.03767	10
3.04133	10
3.04500	6
3.04867	2
3.05233	1
3.05600	2
3.05967	2
3.06333	1
3.06700	-1
3.07067	-0
3.07433	0
3.07800	-2
3.08167	-4
3.08533	-3
3.08900	2
3.09267	6
3.09633	9
3.10000	9
3.10367	6
3.10733	-1
3.11100	-9
3.11467	-12
3.11833	-10
3.12200	-7
3.12567	-5
3.12933	-4
3.13300	-5
3.13667	-8
3.14033	-11
3.14400	-16
3.14767	-21
3.15133	-25
3.15500	-26
3.15867	-22
3.16233	-18
3.16600	-14
3.16967	-13
3.17333	-14
3.17700	-16
3.18067	-19
3.18433	-24
3.18800	-28
3.19167	-30
3.19533	-30
3.19900	-27
3.20267	-24
3.20633	-23
3.21000	-24
3.21367	-22
3.21733	-16
3.22100	-12
3.22467	-10
3.22833	-10
3.23200	-9
3.23567	-10
3.23933	-11
3.24300	-13
3.24667	-12
3.25033	-8
3.25400	-4
3.25767	0
3.26133	5
3.26500	4
3.26867	1
3.27233	-4
3.27600	-8
3.27967	-13
3.28333	-15
3.28700	-14
3.29067	-13
3.29433	-11
3.29800	-6
3.30167	-1
3.30533	1
3.30900	-4
3.31267	-12
3.31633	-18
3.32000	-22
3.32367	-26
3.32733	-30
3.33100	-34
3.33467	-37
3.33833	-33
3.34200	-28
3.34567	-23
3.34933	-19
3.35300	-17
3.35667	-18
3.36033	-22
3.36400	-27
3.36767	-33
3.37133	-37
3.37500	-38
3.37867	-37
3.38233	-37
3.38600	-37
3.38967	-34
3.39333	-31
3.39700	-32
3.40067	-31
3.40433	-28
3.40800	-25
3.41167	-23
3.41533	-21
3.41900	-21
3.42267	-26
3.42633	-30
3.43000	-31
3.43367	-32
3.43733	-36
3.44100	-39
3.44467	-38
3.44833	-39
3.45200	-38
3.45567	-36
3.45933	-35
3.46300	-38
3.46667	-42
3.47033	-44
3.47400	-44
3.47767	-44
3.48133	-47
3.48500	-51
3.48867	-52
3.49233	-48
3.49600	-40
3.49967	-28
3.50333	-17
3.50700	-9
3.51067	-10
3.51433	-14
3.51800	-20
3.52167	-26
3.52533	-30
3.52900	-31
3.53267	-30
3.53633	-28
3.54000	-26
3.54367	-26
3.54733	-27
3.55100	-31
3.55467	-31
3.55833	-30
3.56200	-29
3.56567	-28
3.56933	-28
3.57300	-28
3.57667	-25
3.58033	-22
3.58400	-21
3.58767	-23
3.59133	-27
3.59500	-31
3.59867	-31
3.60233	-29
3.60600	-29
3.60967	-31
3.61333	-36
3.61700	-42
3.62067	-47
3.62433	-48
3.62800	-44
3.63167	-36
3.63533	-27
3.63900	-23
3.64267	-24
3.64633	-26
3.65000	-28
3.65367	-31
3.65733	-32
3.66100	-35
3.66467	-37
3.66833	-37
3.67200	-35
3.67567	-31
3.67933	-28
3.68300	-24
3.68667	-24
3.69033	-26
3.69400	-29
3.69767	-33
3.70133	-38
3.70500	-42
3.70867	-47
3.71233	-47
3.71600	-43
3.71967	-39
3.72333	-37
3.72700	-38
3.73067	-41
3.73433	-43
3.73800	-43
3.74167	-42
3.74533	-40
3.74900	-37
3.75267	-35
3.75633	-37
3.76000	-42
3.76367	-47
3.76733	-53
3.77100	-58
3.77467	-60
3.77833	-58
3.78200	-54
3.78567	-53
3.78933	-55
3.79300	-57
3.79667	-56
3.80033	-53
3.80400	-46
3.80767	-38
3.81133	-32
3.81500	-31
3.81867	-34
3.82233	-36
3.82600	-38
3.82967	-41
3.83333	-42
3.83700	-43
3.84067	-45
3.84433	-52
3.84800	-61
3.85167	-67
3.85533	-72
3.85900	-75
3.86267	-74
3.86633	-68
3.87000	-57
3.87367	-43
3.87733	-30
3.88100	-21
3.88467	-15
3.88833	-16
3.89200	-25
3.89567	-34
3.89933	-40
3.90300	-42
3.90667	-41
3.91033	-40
3.91400	-41
3.91767	-42
3.92133	-44
3.92500	-48
3.92867	-49
3.93233	-52
3.93600	-55
3.93967	-59
3.94333	-61
3.94700	-59
3.95067	-53
3.95433	-46
3.95800	-43
3.96167	-43
3.96533	-47
3.96900	-54
3.97267	-61
3.97633	-65
3.98000	-65
3.98367	-60
3.98733	-53
3.99100	-49
3.99467	-47
3.99833	-50

[Chromatogram (Ch2)]
Interval(msec)	220
# of Points	1091
Start Time(min)	0.002
End Time(min)	3.998
R.Time (min)	Intensity
0.00167	-1
0.00533	-1
0.00900	-1
0.01267	-1
0.01633	-0
0.02000	-0
0.02367	-0
0.02733	0
0.03100	0
0.03467	1
0.03833	1
0.04200	1
0.04567	1
0.04933	1
0.05300	1
0.05667	1
0.06033	1
0.06400	1
0.06767	1
0.07133	1
0.07500	1
0.07867	0
0.08233	0
0.08600	0
0.08967	0
0.09333	0
0.09700	0
0.10067	0
0.10433	1
0.10800	1
0.11167	1
0.11533	1
0.11900	1
0.12267	1
0.12633	1
0.13000	1
0.13367	2
0.13733	2
0.14100	2
0.14467	2
0.14833	1
0.15200	1
0.15567	1
0.15933	1
0.16300	1
0.16667	1
0.17033	1
0.17400	1
0.17767	0
0.18133	0
0.18500	-0
0.18867	-0
0.19233	-0
0.19600	0
0.19967	0
0.20333	0
0.20700	0
0.21067	0
0.21433	0
0.21800	-0
0.22167	-0
0.22533	-0
0.22900	-1
0.23267	-1
0.23633	-1
0.24000	-1
0.24367	-1
0.24733	-1
0.25100	-1
0.25467	-1
0.25833	-1
0.26200	-1
0.26567	-1
0.26933	-1
0.27300	-1
0.27667	-0
0.28033	0
0.28400	0
0.28767	0
0.29133	0
0.29500	0
0.29867	1
0.30233	1
0.30600	1
0.30967	1
0.31333	1
0.31700	1
0.32067	1
0.32433	1
0.32800	1
0.33167	1
0.33533	1
0.33900	1
0.34267	1
0.34633	1
0.35000	1
0.35367	1
0.35733	1
0.36100	1
0.36467	1
0.36833	0
0.37200	-0
0.37567	-0
0.37933	-0
0.38300	-0
0.38667	-0
0.39033	0
0.39400	0
0.39767	0
0.40133	0
0.40500	0
0.40867	1
0.41233	1
0.41600	0
0.41967	0
0.42333	0
0.42700	0
0.43067	0
0.43433	0
0.43800	0
0.44167	0
0.44533	-0
0.44900	-0
0.45267	-0
0.45633	-0
0.46000	-0
0.46367	-0
0.46733	0
0.47100	0
0.47467	0
0.47833	-0
0.48200	-0
0.48567	-0
0.48933	-0
0.49300	-0
0.49667	-1
0.50033	-1
0.50400	-0
0.50767	-0
0.51133	-0
0.51500	-0
0.51867	-0
0.52233	-0
0.52600	-0
0.52967	-0
0.53333	-1
0.53700	-1
0.54067	-1
0.54433	-1
0.54800	-1
0.55167	-1
0.55533	-1
0.55900	-1
0.56267	-1
0.56633	-1
0.57000	-1
0.57367	-1
0.57733	-2
0.58100	-2
0.58467	-2
0.58833	-2
0.59200	-2
0.59567	-2
0.59933	-2
0.60300	-1
0.60667	-1
0.61033	-1
0.61400	-1
0.61767	-0
0.62133	-0
0.62500	0
0.62867	0
0.63233	0
0.63600	-0
0.63967	-0
0.64333	-1
0.64700	-1
0.65067	-1
0.65433	-1
0.65800	-1
0.66167	-1
0.66533	-1
0.66900	-1
0.67267	-1
0.67633	-1
0.68000	-1
0.68367	-0
0.68733	-0
0.69100	0
0.69467	0
0.69833	0
0.70200	0
0.70567	0
0.70933	0
0.71300	0
0.71667	0
0.72033	0
0.72400	0
0.72767	0
0.73133	0
0.73500	0
0.73867	0
0.74233	-0
0.74600	-0
0.74967	-0
0.75333	-0
0.75700	-1
0.76067	-1
0.76433	-1
0.76800	-1
0.77167	-1
0.77533	-1
0.77900	-1
0.78267	-1
0.78633	-1
0.79000	-1
0.79367	-2
0.79733	-2
0.80100	-1
0.80467	-1
0.80833	-1
0.81200	-1
0.81567	-0
0.81933	-0
0.82300	-0
0.82667	-0
0.83033	-1
0.83400	-1
0.83767	-1
0.84133	-1
0.84500	-2
0.84867	-2
0.85233	-2
0.85600	-2
0.85967	-2
0.86333	-2
0.86700	-1
0.87067	-1
0.87433	-1
0.87800	-1
0.88167	-1
0.88533	-2
0.88900	-2
0.89267	-2
0.89633	-2
0.90000	-3
0.90367	-3
0.90733	-2
0.91100	-2
0.91467	-2
0.91833	-2
0.92200	-1
0.92567	-1
0.92933	-1
0.93300	-1
0.93667	-2
0.94033	-2
0.94400	-2
0.94767	-2
0.95133	-2
0.95500	-2
0.95867	-2
0.96233	-2
0.96600	-2
0.96967	-2
0.97333	-2
0.97700	-2
0.98067	-2
0.98433	-1
0.98800	-1
0.99167	-1
0.99533	-1
0.99900	-1
1.00267	-1
1.00633	-2
1.01000	-2
1.01367	-2
1.01733	-2
1.02100	-2
1.02467	-2
1.02833	-2
1.03200	-1
1.03567	-1
1.03933	-1
1.04300	-1
1.04667	-1
1.05033	-1
1.05400	-1
1.05767	-1
1.06133	-1
1.06500	-1
1.06867	-1
1.07233	-1
1.07600	-1
1.07967	-1
1.08333	-1
1.08700	-1
1.09067	-1
1.09433	-1
1.09800	-1
1.10167	-1
1.10533	-1
1.10900	-1
1.11267	-1
1.11633	-1
1.12000	-1
1.12367	-1
1.12733	-1
1.13100	-1
1.13467	-2
1.13833	-2
1.14200	-2
1.14567	-2
1.14933	-2
1.15300	-2
1.15667	-2
1.16033	-2
1.16400	-2
1.16767	-2
1.17133	-2
1.17500	-1
1.17867	-1
1.18233	-2
1.18600	-2
1.18967	-2
1.19333	-2
1.19700	-2
1.20067	-2
1.20433	-2
1.20800	-2
1.21167	-2
1.21533	-1
1.21900	-1
1.22267	-1
1.22633	-1
1.23000	-1
1.23367	-1
1.23733	-2
1.24100	-2
1.24467	-2
1.24833	-2
1.25200	-2
1.25567	-3
1.25933	-3
1.26300	-3
1.26667	-3
1.27033	-3
1.27400	-2
1.27767	-2
1.28133	-2
1.28500	-2
1.28867	-2
1.29233	-2
1.29600	-1
1.29967	-1
1.30333	-1
1.30700	-1
1.31067	-1
1.31433	-1
1.31800	-1
1.32167	-2
1.32533	-2
1.32900	-2
1.33267	-2
1.33633	-2
1.34000	-2
1.34367	-2
1.34733	-2
1.35100	-2
1.35467	-2
1.35833	-2
1.36200	-2
1.36567	-2
1.36933	-1
1.37300	-1
1.37667	-1
1.38033	-1
1.38400	-2
1.38767	-2
1.39133	-2
1.39500	-2
1.39867	-2
1.40233	-2
1.40600	-1
1.40967	-1
1.41333	-1
1.41700	-1
1.42067	-1
1.42433	-1
1.42800	-1
1.43167	-2
1.43533	-2
1.43900	-2
1.44267	-2
1.44633	-1
1.45000	-1
1.45367	-1
1.45733	-1
1.46100	-1
1.46467	-1
1.46833	-1
1.47200	-1
1.47567	-1
1.47933	-1
1.48300	-1
1.48667	-1
1.49033	-1
1.49400	-2
1.49767	-2
1.50133	-2
1.50500	-2
1.50867	-2
1.51233	-2
1.51600	-3
1.51967	-2
1.52333	-2
1.52700	-2
1.53067	-2
1.53433	-2
1.53800	-2
1.54167	-2
1.54533	-3
1.54900	-3
1.55267	-3
1.55633	-3
1.56000	-3
1.56367	-3
1.56733	-3
1.57100	-3
1.57467	-3
1.57833	-3
1.58200	-3
1.58567	-3
1.58933	-3
1.59300	-3
1.59667	-3
1.60033	-4
1.60400	-4
1.60767	-6
1.61133	-7
1.61500	-9
1.61867	-11
1.62233	-14
1.62600	-17
1.62967	-19
1.63333	-23
1.63700	-26
1.64067	-30
1.64433	-33
1.64800	-36
1.65167	-40
1.65533	-43
1.65900	-46
1.66267	-50
1.66633	-53
1.67000	-58
1.67367	-62
1.67733	-67
1.68100	-72
1.68467	-76
1.68833	-81
1.69200	-84
1.69567	-87
1.69933	-90
1.70300	-92
1.70667	-93
1.71033	-95
1.71400	-95
1.71767	-96
1.72133	-96
1.72500	-96
1.72867	-96
1.73233	-96
1.73600	-96
1.73967	-96
1.74333	-95
1.74700	-95
1.75067	-95
1.75433	-96
1.75800	-96
1.76167	-97
1.76533	-97
1.76900	-98
1.77267	-99
1.77633	-99
1.78000	-100
1.78367	-100
1.78733	-101
1.79100	-101
1.79467	-101
1.79833	-101
1.80200	-101
1.80567	-101
1.80933	-101
1.81300	-101
1.81667	-101
1.82033	-101
1.82400	-101
1.82767	-102
1.83133	-101
1.83500	-101
1.83867	-101
1.84233	-100
1.84600	-99
1.84967	-98
1.85333	-98
1.85700	-98
1.86067	-98
1.86433	-98
1.86800	-98
1.87167	-98
1.87533	-98
1.87900	-98
1.88267	-98
1.88633	-98
1.89000	-99
1.89367	-99
1.89733	-99
1.90100	-99
1.90467	-99
1.90833	-99
1.91200	-98
1.91567	-98
1.91933	-98
1.92300	-97
1.92667	-97
1.93033	-97
1.93400	-97
1.93767	-97
1.94133	-97
1.94500	-97
1.94867	-96
1.95233	-96
1.95600	-96
1.95967	-95
1.96333	-95
1.96700	-94
1.97067	-93
1.97433	-92
1.97800	-91
1.98167	-91
1.98533	-91
1.98900	-92
1.99267	-92
1.99633	-92
2.00000	-93
2.00367	-92
2.00733	-92
2.01100	-92
2.01467	-92
2.01833	-91
2.02200	-91
2.02567	-91
2.02933	-91
2.03300	-90
2.03667	-90
2.04033	-90
2.04400	-90
2.04767	-90
2.05133	-89
2.05500	-88
2.05867	-88
2.06233	-88
2.06600	-88
2.06967	-88
2.07333	-88
2.07700	-88
2.08067	-88
2.08433	-87
2.08800	-87
2.09167	-86
2.09533	-86
2.09900	-85
2.10267	-85
2.10633	-85
2.11000	-85
2.11367	-85
2.11733	-85
2.12100	-84
2.12467	-84
2.12833	-83
2.13200	-82
2.13567	-81
2.13933	-81
2.14300	-80
2.14667	-80
2.15033	-80
2.15400	-80
2.15767	-80
2.16133	-80
2.16500	-80
2.16867	-79
2.17233	-79
2.17600	-79
2.17967	-79
2.18333	-79
2.18700	-79
2.19067	-78
2.19433	-78
2.19800	-78
2.20167	-77
2.20533	-77
2.20900	-77
2.21267	-76
2.21633	-76
2.22000	-76
2.22367	-77
2.22733	-77
2.23100	-77
2.23467	-76
2.23833	-76
2.24200	-75
2.24567	-75
2.24933	-74
2.25300	-74
2.25667	-73
2.26033	-72
2.26400	-72
2.26767	-71
2.27133	-71
2.27500	-71
2.27867	-72
2.28233	-72
2.28600	-73
2.28967	-73
2.29333	-73
2.29700	-73
2.30067	-73
2.30433	-72
2.30800	-72
2.31167	-72
2.31533	-72
2.31900	-71
2.32267	-71
2.32633	-70
2.33000	-69
2.33367	-68
2.33733	-67
2.34100	-66
2.34467	-66
2.34833	-66
2.35200	-66
2.35567	-66
2.35933	-65
2.36300	-65
2.36667	-64
2.37033	-63
2.37400	-61
2.37767	-59
2.38133	-56
2.38500	-53
2.38867	-49
2.39233	-45
2.39600	-41
2.39967	-36
2.40333	-32
2.40700	-27
2.41067	-22
2.41433	-18
2.41800	-14
2.42167	-10
2.42533	-7
2.42900	-4
2.43267	-2
2.43633	-0
2.44000	1
2.44367	2
2.44733	3
2.45100	4
2.45467	4
2.45833	5
2.46200	6
2.46567	7
2.46933	8
2.47300	9
2.47667	10
2.48033	11
2.48400	12
2.48767	12
2.49133	13
2.49500	14
2.49867	15
2.50233	16
2.50600	17
2.50967	18
2.51333	18
2.51700	18
2.52067	18
2.52433	18
2.52800	18
2.53167	19
2.53533	19
2.53900	19
2.54267	18
2.54633	18
2.55000	17
2.55367	16
2.55733	15
2.56100	14
2.56467	13
2.56833	12
2.57200	12
2.57567	12
2.57933	12
2.58300	13
2.58667	13
2.59033	14
2.59400	15
2.59767	15
2.60133	16
2.60500	16
2.60867	17
2.61233	17
2.61600	17
2.61967	18
2.62333	18
2.62700	18
2.63067	18
2.63433	18
2.63800	19
2.64167	19
2.64533	19
2.64900	19
2.65267	19
2.65633	19
2.66000	19
2.66367	20
2.66733	20
2.67100	20
2.67467	20
2.67833	20
2.68200	21
2.68567	21
2.68933	22
2.69300	22
2.69667	23
2.70033	24
2.70400	24
2.70767	24
2.71133	25
2.71500	25
2.71867	26
2.72233	26
2.72600	26
2.72967	27
2.73333	27
2.73700	27
2.74067	27
2.74433	27
2.74800	27
2.75167	27
2.75533	27
2.75900	27
2.76267	26
2.76633	26
2.77000	26
2.77367	26
2.77733	26
2.78100	26
2.78467	26
2.78833	26
2.79200	26
2.79567	25
2.79933	25
2.80300	25
2.80667	25
2.81033	25
2.81400	25
2.81767	25
2.82133	25
2.82500	25
2.82867	25
2.83233	25
2.83600	25
2.83967	25
2.84333	25
2.84700	25
2.85067	25
2.85433	24
2.85800	22
2.86167	19
2.86533	13
2.86900	4
2.87267	-9
2.87633	-26
2.88000	-49
2.88367	-77
2.88733	-110
2.89100	-149
2.89467	-193
2.89833	-241
2.90200	-295
2.90567	-351
2.90933	-412
2.91300	-474
2.91667	-538
2.92033	-603
2.92400	-668
2.92767	-732
2.93133	-794
2.93500	-852
2.93867	-908
2.94233	-962
2.94600	-1018
2.94967	-1069
2.95333	-1107
2.95700	-1124
2.96067	-1115
2.96433	-1082
2.96800	-1029
2.97167	-961
2.97533	-884
2.97900	-802
2.98267	-720
2.98633	-640
2.99000	-565
2.99367	-495
2.99733	-431
3.00100	-373
3.00467	-321
3.00833	-275
3.01200	-235
3.01567	-200
3.01933	-170
3.02300	-143
3.02667	-121
3.03033	-101
3.03400	-84
3.03767	-70
3.04133	-58
3.04500	-47
3.04867	-39
3.05233	-31
3.05600	-24
3.05967	-18
3.06333	-13
3.06700	-9
3.07067	-5
3.07433	-2
3.07800	1
3.08167	3
3.08533	5
3.08900	7
3.09267	9
3.09633	10
3.10000	12
3.10367	13
3.10733	14
3.11100	15
3.11467	16
3.11833	17
3.12200	18
3.12567	19
3.12933	20
3.13300	20
3.13667	21
3.14033	21
3.14400	21
3.14767	21
3.15133	22
3.15500	22
3.15867	22
3.16233	23
3.16600	23
3.16967	24
3.17333	24
3.17700	24
3.18067	24
3.18433	24
3.18800	24
3.19167	24
3.19533	24
3.19900	25
3.20267	25
3.20633	25
3.21000	25
3.21367	25
3.21733	25
3.22100	25
3.22467	25
3.22833	26
3.23200	26
3.23567	26
3.23933	26
3.24300	26
3.24667	26
3.25033	26
3.25400	26
3.25767	26
3.26133	26
3.26500	26
3.26867	26
3.27233	26
3.27600	26
3.27967	26
3.28333	26
3.28700	26
3.29067	26
3.29433	27
3.29800	27
3.30167	26
3.30533	26
3.30900	26
3.31267	26
3.31633	26
3.32000	26
3.32367	26
3.32733	26
3.33100	26
3.33467	27
3.33833	27
3.34200	27
3.34567	27
3.34933	27
3.35300	27
3.35667	27
3.36033	27
3.36400	27
3.36767	28
3.37133	28
3.37500	28
3.37867	28
3.38233	28
3.38600	28
3.38967	28
3.39333	28
3.39700	28
3.40067	28
3.40433	28
3.40800	28
3.41167	29
3.41533	29
3.41900	29
3.42267	29
3.42633	29
3.43000	29
3.43367	29
3.43733	29
3.44100	29
3.44467	29
3.44833	29
3.45200	29
3.45567	29
3.45933	29
3.46300	29
3.46667	29
3.47033	29
3.47400	29
3.47767	29
3.48133	29
3.48500	29
3.48867	29
3.49233	29
3.49600	29
3.49967	29
3.50333	29
3.50700	29
3.51067	29
3.51433	29
3.51800	30
3.52167	30
3.52533	30
3.52900	29
3.53267	29
3.53633	29
3.54000	29
3.54367	29
3.54733	29
3.55100	29
3.55467	29
3.55833	29
3.56200	29
3.56567	29
3.56933	29
3.57300	29
3.57667	29
3.58033	29
3.58400	29
3.58767	29
3.59133	29
3.59500	29
3.59867	29
3.60233	29
3.60600	29
3.60967	29
3.61333	29
3.61700	30
3.62067	30
3.62433	30
3.62800	30
3.63167	30
3.63533	30
3.63900	30
3.64267	30
3.64633	30
3.65000	30
3.65367	30
3.65733	30
3.66100	30
3.66467	30
3.66833	30
3.67200	30
3.67567	30
3.67933	30
3.68300	30
3.68667	30
3.69033	30
3.69400	30
3.69767	30
3.70133	31
3.70500	30
3.70867	30
3.71233	30
3.71600	30
3.71967	30
3.72333	30
3.72700	30
3.73067	30
3.73433	30
3.73800	30
3.74167	30
3.74533	30
3.74900	30
3.75267	30
3.75633	30
3.76000	30
3.76367	30
3.76733	30
3.77100	30
3.77467	30
3.77833	30
3.78200	30
3.78567	30
3.78933	30
3.79300	30
3.79667	29
3.80033	29
3.80400	29
3.80767	29
3.81133	29
3.81500	29
3.81867	29
3.82233	29
3.82600	29
3.82967	29
3.83333	29
3.83700	29
3.84067	29
3.84433	29
3.84800	29
3.85167	29
3.85533	29
3.85900	29
3.86267	29
3.86633	29
3.87000	29
3.87367	29
3.87733	29
3.88100	29
3.88467	29
3.88833	29
3.89200	29
3.89567	29
3.89933	29
3.90300	30
3.90667	30
3.91033	30
3.91400	30
3.91767	30
3.92133	31
3.92500	31
3.92867	31
3.93233	31
3.93600	31
3.93967	30
3.94333	30
3.94700	30
3.95067	30
3.95433	30
3.95800	30
3.96167	30
3.96533	30
3.96900	30
3.97267	30
3.97633	30
3.98000	30
3.98367	30
3.98733	30
3.99100	30
3.99467	30
3.99833	31

[Chromatogram (Ch3)]
Interval(msec)	220
# of Points	1091
Start Time(min)	0.002
End Time(min)	3.998
R.Time (min)	Intensity
0.00167	0
0.00533	-0
0.00900	1
0.01267	3
0.01633	2
0.02000	1
0.02367	-1
0.02733	-5
0.03100	-5
0.03467	-5
0.03833	-5
0.04200	-5
0.04567	-7
0.04933	-11
0.05300	-12
0.05667	-11
0.06033	-7
0.06400	-7
0.06767	-6
0.07133	-4
0.07500	-5
0.07867	-5
0.08233	-4
0.08600	-4
0.08967	-4
0.09333	-2
0.09700	-2
0.10067	-1
0.10433	-1
0.10800	-4
0.11167	-6
0.11533	-8
0.11900	-10
0.12267	-10
0.12633	-9
0.13000	-9
0.13367	-5
0.13733	-5
0.14100	-5
0.14467	-4
0.14833	-5
0.15200	-4
0.15567	-3
0.15933	-5
0.16300	-6
0.16667	-5
0.17033	-5
0.17400	-6
0.17767	-8
0.18133	-12
0.18500	-11
0.18867	-9
0.19233	-6
0.19600	-3
0.19967	-2
0.20333	-2
0.20700	-0
0.21067	2
0.21433	1
0.21800	1
0.22167	-0
0.22533	-2
0.22900	-3
0.23267	-5
0.23633	-7
0.24000	-9
0.24367	-11
0.24733	-10
0.25100	-8
0.25467	-7
0.25833	-6
0.26200	-5
0.26567	-6
0.26933	-5
0.27300	-6
0.27667	-6
0.28033	-6
0.28400	-8
0.28767	-8
0.29133	-8
0.29500	-8
0.29867	-5
0.30233	-3
0.30600	-4
0.30967	-2
0.31333	-1
0.31700	-2
0.32067	-2
0.32433	-1
0.32800	-1
0.33167	-2
0.33533	-2
0.33900	-5
0.34267	-5
0.34633	-3
0.35000	-2
0.35367	-3
0.35733	-4
0.36100	-6
0.36467	-7
0.36833	-8
0.37200	-7
0.37567	-5
0.37933	-5
0.38300	-7
0.38667	-8
0.39033	-8
0.39400	-7
0.39767	-6
0.40133	-5
0.40500	-5
0.40867	-5
0.41233	-6
0.41600	-5
0.41967	-5
0.42333	-4
0.42700	-3
0.43067	-4
0.43433	-5
0.43800	-3
0.44167	-2
0.44533	-2
0.44900	-1
0.45267	1
0.45633	-1
0.46000	-1
0.46367	-2
0.46733	-2
0.47100	-2
0.47467	1
0.47833	2
0.48200	1
0.48567	1
0.48933	1
0.49300	-1
0.49667	-1
0.50033	-0
0.50400	-0
0.50767	1
0.51133	-3
0.51500	-7
0.51867	-7
0.52233	-8
0.52600	-8
0.52967	-7
0.53333	-7
0.53700	-5
0.54067	-4
0.54433	-5
0.54800	-4
0.55167	-3
0.55533	-4
0.55900	-4
0.56267	-4
0.56633	-2
0.57000	0
0.57367	5
0.57733	6
0.58100	4
0.58467	1
0.58833	-2
0.59200	-4
0.59567	-4
0.59933	-4
0.60300	-3
0.60667	-2
0.61033	-3
0.61400	-4
0.61767	-4
0.62133	-5
0.62500	-5
0.62867	-4
0.63233	-4
0.63600	-2
0.63967	0
0.64333	-0
0.64700	-1
0.65067	-2
0.65433	-2
0.65800	-3
0.66167	-2
0.66533	-2
0.66900	-2
0.67267	-3
0.67633	-5
0.68000	-4
0.68367	-2
0.68733	-2
0.69100	-1
0.69467	0
0.69833	0
0.70200	-1
0.70567	-1
0.70933	-1
0.71300	-3
0.71667	-4
0.72033	-5
0.72400	-6
0.72767	-5
0.73133	-6
0.73500	-6
0.73867	-5
0.74233	-5
0.74600	-4
0.74967	-2
0.75333	-1
0.75700	-2
0.76067	-3
0.76433	-3
0.76800	-4
0.77167	-3
0.77533	-3
0.77900	-3
0.78267	-0
0.78633	2
0.79000	1
0.79367	2
0.79733	0
0.80100	-2
0.80467	-6
0.80833	-10
0.81200	-9
0.81567	-6
0.81933	-5
0.82300	-5
0.82667	-6
0.83033	-7
0.83400	-6
0.83767	-3
0.84133	-3
0.84500	-3
0.84867	-3
0.85233	-3
0.85600	-4
0.85967	-4
0.86333	-4
0.86700	-5
0.87067	-6
0.87433	-7
0.87800	-6
0.88167	-5
0.88533	-5
0.88900	-3
0.89267	-2
0.89633	-1
0.90000	2
0.90367	4
0.90733	3
0.91100	2
0.91467	1
0.91833	-1
0.92200	-1
0.92567	-1
0.92933	-4
0.93300	-4
0.93667	-2
0.94033	-2
0.94400	-1
0.94767	1
0.95133	1
0.95500	2
0.95867	4
0.96233	6
0.96600	6
0.96967	5
0.97333	4
0.97700	1
0.98067	-1
0.98433	-0
0.98800	-1
0.99167	-1
0.99533	0
0.99900	1
1.00267	1
1.00633	3
1.01000	6
1.01367	6
1.01733	5
1.02100	3
1.02467	2
1.02833	-1
1.03200	-1
1.03567	-0
1.03933	0
1.04300	2
1.04667	2
1.05033	2
1.05400	4
1.05767	3
1.06133	1
1.06500	-2
1.06867	-2
1.07233	-1
1.07600	-1
1.07967	2
1.08333	2
1.08700	1
1.09067	0
1.09433	-1
1.09800	-2
1.10167	-1
1.10533	-2
1.10900	-4
1.11267	-4
1.11633	-2
1.12000	-0
1.12367	1
1.12733	1
1.13100	-0
1.13467	-1
1.13833	1
1.14200	3
1.14567	2
1.14933	2
1.15300	1
1.15667	-1
1.16033	-1
1.16400	-0
1.16767	-0
1.17133	0
1.17500	2
1.17867	4
1.18233	6
1.18600	6
1.18967	6
1.19333	5
1.19700	3
1.20067	5
1.20433	6
1.20800	7
1.21167	10
1.21533	12
1.21900	11
1.22267	9
1.22633	7
1.23000	7
1.23367	8
1.23733	8
1.24100	9
1.24467	11
1.24833	10
1.25200	9
1.25567	8
1.25933	7
1.26300	6
1.26667	7
1.27033	8
1.27400	9
1.27767	7
1.28133	4
1.28500	3
1.28867	2
1.29233	1
1.29600	3
1.29967	5
1.30333	6
1.30700	7
1.31067	10
1.31433	10
1.31800	10
1.32167	10
1.32533	12
1.32900	15
1.33267	14
1.33633	13
1.34000	12
1.34367	9
1.34733	7
1.35100	6
1.35467	6
1.35833	7
1.36200	6
1.36567	5
1.36933	4
1.37300	3
1.37667	4
1.38033	6
1.38400	6
1.38767	6
1.39133	7
1.39500	7
1.39867	6
1.40233	6
1.40600	8
1.40967	8
1.41333	7
1.41700	5
1.42067	4
1.42433	4
1.42800	4
1.43167	6
1.43533	5
1.43900	5
1.44267	6
1.44633	5
1.45000	5
1.45367	6
1.45733	7
1.46100	8
1.46467	5
1.46833	4
1.47200	4
1.47567	4
1.47933	7
1.48300	8
1.48667	7
1.49033	4
1.49400	4
1.49767	5
1.50133	6
1.50500	6
1.50867	8
1.51233	7
1.51600	5
1.51967	3
1.52333	4
1.52700	5
1.53067	4
1.53433	4
1.53800	6
1.54167	7
1.54533	5
1.54900	5
1.55267	5
1.55633	5
1.56000	5
1.56367	7
1.56733	9
1.57100	7
1.57467	3
1.57833	1
1.58200	-2
1.58567	-1
1.58933	2
1.59300	1
1.59667	2
1.60033	4
1.60400	6
1.60767	5
1.61133	4
1.61500	5
1.61867	6
1.62233	6
1.62600	9
1.62967	13
1.63333	14
1.63700	12
1.64067	13
1.64433	14
1.64800	13
1.65167	10
1.65533	9
1.65900	10
1.66267	11
1.66633	11
1.67000	10
1.67367	11
1.67733	11
1.68100	12
1.68467	14
1.68833	14
1.69200	16
1.69567	19
1.69933	19
1.70300	15
1.70667	13
1.71033	11
1.71400	9
1.71767	11
1.72133	14
1.72500	15
1.72867	15
1.73233	16
1.73600	17
1.73967	17
1.74333	18
1.74700	18
1.75067	17
1.75433	16
1.75800	16
1.76167	18
1.76533	17
1.76900	16
1.77267	17
1.77633	17
1.78000	18
1.78367	19
1.78733	19
1.79100	20
1.79467	22
1.79833	24
1.80200	26
1.80567	24
1.80933	23
1.81300	23
1.81667	24
1.82033	24
1.82400	24
1.82767	22
1.83133	22
1.83500	21
1.83867	19
1.84233	20
1.84600	20
1.84967	20
1.85333	20
1.85700	22
1.86067	21
1.86433	23
1.86800	25
1.87167	25
1.87533	23
1.87900	21
1.88267	21
1.88633	22
1.89000	25
1.89367	27
1.89733	29
1.90100	28
1.90467	27
1.90833	27
1.91200	25
1.91567	26
1.91933	29
1.92300	30
1.92667	33
1.93033	33
1.93400	30
1.93767	30
1.94133	31
1.94500	34
1.94867	35
1.95233	36
1.95600	36
1.95967	37
1.96333	37
1.96700	35
1.97067	35
1.97433	37
1.97800	38
1.98167	36
1.98533	35
1.98900	34
1.99267	34
1.99633	37
2.00000	38
2.00367	38
2.00733	39
2.01100	39
2.01467	38
2.01833	36
2.02200	36
2.02567	36
2.02933	37
2.03300	37
2.03667	38
2.04033	39
2.04400	39
2.04767	39
2.05133	41
2.05500	44
2.05867	45
2.06233	46
2.06600	46
2.06967	46
2.07333	46
2.07700	48
2.08067	48
2.08433	47
2.08800	47
2.09167	48
2.09533	49
2.09900	49
2.10267	50
2.10633	54
2.11000	57
2.11367	60
2.11733	63
2.12100	66
2.12467	66
2.12833	63
2.13200	60
2.13567	59
2.13933	58
2.14300	59
2.14667	63
2.15033	64
2.15400	66
2.15767	68
2.16133	68
2.16500	70
2.16867	71
2.17233	71
2.17600	71
2.17967	73
2.18333	74
2.18700	73
2.19067	72
2.19433	73
2.19800	75
2.20167	75
2.20533	74
2.20900	73
2.21267	73
2.21633	75
2.22000	77
2.22367	78
2.22733	79
2.23100	82
2.23467	84
2.23833	84
2.24200	81
2.24567	79
2.24933	80
2.25300	81
2.25667	80
2.26033	80
2.26400	84
2.26767	86
2.27133	88
2.27500	87
2.27867	87
2.28233	86
2.28600	86
2.28967	85
2.29333	87
2.29700	88
2.30067	89
2.30433	89
2.30800	91
2.31167	93
2.31533	93
2.31900	93
2.32267	94
2.32633	94
2.33000	93
2.33367	95
2.33733	95
2.34100	93
2.34467	95
2.34833	96
2.35200	99
2.35567	99
2.35933	98
2.36300	98
2.36667	100
2.37033	101
2.37400	102
2.37767	103
2.38133	102
2.38500	96
2.38867	89
2.39233	89
2.39600	94
2.39967	101
2.40333	108
2.40700	112
2.41067	116
2.41433	118
2.41800	120
2.42167	122
2.42533	124
2.42900	125
2.43267	126
2.43633	125
2.44000	129
2.44367	175
2.44733	253
2.45100	324
2.45467	378
2.45833	398
2.46200	392
2.46567	377
2.46933	366
2.47300	358
2.47667	346
2.48033	328
2.48400	307
2.48767	284
2.49133	263
2.49500	247
2.49867	238
2.50233	236
2.50600	239
2.50967	247
2.51333	254
2.51700	257
2.52067	254
2.52433	248
2.52800	242
2.53167	230
2.53533	217
2.53900	202
2.54267	189
2.54633	179
2.55000	171
2.55367	167
2.55733	165
2.56100	163
2.56467	161
2.56833	161
2.57200	163
2.57567	167
2.57933	170
2.58300	175
2.58667	184
2.59033	192
2.59400	200
2.59767	211
2.60133	219
2.60500	226
2.60867	231
2.61233	234
2.61600	235
2.61967	233
2.62333	227
2.62700	217
2.63067	208
2.63433	198
2.63800	189
2.64167	179
2.64533	172
2.64900	166
2.65267	160
2.65633	154
2.66000	149
2.66367	144
2.66733	139
2.67100	135
2.67467	131
2.67833	127
2.68200	125
2.68567	125
2.68933	127
2.69300	128
2.69667	129
2.70033	130
2.70400	129
2.70767	125
2.71133	123
2.71500	120
2.71867	122
2.72233	122
2.72600	122
2.72967	122
2.73333	124
2.73700	129
2.74067	135
2.74433	140
2.74800	142
2.75167	143
2.75533	144
2.75900	147
2.76267	150
2.76633	153
2.77000	155
2.77367	160
2.77733	161
2.78100	160
2.78467	161
2.78833	163
2.79200	166
2.79567	171
2.79933	175
2.80300	180
2.80667	183
2.81033	187
2.81400	190
2.81767	189
2.82133	187
2.82500	186
2.82867	188
2.83233	191
2.83600	197
2.83967	214
2.84333	256
2.84700	338
2.85067	481
2.85433	701
2.85800	1007
2.86167	1398
2.86533	1859
2.86900	2358
2.87267	2860
2.87633	3321
2.88000	3700
2.88367	3970
2.88733	4119
2.89100	4142
2.89467	4055
2.89833	3882
2.90200	3648
2.90567	3374
2.90933	3078
2.91300	2782
2.91667	2492
2.92033	2218
2.92400	1964
2.92767	1735
2.93133	1528
2.93500	1345
2.93867	1184
2.94233	1042
2.94600	917
2.94967	807
2.95333	712
2.95700	634
2.96067	567
2.96433	508
2.96800	455
2.97167	410
2.97533	372
2.97900	340
2.98267	312
2.98633	288
2.99000	268
2.99367	251
2.99733	235
3.00100	221
3.00467	209
3.00833	200
3.01200	192
3.01567	186
3.01933	181
3.02300	177
3.02667	175
3.03033	170
3.03400	166
3.03767	162
3.04133	161
3.04500	161
3.04867	157
3.05233	153
3.05600	149
3.05967	149
3.06333	152
3.06700	154
3.07067	155
3.07433	156
3.07800	156
3.08167	153
3.08533	150
3.08900	152
3.09267	152
3.09633	154
3.10000	155
3.10367	153
3.10733	152
3.11100	154
3.11467	157
3.11833	159
3.12200	159
3.12567	160
3.12933	160
3.13300	159
3.13667	159
3.14033	160
3.14400	162
3.14767	160
3.15133	160
3.15500	172
3.15867	200
3.16233	242
3.16600	294
3.16967	356
3.17333	429
3.17700	507
3.18067	589
3.18433	669
3.18800	744
3.19167	811
3.19533	869
3.19900	916
3.20267	955
3.20633	986
3.21000	1009
3.21367	1029
3.21733	1045
3.22100	1058
3.22467	1069
3.22833	1077
3.23200	1081
3.23567	1085
3.23933	1087
3.24300	1089
3.24667	1086
3.25033	1084
3.25400	1084
3.25767	1084
3.26133	1081
3.26500	1078
3.26867	1073
3.27233	1068
3.27600	1065
3.27967	1063
3.28333	1061
3.28700	1056
3.29067	1049
3.29433	1042
3.29800	1034
3.30167	1027
3.30533	1023
3.30900	1020
3.31267	1014
3.31633	1009
3.32000	1004
3.32367	999
3.32733	995
3.33100	989
3.33467	984
3.33833	980
3.34200	973
3.34567	966
3.34933	961
3.35300	958
3.35667	952
3.36033	944
3.36400	940
3.36767	938
3.37133	934
3.37500	931
3.37867	927
3.38233	922
3.38600	916
3.38967	912
3.39333	909
3.39700	906
3.40067	904
3.40433	903
3.40800	902
3.41167	903
3.41533	901
3.41900	898
3.42267	897
3.42633	894
3.43000	891
3.43367	890
3.43733	887
3.44100	886
3.44467	885
3.44833	884
3.45200	882
3.45567	878
3.45933	874
3.46300	873
3.46667	871
3.47033	869
3.47400	868
3.47767	869
3.48133	868
3.48500	866
3.48867	864
3.49233	863
3.49600	863
3.49967	863
3.50333	862
3.50700	862
3.51067	862
3.51433	858
3.51800	854
3.52167	853
3.52533	855
3.52900	855
3.53267	854
3.53633	854
3.54000	856
3.54367	857
3.54733	857
3.55100	860
3.55467	863
3.55833	864
3.56200	865
3.56567	864
3.56933	861
3.57300	859
3.57667	858
3.58033	856
3.58400	855
3.58767	854
3.59133	854
3.59500	853
3.59867	852
3.60233	851
3.60600	850
3.60967	848
3.61333	841
3.61700	836
3.62067	833
3.62433	830
3.62800	826
3.63167	822
3.63533	819
3.63900	814
3.64267	811
3.64633	807
3.65000	804
3.65367	799
3.65733	793
3.66100	789
3.66467	785
3.66833	784
3.67200	782
3.67567	777
3.67933	771
3.68300	766
3.68667	764
3.69033	763
3.69400	760
3.69767	758
3.70133	758
3.70500	755
3.70867	750
3.71233	746
3.71600	741
3.71967	735
3.72333	732
3.72700	731
3.73067	728
3.73433	726
3.73800	721
3.74167	717
3.74533	715
3.74900	714
3.75267	712
3.75633	711
3.76000	709
3.76367	707
3.76733	705
3.77100	706
3.77467	705
3.77833	705
3.78200	704
3.78567	700
3.78933	695
3.79300	692
3.79667	690
3.80033	690
3.80400	690
3.80767	689
3.81133	687
3.81500	685
3.81867	683
3.82233	682
3.82600	682
3.82967	681
3.83333	678
3.83700	676
3.84067	674
3.84433	673
3.84800	673
3.85167	673
3.85533	673
3.85900	672
3.86267	669
3.86633	668
3.87000	666
3.87367	662
3.87733	660
3.88100	658
3.88467	657
3.88833	656
3.89200	655
3.89567	652
3.89933	650
3.90300	650
3.90667	649
3.91033	649
3.91400	649
3.91767	648
3.92133	645
3.92500	642
3.92867	637
3.93233	633
3.93600	632
3.93967	633
3.94333	632
3.94700	629
3.95067	632
3.95433	634
3.95800	633
3.96167	631
3.96533	629
3.96900	626
3.97267	623
3.97633	621
3.98000	619
3.98367	617
3.98733	616
3.99100	616
3.99467	612
3.99833	603

[Status Trace (Column Oven Temperature)]
Interval(msec)	1000
# of Points	240
Start Time(min)	0.005
End Time(min)	3.989
Intensity Units	
Intensity Multiplier	1
R.Time (min)	Intensity
0.00533	35.05
0.02200	35.04
0.03867	35.05
0.05533	35.04
0.07200	35.05
0.08867	35.04
0.10533	35.04
0.12200	35.04
0.13867	35.04
0.15533	35.03
0.17200	35.04
0.18867	35.03
0.20533	35.03
0.22200	35.04
0.23867	35.03
0.25533	35.03
0.27200	35.04
0.28867	35.03
0.30533	35.03
0.32200	35.02
0.33867	35.02
0.35533	35.01
0.37200	35.00
0.38867	35.01
0.40533	35.01
0.42200	35.02
0.43867	35.01
0.45533	35.00
0.47200	35.00
0.48867	35.00
0.50533	35.00
0.52200	35.00
0.53867	34.99
0.55533	35.00
0.57200	35.00
0.58867	35.01
0.60533	35.01
0.62200	35.01
0.63867	35.01
0.65533	35.01
0.67200	35.01
0.68867	35.00
0.70533	35.00
0.72200	35.00
0.73867	35.00
0.75533	35.00
0.77200	34.99
0.78867	34.98
0.80533	34.98
0.82200	34.98
0.83867	34.98
0.85533	34.99
0.87200	34.99
0.88867	34.99
0.90533	34.99
0.92200	34.99
0.93867	34.99
0.95533	34.98
0.97200	34.98
0.98867	34.99
1.00533	34.99
1.02200	34.99
1.03867	34.99
1.05533	34.99
1.07200	35.00
1.08867	35.00
1.10533	35.00
1.12200	35.00
1.13867	35.00
1.15533	35.00
1.17200	34.99
1.18867	34.99
1.20533	34.99
1.22200	34.98
1.23867	34.99
1.25533	34.99
1.27200	34.99
1.28867	34.99
1.30533	34.99
1.32200	34.99
1.33867	34.99
1.35533	34.99
1.37200	34.99
1.38867	35.00
1.40533	35.00
1.42200	35.00
1.43867	34.99
1.45533	34.98
1.47200	34.98
1.48867	34.98
1.50533	34.99
1.52200	34.98
1.53867	34.99
1.55533	34.99
1.57200	34.99
1.58867	35.00
1.60533	35.05
1.62200	35.16
1.63867	35.34
1.65533	35.57
1.67200	35.89
1.68867	36.27
1.70533	36.63
1.72200	36.96
1.73867	37.29
1.75533	37.62
1.77200	37.96
1.78867	38.30
1.80533	38.63
1.82200	38.97
1.83867	39.28
1.85533	39.60
1.87200	39.93
1.88867	40.27
1.90533	40.60
1.92200	40.93
1.93867	41.26
1.95533	41.59
1.97200	41.88
1.98867	42.22
2.00533	42.54
2.02200	42.87
2.03867	43.21
2.05533	43.51
2.07200	43.86
2.08867	44.18
2.10533	44.51
2.12200	44.84
2.13867	45.15
2.15533	45.49
2.17200	45.80
2.18867	46.13
2.20533	46.46
2.22200	46.79
2.23867	47.12
2.25533	47.44
2.27200	47.77
2.28867	48.11
2.30533	48.44
2.32200	48.79
2.33867	49.10
2.35533	49.42
2.37200	49.68
2.38867	49.78
2.40533	49.79
2.42200	49.78
2.43867	49.77
2.45533	49.80
2.47200	49.80
2.48867	49.81
2.50533	49.80
2.52200	49.82
2.53867	49.80
2.55533	49.82
2.57200	49.82
2.58867	49.84
2.60533	49.83
2.62200	49.85
2.63867	49.85
2.65533	49.86
2.67200	49.88
2.68867	49.88
2.70533	49.87
2.72200	49.86
2.73867	49.86
2.75533	49.87
2.77200	49.89
2.78867	49.90
2.80533	49.90
2.82200	49.92
2.83867	49.94
2.85533	49.96
2.87200	49.96
2.88867	49.97
2.90533	49.98
2.92200	50.00
2.93867	50.00
2.95533	50.01
2.97200	50.02
2.98867	50.04
3.00533	50.05
3.02200	50.06
3.03867	50.08
3.05533	50.10
3.07200	50.11
3.08867	50.11
3.10533	50.10
3.12200	50.08
3.13867	50.07
3.15533	50.06
3.17200	50.06
3.18867	50.06
3.20533	50.05
3.22200	50.05
3.23867	50.04
3.25533	50.05
3.27200	50.06
3.28867	50.06
3.30533	50.06
3.32200	50.06
3.33867	50.06
3.35533	50.06
3.37200	50.07
3.38867	50.06
3.40533	50.07
3.42200	50.07
3.43867	50.07
3.45533	50.08
3.47200	50.08
3.48867	50.08
3.50533	50.09
3.52200	50.08
3.53867	50.10
3.55533	50.09
3.57200	50.10
3.58867	50.09
3.60533	50.10
3.62200	50.09
3.63867	50.08
3.65533	50.08
3.67200	50.08
3.68867	50.08
3.70533	50.08
3.72200	50.08
3.73867	50.08
3.75533	50.08
3.77200	50.08
3.78867	50.08
3.80533	50.08
3.82200	50.08
3.83867	50.08
3.85533	50.08
3.87200	50.09
3.88867	50.09
3.90533	50.08
3.92200	50.08
3.93867	50.08
3.95533	50.08
3.97200	50.08
3.98867	50.08

[Status Trace (Injection Unit Temperature)]
Interval(msec)	1000
# of Points	240
Start Time(min)	0.005
End Time(min)	3.989
Intensity Units	
Intensity Multiplier	1
R.Time (min)	Intensity
0.00533	99.97
0.02200	99.97
0.03867	99.97
0.05533	99.97
0.07200	99.97
0.08867	99.97
0.10533	99.98
0.12200	99.97
0.13867	99.98
0.15533	99.97
0.17200	99.97
0.18867	99.97
0.20533	99.98
0.22200	99.98
0.23867	99.98
0.25533	99.98
0.27200	99.98
0.28867	99.98
0.30533	99.98
0.32200	99.98
0.33867	99.98
0.35533	99.98
0.37200	99.98
0.38867	99.98
0.40533	99.98
0.42200	99.98
0.43867	99.98
0.45533	99.98
0.47200	99.98
0.48867	99.98
0.50533	99.98
0.52200	99.98
0.53867	99.98
0.55533	99.98
0.57200	99.99
0.58867	99.98
0.60533	99.99
0.62200	99.98
0.63867	99.98
0.65533	99.98
0.67200	99.98
0.68867	99.98
0.70533	99.98
0.72200	99.99
0.73867	99.98
0.75533	99.98
0.77200	99.99
0.78867	99.98
0.80533	99.98
0.82200	99.98
0.83867	99.98
0.85533	99.98
0.87200	99.98
0.88867	99.98
0.90533	99.98
0.92200	99.98
0.93867	99.99
0.95533	99.98
0.97200	99.98
0.98867	99.98
1.00533	99.99
1.02200	99.99
1.03867	99.98
1.05533	99.98
1.07200	99.98
1.08867	99.98
1.10533	99.98
1.12200	99.98
1.13867	99.98
1.15533	99.98
1.17200	99.98
1.18867	99.98
1.20533	99.98
1.22200	99.98
1.23867	99.98
1.25533	99.98
1.27200	99.98
1.28867	99.98
1.30533	99.98
1.32200	99.98
1.33867	99.98
1.35533	99.98
1.37200	99.98
1.38867	99.98
1.40533	99.98
1.42200	99.98
1.43867	99.98
1.45533	99.98
1.47200	99.98
1.48867	99.98
1.50533	99.98
1.52200	99.98
1.53867	99.98
1.55533	99.98
1.57200	99.98
1.58867	99.98
1.60533	99.98
1.62200	99.99
1.63867	99.98
1.65533	99.98
1.67200	99.98
1.68867	99.98
1.70533	99.99
1.72200	99.99
1.73867	99.99
1.75533	99.98
1.77200	99.98
1.78867	99.98
1.80533	99.98
1.82200	99.98
1.83867	99.98
1.85533	99.98
1.87200	99.98
1.88867	99.98
1.90533	99.98
1.92200	99.98
1.93867	99.98
1.95533	99.97
1.97200	99.97
1.98867	99.97
2.00533	99.97
2.02200	99.98
2.03867	99.97
2.05533	99.97
2.07200	99.97
2.08867	99.97
2.10533	99.97
2.12200	99.97
2.13867	99.96
2.15533	99.96
2.17200	99.96
2.18867	99.96
2.20533	99.96
2.22200	99.96
2.23867	99.96
2.25533	99.96
2.27200	99.96
2.28867	99.95
2.30533	99.96
2.32200	99.96
2.33867	99.95
2.35533	99.95
2.37200	99.95
2.38867	99.96
2.40533	99.96
2.42200	99.96
2.43867	99.96
2.45533	99.96
2.47200	99.96
2.48867	99.96
2.50533	99.96
2.52200	99.96
2.53867	99.96
2.55533	99.96
2.57200	99.96
2.58867	99.96
2.60533	99.96
2.62200	99.97
2.63867	99.97
2.65533	99.97
2.67200	99.97
2.68867	99.97
2.70533	99.97
2.72200	99.98
2.73867	99.98
2.75533	99.98
2.77200	99.99
2.78867	99.99
2.80533	99.99
2.82200	99.99
2.83867	99.99
2.85533	99.99
2.87200	99.99
2.88867	100.00
2.90533	100.00
2.92200	100.00
2.93867	100.00
2.95533	100.00
2.97200	100.01
2.98867	100.01
3.00533	100.01
3.02200	100.01
3.03867	100.01
3.05533	100.01
3.07200	100.02
3.08867	100.01
3.10533	100.02
3.12200	100.01
3.13867	100.02
3.15533	100.02
3.17200	100.02
3.18867	100.02
3.20533	100.02
3.22200	100.02
3.23867	100.02
3.25533	100.02
3.27200	100.02
3.28867	100.02
3.30533	100.02
3.32200	100.02
3.33867	100.02
3.35533	100.02
3.37200	100.02
3.38867	100.02
3.40533	100.03
3.42200	100.03
3.43867	100.02
3.45533	100.02
3.47200	100.02
3.48867	100.03
3.50533	100.03
3.52200	100.03
3.53867	100.03
3.55533	100.03
3.57200	100.03
3.58867	100.03
3.60533	100.03
3.62200	100.03
3.63867	100.03
3.65533	100.03
3.67200	100.03
3.68867	100.03
3.70533	100.03
3.72200	100.03
3.73867	100.03
3.75533	100.03
3.77200	100.04
3.78867	100.03
3.80533	100.03
3.82200	100.03
3.83867	100.04
3.85533	100.04
3.87200	100.04
3.88867	100.03
3.90533	100.04
3.92200	100.04
3.93867	100.04
3.95533	100.04
3.97200	100.04
3.98867	100.04

[Status Trace (Carrier Gas Pressure)]
Interval(msec)	1000
# of Points	240
Start Time(min)	0.005
End Time(min)	3.989
Intensity Units	
Intensity Multiplier	1
R.Time (min)	Intensity
0.00533	58.00
0.02200	55.71
0.03867	56.66
0.05533	58.89
0.07200	59.70
0.08867	58.19
0.10533	57.98
0.12200	58.01
0.13867	58.01
0.15533	58.01
0.17200	58.00
0.18867	58.00
0.20533	58.00
0.22200	58.00
0.23867	58.00
0.25533	58.00
0.27200	58.00
0.28867	58.00
0.30533	58.00
0.32200	58.00
0.33867	58.00
0.35533	58.00
0.37200	58.00
0.38867	58.00
0.40533	58.00
0.42200	58.00
0.43867	58.00
0.45533	58.00
0.47200	58.00
0.48867	58.00
0.50533	58.00
0.52200	58.00
0.53867	58.00
0.55533	58.00
0.57200	58.00
0.58867	58.00
0.60533	58.00
0.62200	58.00
0.63867	58.00
0.65533	58.00
0.67200	58.00
0.68867	58.00
0.70533	58.00
0.72200	58.00
0.73867	58.00
0.75533	58.00
0.77200	58.00
0.78867	58.00
0.80533	58.00
0.82200	58.00
0.83867	58.00
0.85533	58.00
0.87200	58.00
0.88867	58.00
0.90533	58.00
0.92200	58.00
0.93867	58.00
0.95533	58.00
0.97200	58.00
0.98867	58.00
1.00533	58.00
1.02200	58.00
1.03867	58.00
1.05533	58.00
1.07200	58.00
1.08867	58.00
1.10533	58.00
1.12200	58.00
1.13867	58.00
1.15533	58.00
1.17200	58.00
1.18867	58.00
1.20533	58.00
1.22200	58.00
1.23867	58.00
1.25533	58.00
1.27200	58.00
1.28867	58.00
1.30533	58.00
1.32200	58.00
1.33867	58.00
1.35533	58.00
1.37200	58.00
1.38867	58.00
1.40533	58.00
1.42200	58.00
1.43867	58.00
1.45533	58.00
1.47200	58.00
1.48867	58.00
1.50533	58.00
1.52200	58.00
1.53867	58.00
1.55533	58.00
1.57200	58.00
1.58867	58.00
1.60533	58.00
1.62200	58.00
1.63867	58.00
1.65533	58.00
1.67200	58.01
1.68867	58.00
1.70533	58.00
1.72200	58.00
1.73867	58.00
1.75533	58.00
1.77200	58.00
1.78867	58.00
1.80533	58.00
1.82200	58.00
1.83867	58.00
1.85533	58.00
1.87200	58.00
1.88867	58.00
1.90533	58.00
1.92200	58.00
1.93867	58.00
1.95533	58.00
1.97200	58.00
1.98867	58.00
2.00533	58.00
2.02200	58.00
2.03867	58.00
2.05533	58.00
2.07200	58.00
2.08867	58.00
2.10533	58.00
2.12200	58.00
2.13867	58.00
2.15533	58.00
2.17200	58.00
2.18867	58.00
2.20533	58.00
2.22200	58.00
2.23867	58.00
2.25533	58.00
2.27200	58.00
2.28867	58.00
2.30533	58.00
2.32200	58.00
2.33867	58.00
2.35533	58.00
2.37200	58.00
2.38867	57.99
2.40533	57.99
2.42200	58.00
2.43867	58.00
2.45533	58.00
2.47200	58.00
2.48867	58.00
2.50533	57.99
2.52200	57.99
2.53867	57.99
2.55533	58.00
2.57200	58.00
2.58867	58.00
2.60533	58.00
2.62200	58.00
2.63867	58.00
2.65533	58.00
2.67200	58.00
2.68867	58.00
2.70533	58.00
2.72200	58.00
2.73867	58.00
2.75533	58.00
2.77200	58.00
2.78867	58.00
2.80533	58.00
2.82200	58.00
2.83867	58.00
2.85533	58.00
2.87200	58.00
2.88867	58.00
2.90533	58.00
2.92200	58.00
2.93867	58.00
2.95533	58.00
2.97200	58.00
2.98867	58.00
3.00533	58.00
3.02200	58.00
3.03867	58.00
3.05533	58.00
3.07200	58.00
3.08867	58.00
3.10533	58.00
3.12200	58.00
3.13867	58.00
3.15533	58.00
3.17200	58.00
3.18867	58.00
3.20533	58.00
3.22200	58.00
3.23867	58.00
3.25533	58.00
3.27200	58.00
3.28867	58.00
3.30533	58.00
3.32200	58.00
3.33867	58.00
3.35533	58.00
3.37200	58.00
3.38867	58.00
3.40533	58.00
3.42200	58.00
3.43867	58.00
3.45533	58.00
3.47200	58.00
3.48867	58.00
3.50533	58.00
3.52200	58.00
3.53867	58.00
3.55533	58.00
3.57200	58.00
3.58867	58.00
3.60533	58.00
3.62200	58.00
3.63867	58.00
3.65533	58.00
3.67200	58.00
3.68867	58.00
3.70533	58.00
3.72200	58.00
3.73867	58.00
3.75533	58.00
3.77200	58.00
3.78867	58.00
3.80533	58.00
3.82200	58.00
3.83867	58.00
3.85533	58.00
3.87200	58.00
3.88867	58.00
3.90533	58.00
3.92200	58.00
3.93867	58.00
3.95533	58.00
3.97200	58.00
3.98867	58.00

[Status Trace (Carrier Gas Flow)]
Interval(msec)	1000
# of Points	240
Start Time(min)	0.005
End Time(min)	3.989
Intensity Units	
Intensity Multiplier	1
R.Time (min)	Intensity
0.00533	34.52
0.02200	34.54
0.03867	34.55
0.05533	34.55
0.07200	34.49
0.08867	34.52
0.10533	34.52
0.12200	34.52
0.13867	34.52
0.15533	34.52
0.17200	34.52
0.18867	34.53
0.20533	34.52
0.22200	34.52
0.23867	34.52
0.25533	34.52
0.27200	34.52
0.28867	34.52
0.30533	34.52
0.32200	34.52
0.33867	34.52
0.35533	34.52
0.37200	34.52
0.38867	34.52
0.40533	34.52
0.42200	34.52
0.43867	34.52
0.45533	34.52
0.47200	34.52
0.48867	34.52
0.50533	34.52
0.52200	34.52
0.53867	34.52
0.55533	34.52
0.57200	34.52
0.58867	34.52
0.60533	34.52
0.62200	34.52
0.63867	34.52
0.65533	34.52
0.67200	34.52
0.68867	34.52
0.70533	34.52
0.72200	34.52
0.73867	34.52
0.75533	34.52
0.77200	34.52
0.78867	34.52
0.80533	34.51
0.82200	34.52
0.83867	34.52
0.85533	34.52
0.87200	34.52
0.88867	34.52
0.90533	34.52
0.92200	34.52
0.93867	34.52
0.95533	34.52
0.97200	34.52
0.98867	34.52
1.00533	34.52
1.02200	34.52
1.03867	34.52
1.05533	34.52
1.07200	34.51
1.08867	34.51
1.10533	34.52
1.12200	34.52
1.13867	34.52
1.15533	34.52
1.17200	34.52
1.18867	34.52
1.20533	34.51
1.22200	34.52
1.23867	34.52
1.25533	34.51
1.27200	34.52
1.28867	34.52
1.30533	34.52
1.32200	34.52
1.33867	34.52
1.35533	34.52
1.37200	34.51
1.38867	34.52
1.40533	34.52
1.42200	34.52
1.43867	34.52
1.45533	34.52
1.47200	34.52
1.48867	34.52
1.50533	34.52
1.52200	34.52
1.53867	34.52
1.55533	34.52
1.57200	34.52
1.58867	34.52
1.60533	34.52
1.62200	34.52
1.63867	34.52
1.65533	34.52
1.67200	34.52
1.68867	34.52
1.70533	34.52
1.72200	34.52
1.73867	34.52
1.75533	34.52
1.77200	34.52
1.78867	34.52
1.80533	34.52
1.82200	34.52
1.83867	34.52
1.85533	34.52
1.87200	34.52
1.88867	34.51
1.90533	34.52
1.92200	34.52
1.93867	34.51
1.95533	34.52
1.97200	34.52
1.98867	34.52
2.00533	34.51
2.02200	34.53
2.03867	34.52
2.05533	34.52
2.07200	34.51
2.08867	34.52
2.10533	34.52
2.12200	34.51
2.13867	34.52
2.15533	34.52
2.17200	34.52
2.18867	34.52
2.20533	34.52
2.22200	34.52
2.23867	34.52
2.25533	34.52
2.27200	34.52
2.28867	34.52
2.30533	34.52
2.32200	34.52
2.33867	34.52
2.35533	34.52
2.37200	34.52
2.38867	34.51
2.40533	34.52
2.42200	34.52
2.43867	34.52
2.45533	34.51
2.47200	34.52
2.48867	34.52
2.50533	34.53
2.52200	34.52
2.53867	34.52
2.55533	34.51
2.57200	34.51
2.58867	34.51
2.60533	34.53
2.62200	34.52
2.63867	34.52
2.65533	34.52
2.67200	34.52
2.68867	34.52
2.70533	34.52
2.72200	34.52
2.73867	34.52
2.75533	34.52
2.77200	34.52
2.78867	34.51
2.80533	34.52
2.82200	34.52
2.83867	34.52
2.85533	34.51
2.87200	34.52
2.88867	34.52
2.90533	34.52
2.92200	34.52
2.93867	34.52
2.95533	34.52
2.97200	34.52
2.98867	34.52
3.00533	34.52
3.02200	34.52
3.03867	34.52
3.05533	34.52
3.07200	34.52
3.08867	34.52
3.10533	34.52
3.12200	34.52
3.13867	34.52
3.15533	34.52
3.17200	34.52
3.18867	34.51
3.20533	34.52
3.22200	34.52
3.23867	34.52
3.25533	34.52
3.27200	34.51
3.28867	34.52
3.30533	34.52
3.32200	34.52
3.33867	34.52
3.35533	34.52
3.37200	34.51
3.38867	34.52
3.40533	34.51
3.42200	34.51
3.43867	34.52
3.45533	34.52
3.47200	34.52
3.48867	34.52
3.50533	34.52
3.52200	34.52
3.53867	34.51
3.55533	34.52
3.57200	34.52
3.58867	34.52
3.60533	34.52
3.62200	34.52
3.63867	34.52
3.65533	34.52
3.67200	34.52
3.68867	34.52
3.70533	34.52
3.72200	34.52
3.73867	34.52
3.75533	34.52
3.77200	34.52
3.78867	34.51
3.80533	34.52
3.82200	34.52
3.83867	34.52
3.85533	34.52
3.87200	34.52
3.88867	34.52
3.90533	34.52
3.92200	34.52
3.93867	34.52
3.95533	34.52
3.97200	34.52
3.98867	34.52

[Status Trace (Column Flow)]
Interval(msec)	1000
# of Points	240
Start Time(min)	0.005
End Time(min)	3.989
Intensity Units	
Intensity Multiplier	1
R.Time (min)	Intensity
0.00533	5.51
0.02200	5.25
0.03867	5.36
0.05533	5.62
0.07200	5.71
0.08867	5.53
0.10533	5.51
0.12200	5.51
0.13867	5.51
0.15533	5.51
0.17200	5.51
0.18867	5.51
0.20533	5.51
0.22200	5.51
0.23867	5.51
0.25533	5.51
0.27200	5.51
0.28867	5.51
0.30533	5.51
0.32200	5.51
0.33867	5.51
0.35533	5.51
0.37200	5.51
0.38867	5.51
0.40533	5.51
0.42200	5.51
0.43867	5.51
0.45533	5.51
0.47200	5.51
0.48867	5.51
0.50533	5.51
0.52200	5.51
0.53867	5.51
0.55533	5.51
0.57200	5.51
0.58867	5.51
0.60533	5.51
0.62200	5.51
0.63867	5.51
0.65533	5.51
0.67200	5.51
0.68867	5.51
0.70533	5.51
0.72200	5.51
0.73867	5.51
0.75533	5.51
0.77200	5.51
0.78867	5.51
0.80533	5.51
0.82200	5.51
0.83867	5.51
0.85533	5.51
0.87200	5.51
0.88867	5.51
0.90533	5.51
0.92200	5.51
0.93867	5.51
0.95533	5.51
0.97200	5.51
0.98867	5.51
1.00533	5.51
1.02200	5.51
1.03867	5.51
1.05533	5.51
1.07200	5.51
1.08867	5.51
1.10533	5.51
1.12200	5.51
1.13867	5.51
1.15533	5.51
1.17200	5.51
1.18867	5.51
1.20533	5.51
1.22200	5.51
1.23867	5.51
1.25533	5.51
1.27200	5.51
1.28867	5.51
1.30533	5.51
1.32200	5.51
1.33867	5.51
1.35533	5.51
1.37200	5.51
1.38867	5.51
1.40533	5.51
1.42200	5.51
1.43867	5.51
1.45533	5.51
1.47200	5.51
1.48867	5.51
1.50533	5.51
1.52200	5.51
1.53867	5.51
1.55533	5.51
1.57200	5.51
1.58867	5.51
1.60533	5.51
1.62200	5.51
1.63867	5.50
1.65533	5.50
1.67200	5.49
1.68867	5.48
1.70533	5.46
1.72200	5.45
1.73867	5.44
1.75533	5.43
1.77200	5.42
1.78867	5.41
1.80533	5.40
1.82200	5.39
1.83867	5.38
1.85533	5.37
1.87200	5.36
1.88867	5.35
1.90533	5.34
1.92200	5.33
1.93867	5.32
1.95533	5.31
1.97200	5.30
1.98867	5.29
2.00533	5.28
2.02200	5.27
2.03867	5.27
2.05533	5.26
2.07200	5.25
2.08867	5.24
2.10533	5.23
2.12200	5.22
2.13867	5.21
2.15533	5.20
2.17200	5.19
2.18867	5.18
2.20533	5.17
2.22200	5.16
2.23867	5.15
2.25533	5.14
2.27200	5.13
2.28867	5.12
2.30533	5.11
2.32200	5.10
2.33867	5.10
2.35533	5.09
2.37200	5.08
2.38867	5.08
2.40533	5.08
2.42200	5.08
2.43867	5.08
2.45533	5.08
2.47200	5.08
2.48867	5.08
2.50533	5.08
2.52200	5.07
2.53867	5.08
2.55533	5.08
2.57200	5.08
2.58867	5.08
2.60533	5.08
2.62200	5.07
2.63867	5.07
2.65533	5.07
2.67200	5.07
2.68867	5.07
2.70533	5.07
2.72200	5.07
2.73867	5.07
2.75533	5.07
2.77200	5.07
2.78867	5.07
2.80533	5.07
2.82200	5.07
2.83867	5.07
2.85533	5.07
2.87200	5.07
2.88867	5.07
2.90533	5.07
2.92200	5.07
2.93867	5.07
2.95533	5.07
2.97200	5.07
2.98867	5.07
3.00533	5.07
3.02200	5.07
3.03867	5.07
3.05533	5.07
3.07200	5.07
3.08867	5.07
3.10533	5.07
3.12200	5.07
3.13867	5.07
3.15533	5.07
3.17200	5.07
3.18867	5.07
3.20533	5.07
3.22200	5.07
3.23867	5.07
3.25533	5.07
3.27200	5.07
3.28867	5.07
3.30533	5.07
3.32200	5.07
3.33867	5.07
3.35533	5.07
3.37200	5.07
3.38867	5.07
3.40533	5.07
3.42200	5.07
3.43867	5.07
3.45533	5.07
3.47200	5.07
3.48867	5.07
3.50533	5.07
3.52200	5.07
3.53867	5.07
3.55533	5.07
3.57200	5.07
3.58867	5.07
3.60533	5.07
3.62200	5.07
3.63867	5.07
3.65533	5.07
3.67200	5.07
3.68867	5.07
3.70533	5.07
3.72200	5.07
3.73867	5.07
3.75533	5.07
3.77200	5.07
3.78867	5.07
3.80533	5.07
3.82200	5.07
3.83867	5.07
3.85533	5.07
3.87200	5.07
3.88867	5.07
3.90533	5.07
3.92200	5.07
3.93867	5.07
3.95533	5.07
3.97200	5.07
3.98867	5.07

[Status Trace (Linear Velocity)]
Interval(msec)	1000
# of Points	240
Start Time(min)	0.005
End Time(min)	3.989
Intensity Units	
Intensity Multiplier	1
R.Time (min)	Intensity
0.00533	39.01
0.02200	37.51
0.03867	38.13
0.05533	39.59
0.07200	40.12
0.08867	39.13
0.10533	39.00
0.12200	39.01
0.13867	39.02
0.15533	39.02
0.17200	39.01
0.18867	39.01
0.20533	39.01
0.22200	39.01
0.23867	39.01
0.25533	39.01
0.27200	39.01
0.28867	39.01
0.30533	39.01
0.32200	39.01
0.33867	39.01
0.35533	39.01
0.37200	39.01
0.38867	39.01
0.40533	39.01
0.42200	39.01
0.43867	39.01
0.45533	39.02
0.47200	39.02
0.48867	39.02
0.50533	39.02
0.52200	39.02
0.53867	39.02
0.55533	39.02
0.57200	39.01
0.58867	39.01
0.60533	39.01
0.62200	39.01
0.63867	39.01
0.65533	39.01
0.67200	39.01
0.68867	39.01
0.70533	39.01
0.72200	39.01
0.73867	39.01
0.75533	39.02
0.77200	39.02
0.78867	39.02
0.80533	39.02
0.82200	39.02
0.83867	39.02
0.85533	39.02
0.87200	39.02
0.88867	39.02
0.90533	39.02
0.92200	39.02
0.93867	39.02
0.95533	39.02
0.97200	39.02
0.98867	39.02
1.00533	39.02
1.02200	39.02
1.03867	39.02
1.05533	39.02
1.07200	39.02
1.08867	39.01
1.10533	39.01
1.12200	39.01
1.13867	39.02
1.15533	39.01
1.17200	39.02
1.18867	39.02
1.20533	39.02
1.22200	39.02
1.23867	39.02
1.25533	39.02
1.27200	39.02
1.28867	39.02
1.30533	39.02
1.32200	39.02
1.33867	39.02
1.35533	39.02
1.37200	39.02
1.38867	39.01
1.40533	39.01
1.42200	39.02
1.43867	39.02
1.45533	39.02
1.47200	39.02
1.48867	39.02
1.50533	39.02
1.52200	39.02
1.53867	39.02
1.55533	39.02
1.57200	39.02
1.58867	39.02
1.60533	39.01
1.62200	39.00
1.63867	38.99
1.65533	38.96
1.67200	38.93
1.68867	38.90
1.70533	38.86
1.72200	38.83
1.73867	38.80
1.75533	38.77
1.77200	38.73
1.78867	38.70
1.80533	38.67
1.82200	38.64
1.83867	38.61
1.85533	38.58
1.87200	38.55
1.88867	38.52
1.90533	38.48
1.92200	38.45
1.93867	38.43
1.95533	38.39
1.97200	38.36
1.98867	38.34
2.00533	38.30
2.02200	38.27
2.03867	38.25
2.05533	38.21
2.07200	38.18
2.08867	38.16
2.10533	38.12
2.12200	38.09
2.13867	38.07
2.15533	38.04
2.17200	38.01
2.18867	37.98
2.20533	37.95
2.22200	37.92
2.23867	37.89
2.25533	37.86
2.27200	37.83
2.28867	37.80
2.30533	37.77
2.32200	37.74
2.33867	37.71
2.35533	37.68
2.37200	37.66
2.38867	37.65
2.40533	37.65
2.42200	37.65
2.43867	37.65
2.45533	37.65
2.47200	37.65
2.48867	37.65
2.50533	37.64
2.52200	37.64
2.53867	37.64
2.55533	37.65
2.57200	37.65
2.58867	37.65
2.60533	37.64
2.62200	37.64
2.63867	37.64
2.65533	37.64
2.67200	37.64
2.68867	37.64
2.70533	37.64
2.72200	37.64
2.73867	37.64
2.75533	37.64
2.77200	37.64
2.78867	37.64
2.80533	37.64
2.82200	37.64
2.83867	37.64
2.85533	37.63
2.87200	37.63
2.88867	37.63
2.90533	37.63
2.92200	37.63
2.93867	37.63
2.95533	37.63
2.97200	37.63
2.98867	37.63
3.00533	37.63
3.02200	37.63
3.03867	37.62
3.05533	37.62
3.07200	37.62
3.08867	37.62
3.10533	37.62
3.12200	37.62
3.13867	37.62
3.15533	37.63
3.17200	37.63
3.18867	37.63
3.20533	37.63
3.22200	37.63
3.23867	37.63
3.25533	37.63
3.27200	37.63
3.28867	37.63
3.30533	37.63
3.32200	37.63
3.33867	37.62
3.35533	37.63
3.37200	37.62
3.38867	37.62
3.40533	37.62
3.42200	37.62
3.43867	37.62
3.45533	37.62
3.47200	37.62
3.48867	37.62
3.50533	37.62
3.52200	37.62
3.53867	37.62
3.55533	37.62
3.57200	37.62
3.58867	37.62
3.60533	37.62
3.62200	37.62
3.63867	37.62
3.65533	37.62
3.67200	37.62
3.68867	37.62
3.70533	37.62
3.72200	37.62
3.73867	37.62
3.75533	37.62
3.77200	37.62
3.78867	37.62
3.80533	37.62
3.82200	37.62
3.83867	37.62
3.85533	37.62
3.87200	37.62
3.88867	37.62
3.90533	37.62
3.92200	37.62
3.93867	37.62
3.95533	37.62
3.97200	37.62
3.98867	37.62

