[Header]
Application Name	LabSolutions
Version	5.110
Data File Name	C:\Users\User\Desktop\Junior\UIC Prairie Sampling\2023\8.18.23\081823_048.gcd
Output Date	8/31/2023
Output Time	12:48:09 PM

[File Information]
Type	Data File
Generated	8/30/2023 9:15:19 PM
Generated by	System Administrator
Modified	8/30/2023 9:21:41 PM
Modified by	System Administrator

[Sample Information]
Operator Name	System Administrator
Acquired	8/30/2023 9:17:40 PM
Sample Type	0:Unknown
Level	0
Sample Name	048
Sample ID	048
ISTD Amount1	1
ISTD Amount2	1
ISTD Amount3	1
ISTD Amount4	1
ISTD Amount5	1
ISTD Amount6	1
ISTD Amount7	1
ISTD Amount8	1
ISTD Amount9	1
ISTD Amount10	1
ISTD Amount11	1
ISTD Amount12	1
ISTD Amount13	1
ISTD Amount14	1
ISTD Amount15	1
ISTD Amount16	1
ISTD Amount17	1
ISTD Amount18	1
ISTD Amount19	1
ISTD Amount20	1
ISTD Amount21	1
ISTD Amount22	1
ISTD Amount23	1
ISTD Amount24	1
ISTD Amount25	1
ISTD Amount26	1
ISTD Amount27	1
ISTD Amount28	1
ISTD Amount29	1
ISTD Amount30	1
ISTD Amount31	1
ISTD Amount32	1
Sample Amount	1
Dilution Factor	1
Vial#	47
Injection Volume	1
Injection Count	1
Bar Code	

[Original Files]
Data File	C:\Users\User\Desktop\Junior\UIC Prairie Sampling\8.18.23\081823_048.gcd
Method File	C:\LabSolutions\Data\GHG_4min_2022\ghg3_togas_w_acet_4 min_new_int.gcm
Batch File	C:\LabSolutions\Data\BATCH FILES\081823.gcb
Report Format File	c:\LabSolutions\System\DEFAULT.lsr

[File Description]


[Configuration]
Instrument Name	C0B7VH3-Instrument1
Instrument #	1
Line #	1
# of Detectors	3
Detector ID	DET#1	DET#2	DET#3
Detector Name	FID	PTCD	ECD
# of Channels	1	1	1

[Peak Table(Ch1)]
# of Peaks	3
Peak#	R.Time	I.Time	F.Time	Area	Height	A/H	Conc.	Mark	ID#	Name	k'	Plate #	Plate Ht.	Tailing	Resolution	Sep.Factor	Area Ratio	Height Ratio	Conc. %	Norm Conc.
1	1.472	1.446	1.527	3295	1690	1.949	0.000	   	1	CO	0.000	10758	13.943	1.391	0.000	0.000	0	0	0.000	0.000
2	1.564	1.527	1.615	4282	2195	1.951	20.875	 V 	2	CH4	0.062	11616	12.913	1.135	1.597	0.000	0	0	7.495	7.495
3	1.989	1.945	2.535	1336786	639670	2.090	257.623	   	3	CO2	0.351	17524	8.560	1.300	7.201	5.640	0	0	92.505	92.505

[Peak Table(Ch2)]
# of Peaks	0

[Peak Table(Ch3)]
# of Peaks	5
Peak#	R.Time	I.Time	F.Time	Area	Height	A/H	Conc.	Mark	ID#	Name	k'	Plate #	Plate Ht.	Tailing	Resolution	Sep.Factor	Area Ratio	Height Ratio	Conc. %	Norm Conc.
1	2.458	2.326	2.506	1016	334	3.043	0.000	   			0.000	10943	13.707	0.000	0.000	0.000	0	0	0.000	0.000
2	2.524	2.506	2.572	446	156	2.864	0.000	 V 			0.027	3251	46.144	0.000	0.487	0.000	0	0	0.000	0.000
3	2.623	2.572	2.715	547	126	4.323	0.000	 V 			0.067	6393	23.461	0.000	0.642	2.500	0	0	0.000	0.000
4	2.891	2.755	3.052	14792	3958	3.737	0.219	   	1	N2O	0.176	13867	10.817	1.511	2.333	2.622	0	0	100.000	100.000
5	3.126	3.052	3.995	28714	1023	28.080	0.000	   	2	SF6	0.271	114	1320.966	6.586	0.369	1.542	0	0	0.000	0.000

[Compound Results(Ch1)]
# of IDs	6
ID#	Name	R.Time	Area	Height	Conc.	Curve	3rd	2nd	1st	Constant	Area Ratio	Height Ratio	Conc. %	Norm Conc.
1	CO	1.472	3295	1690	0.000	Linear	0.000000e+00	0.000000e+00	0.000000e+00	0.000000e+00	0	0	0.000	0.000
2	CH4	1.564	4282	2195	20.875	Linear	0.000000e+00	0.000000e+00	2.051179e+002	0.000000e+00	0	0	7.495	7.495
3	CO2	1.989	1336786	639670	257.623	Linear	0.000000e+00	0.000000e+00	5.188919e+003	0.000000e+00	0	0	92.505	92.505
4	Ethylene	0.000	0	0	0.000	Linear	0.000000e+00	0.000000e+00	0.000000e+00	0.000000e+00	0	0	0.000	0.000
5	Acetylene	0.000	0	0	0.000	Linear	0.000000e+00	0.000000e+00	0.000000e+00	0.000000e+00	0	0	0.000	0.000
6	Ethane	0.000	0	0	0.000	Linear	0.000000e+00	0.000000e+00	0.000000e+00	0.000000e+00	0	0	0.000	0.000

[Compound Results(Ch2)]
# of IDs	5
ID#	Name	R.Time	Area	Height	Conc.	Curve	3rd	2nd	1st	Constant	Area Ratio	Height Ratio	Conc. %	Norm Conc.
1	Hydrogen	0.000	0	0	0.000	Linear	0.000000e+00	0.000000e+00	0.000000e+00	0.000000e+00	0	0	0.000	0.000
2	Oxygen	0.000	0	0	0.000	Linear	0.000000e+00	0.000000e+00	0.000000e+00	0.000000e+00	0	0	0.000	0.000
3	Nitrogen	0.000	0	0	0.000	Linear	0.000000e+00	0.000000e+00	0.000000e+00	0.000000e+00	0	0	0.000	0.000
4	Methane	0.000	0	0	0.000	Linear	0.000000e+00	0.000000e+00	0.000000e+00	0.000000e+00	0	0	0.000	0.000
5	Carbon Monoxide	0.000	0	0	0.000	Linear	0.000000e+00	0.000000e+00	0.000000e+00	0.000000e+00	0	0	0.000	0.000

[Compound Results(Ch3)]
# of IDs	2
ID#	Name	R.Time	Area	Height	Conc.	Curve	3rd	2nd	1st	Constant	Area Ratio	Height Ratio	Conc. %	Norm Conc.
1	N2O	2.891	14792	3958	0.219	Linear	0.000000e+00	0.000000e+00	6.759880e+004	0.000000e+00	0	0	100.000	100.000
2	SF6	3.126	28714	1023	0.000	Linear	0.000000e+00	0.000000e+00	0.000000e+00	0.000000e+00	0	0	0.000	0.000

[Group Results(Ch1)]
# of Groups	0

[Group Results(Ch2)]
# of Groups	0

[Group Results(Ch3)]
# of Groups	0

[Chromatogram (Ch1)]
Interval(msec)	220
# of Points	1091
Start Time(min)	0.002
End Time(min)	3.998
R.Time (min)	Intensity
0.00167	3
0.00533	5
0.00900	10
0.01267	10
0.01633	6
0.02000	1
0.02367	-3
0.02733	-5
0.03100	-7
0.03467	-5
0.03833	0
0.04200	10
0.04567	18
0.04933	21
0.05300	23
0.05667	25
0.06033	23
0.06400	17
0.06767	8
0.07133	-1
0.07500	-8
0.07867	-11
0.08233	-9
0.08600	-6
0.08967	-4
0.09333	-2
0.09700	3
0.10067	4
0.10433	1
0.10800	-1
0.11167	2
0.11533	8
0.11900	12
0.12267	12
0.12633	11
0.13000	12
0.13367	14
0.13733	14
0.14100	14
0.14467	15
0.14833	14
0.15200	15
0.15567	14
0.15933	13
0.16300	14
0.16667	14
0.17033	16
0.17400	17
0.17767	17
0.18133	16
0.18500	14
0.18867	11
0.19233	9
0.19600	9
0.19967	7
0.20333	8
0.20700	10
0.21067	10
0.21433	7
0.21800	2
0.22167	1
0.22533	5
0.22900	12
0.23267	20
0.23633	27
0.24000	33
0.24367	36
0.24733	37
0.25100	34
0.25467	27
0.25833	21
0.26200	18
0.26567	17
0.26933	15
0.27300	12
0.27667	6
0.28033	1
0.28400	-4
0.28767	-9
0.29133	-12
0.29500	-12
0.29867	-11
0.30233	-10
0.30600	-8
0.30967	-4
0.31333	-0
0.31700	5
0.32067	8
0.32433	11
0.32800	18
0.33167	23
0.33533	25
0.33900	22
0.34267	14
0.34633	4
0.35000	-2
0.35367	-4
0.35733	-1
0.36100	4
0.36467	9
0.36833	11
0.37200	13
0.37567	14
0.37933	18
0.38300	22
0.38667	26
0.39033	29
0.39400	29
0.39767	32
0.40133	31
0.40500	29
0.40867	25
0.41233	20
0.41600	17
0.41967	15
0.42333	15
0.42700	17
0.43067	22
0.43433	27
0.43800	34
0.44167	38
0.44533	37
0.44900	31
0.45267	25
0.45633	20
0.46000	20
0.46367	23
0.46733	26
0.47100	28
0.47467	29
0.47833	29
0.48200	30
0.48567	31
0.48933	32
0.49300	31
0.49667	30
0.50033	30
0.50400	33
0.50767	40
0.51133	51
0.51500	60
0.51867	61
0.52233	57
0.52600	55
0.52967	55
0.53333	55
0.53700	55
0.54067	56
0.54433	57
0.54800	57
0.55167	56
0.55533	56
0.55900	58
0.56267	61
0.56633	64
0.57000	62
0.57367	58
0.57733	55
0.58100	50
0.58467	46
0.58833	43
0.59200	40
0.59567	35
0.59933	30
0.60300	27
0.60667	28
0.61033	31
0.61400	34
0.61767	37
0.62133	36
0.62500	31
0.62867	23
0.63233	19
0.63600	20
0.63967	26
0.64333	32
0.64700	33
0.65067	27
0.65433	20
0.65800	17
0.66167	18
0.66533	19
0.66900	17
0.67267	13
0.67633	10
0.68000	5
0.68367	3
0.68733	4
0.69100	8
0.69467	10
0.69833	8
0.70200	3
0.70567	-3
0.70933	-4
0.71300	-6
0.71667	-9
0.72033	-11
0.72400	-10
0.72767	-6
0.73133	3
0.73500	11
0.73867	13
0.74233	10
0.74600	3
0.74967	-5
0.75333	-11
0.75700	-15
0.76067	-15
0.76433	-15
0.76800	-11
0.77167	-3
0.77533	5
0.77900	9
0.78267	11
0.78633	13
0.79000	12
0.79367	10
0.79733	10
0.80100	10
0.80467	8
0.80833	5
0.81200	4
0.81567	5
0.81933	6
0.82300	9
0.82667	11
0.83033	12
0.83400	11
0.83767	8
0.84133	4
0.84500	-1
0.84867	-5
0.85233	-8
0.85600	-12
0.85967	-15
0.86333	-12
0.86700	-7
0.87067	-3
0.87433	-0
0.87800	2
0.88167	2
0.88533	0
0.88900	-2
0.89267	-5
0.89633	-6
0.90000	-5
0.90367	-3
0.90733	1
0.91100	3
0.91467	4
0.91833	1
0.92200	-2
0.92567	-2
0.92933	1
0.93300	4
0.93667	4
0.94033	1
0.94400	-1
0.94767	-1
0.95133	-1
0.95500	-1
0.95867	-1
0.96233	2
0.96600	4
0.96967	5
0.97333	2
0.97700	0
0.98067	0
0.98433	1
0.98800	1
0.99167	-0
0.99533	0
0.99900	4
1.00267	10
1.00633	14
1.01000	14
1.01367	13
1.01733	14
1.02100	12
1.02467	8
1.02833	4
1.03200	-0
1.03567	-3
1.03933	-5
1.04300	-4
1.04667	-4
1.05033	-4
1.05400	-5
1.05767	-5
1.06133	-3
1.06500	0
1.06867	2
1.07233	1
1.07600	1
1.07967	3
1.08333	8
1.08700	16
1.09067	23
1.09433	23
1.09800	18
1.10167	12
1.10533	6
1.10900	-0
1.11267	-6
1.11633	-8
1.12000	-7
1.12367	-4
1.12733	-1
1.13100	1
1.13467	4
1.13833	5
1.14200	5
1.14567	3
1.14933	0
1.15300	-1
1.15667	-2
1.16033	-3
1.16400	-2
1.16767	-2
1.17133	-3
1.17500	-6
1.17867	-11
1.18233	-15
1.18600	-17
1.18967	-19
1.19333	-20
1.19700	-18
1.20067	-13
1.20433	-5
1.20800	3
1.21167	11
1.21533	15
1.21900	17
1.22267	14
1.22633	6
1.23000	-2
1.23367	-9
1.23733	-15
1.24100	-18
1.24467	-19
1.24833	-20
1.25200	-21
1.25567	-19
1.25933	-14
1.26300	-10
1.26667	-2
1.27033	9
1.27400	13
1.27767	14
1.28133	12
1.28500	7
1.28867	-0
1.29233	-6
1.29600	-7
1.29967	-9
1.30333	-10
1.30700	-10
1.31067	-8
1.31433	-7
1.31800	-9
1.32167	-12
1.32533	-17
1.32900	-19
1.33267	-16
1.33633	-9
1.34000	-3
1.34367	2
1.34733	4
1.35100	-0
1.35467	-5
1.35833	-8
1.36200	-10
1.36567	-13
1.36933	-15
1.37300	-13
1.37667	-10
1.38033	-7
1.38400	-6
1.38767	-8
1.39133	-11
1.39500	-13
1.39867	-14
1.40233	-14
1.40600	-13
1.40967	-12
1.41333	-13
1.41700	-12
1.42067	-11
1.42433	-11
1.42800	-10
1.43167	-5
1.43533	2
1.43900	6
1.44267	-5
1.44633	13
1.45000	155
1.45367	433
1.45733	771
1.46100	1100
1.46467	1383
1.46833	1594
1.47200	1700
1.47567	1670
1.47933	1510
1.48300	1268
1.48667	999
1.49033	750
1.49400	546
1.49767	391
1.50133	278
1.50500	198
1.50867	142
1.51233	102
1.51600	73
1.51967	51
1.52333	33
1.52700	21
1.53067	25
1.53433	64
1.53800	191
1.54167	460
1.54533	856
1.54900	1292
1.55267	1682
1.55633	1981
1.56000	2163
1.56367	2195
1.56733	2059
1.57100	1780
1.57467	1426
1.57833	1074
1.58200	771
1.58567	532
1.58933	353
1.59300	227
1.59667	143
1.60033	88
1.60400	51
1.60767	24
1.61133	4
1.61500	-5
1.61867	-7
1.62233	-6
1.62600	-7
1.62967	-10
1.63333	-14
1.63700	-16
1.64067	-15
1.64433	-14
1.64800	-18
1.65167	-25
1.65533	-29
1.65900	-31
1.66267	-31
1.66633	-30
1.67000	-24
1.67367	-18
1.67733	-13
1.68100	-11
1.68467	-13
1.68833	-15
1.69200	-20
1.69567	-24
1.69933	-26
1.70300	-29
1.70667	-32
1.71033	-37
1.71400	-44
1.71767	-48
1.72133	-45
1.72500	-39
1.72867	-36
1.73233	-36
1.73600	-33
1.73967	-27
1.74333	-23
1.74700	-21
1.75067	-25
1.75433	-33
1.75800	-39
1.76167	-41
1.76533	-36
1.76900	-30
1.77267	-27
1.77633	-28
1.78000	-31
1.78367	-35
1.78733	-40
1.79100	-45
1.79467	-45
1.79833	-41
1.80200	-38
1.80567	-38
1.80933	-39
1.81300	-40
1.81667	-41
1.82033	-39
1.82400	-33
1.82767	-30
1.83133	-29
1.83500	-30
1.83867	-34
1.84233	-39
1.84600	-41
1.84967	-42
1.85333	-42
1.85700	-42
1.86067	-43
1.86433	-45
1.86800	-44
1.87167	-42
1.87533	-42
1.87900	-44
1.88267	-47
1.88633	-51
1.89000	-56
1.89367	-63
1.89733	-68
1.90100	-70
1.90467	-72
1.90833	-71
1.91200	-66
1.91567	-59
1.91933	-50
1.92300	-39
1.92667	-29
1.93033	-27
1.93400	-30
1.93767	-32
1.94133	-35
1.94500	-28
1.94867	63
1.95233	638
1.95600	3361
1.95967	12968
1.96333	38735
1.96700	92193
1.97067	179523
1.97433	293900
1.97800	416787
1.98167	526397
1.98533	604553
1.98900	639663
1.99267	627585
1.99633	572999
2.00000	489000
2.00367	392840
2.00733	299982
2.01100	220262
2.01467	157364
2.01833	110640
2.02200	77360
2.02567	54309
2.02933	38610
2.03300	28007
2.03667	20850
2.04033	15991
2.04400	12647
2.04767	10307
2.05133	8633
2.05500	7408
2.05867	6489
2.06233	5776
2.06600	5212
2.06967	4753
2.07333	4370
2.07700	4046
2.08067	3767
2.08433	3523
2.08800	3306
2.09167	3116
2.09533	2947
2.09900	2793
2.10267	2654
2.10633	2526
2.11000	2407
2.11367	2299
2.11733	2202
2.12100	2110
2.12467	2022
2.12833	1938
2.13200	1864
2.13567	1798
2.13933	1736
2.14300	1678
2.14667	1623
2.15033	1569
2.15400	1515
2.15767	1466
2.16133	1420
2.16500	1378
2.16867	1338
2.17233	1297
2.17600	1258
2.17967	1224
2.18333	1196
2.18700	1170
2.19067	1144
2.19433	1115
2.19800	1083
2.20167	1051
2.20533	1025
2.20900	1000
2.21267	976
2.21633	953
2.22000	929
2.22367	904
2.22733	881
2.23100	856
2.23467	834
2.23833	816
2.24200	798
2.24567	780
2.24933	761
2.25300	745
2.25667	731
2.26033	719
2.26400	705
2.26767	691
2.27133	674
2.27500	658
2.27867	645
2.28233	633
2.28600	625
2.28967	616
2.29333	605
2.29700	594
2.30067	583
2.30433	574
2.30800	566
2.31167	556
2.31533	547
2.31900	539
2.32267	531
2.32633	520
2.33000	510
2.33367	501
2.33733	492
2.34100	485
2.34467	479
2.34833	472
2.35200	462
2.35567	454
2.35933	448
2.36300	443
2.36667	438
2.37033	430
2.37400	423
2.37767	419
2.38133	417
2.38500	415
2.38867	409
2.39233	399
2.39600	390
2.39967	384
2.40333	383
2.40700	382
2.41067	377
2.41433	369
2.41800	359
2.42167	351
2.42533	346
2.42900	344
2.43267	343
2.43633	339
2.44000	334
2.44367	330
2.44733	329
2.45100	328
2.45467	326
2.45833	321
2.46200	313
2.46567	306
2.46933	303
2.47300	301
2.47667	298
2.48033	292
2.48400	288
2.48767	285
2.49133	283
2.49500	282
2.49867	276
2.50233	267
2.50600	258
2.50967	252
2.51333	249
2.51700	248
2.52067	248
2.52433	251
2.52800	252
2.53167	251
2.53533	252
2.53900	254
2.54267	254
2.54633	250
2.55000	245
2.55367	241
2.55733	240
2.56100	242
2.56467	246
2.56833	249
2.57200	249
2.57567	248
2.57933	244
2.58300	235
2.58667	227
2.59033	224
2.59400	222
2.59767	218
2.60133	213
2.60500	210
2.60867	207
2.61233	201
2.61600	194
2.61967	190
2.62333	188
2.62700	190
2.63067	193
2.63433	193
2.63800	191
2.64167	184
2.64533	176
2.64900	171
2.65267	171
2.65633	174
2.66000	180
2.66367	189
2.66733	199
2.67100	206
2.67467	207
2.67833	202
2.68200	193
2.68567	185
2.68933	180
2.69300	179
2.69667	180
2.70033	179
2.70400	177
2.70767	177
2.71133	176
2.71500	169
2.71867	160
2.72233	155
2.72600	155
2.72967	155
2.73333	152
2.73700	149
2.74067	148
2.74433	149
2.74800	153
2.75167	159
2.75533	162
2.75900	162
2.76267	159
2.76633	155
2.77000	152
2.77367	148
2.77733	143
2.78100	143
2.78467	145
2.78833	148
2.79200	152
2.79567	158
2.79933	162
2.80300	162
2.80667	160
2.81033	157
2.81400	155
2.81767	154
2.82133	152
2.82500	149
2.82867	145
2.83233	140
2.83600	134
2.83967	130
2.84333	128
2.84700	128
2.85067	129
2.85433	131
2.85800	135
2.86167	137
2.86533	139
2.86900	140
2.87267	142
2.87633	139
2.88000	134
2.88367	130
2.88733	128
2.89100	126
2.89467	125
2.89833	123
2.90200	123
2.90567	126
2.90933	130
2.91300	134
2.91667	138
2.92033	141
2.92400	141
2.92767	138
2.93133	136
2.93500	134
2.93867	134
2.94233	136
2.94600	140
2.94967	142
2.95333	141
2.95700	138
2.96067	136
2.96433	136
2.96800	134
2.97167	126
2.97533	115
2.97900	105
2.98267	102
2.98633	103
2.99000	105
2.99367	107
2.99733	112
3.00100	115
3.00467	120
3.00833	130
3.01200	141
3.01567	150
3.01933	155
3.02300	160
3.02667	161
3.03033	157
3.03400	148
3.03767	141
3.04133	135
3.04500	131
3.04867	125
3.05233	120
3.05600	116
3.05967	116
3.06333	117
3.06700	121
3.07067	124
3.07433	124
3.07800	129
3.08167	133
3.08533	132
3.08900	126
3.09267	117
3.09633	111
3.10000	108
3.10367	110
3.10733	115
3.11100	120
3.11467	123
3.11833	124
3.12200	125
3.12567	127
3.12933	129
3.13300	131
3.13667	130
3.14033	128
3.14400	127
3.14767	124
3.15133	124
3.15500	124
3.15867	124
3.16233	122
3.16600	118
3.16967	114
3.17333	113
3.17700	116
3.18067	122
3.18433	128
3.18800	133
3.19167	135
3.19533	134
3.19900	134
3.20267	134
3.20633	136
3.21000	138
3.21367	139
3.21733	139
3.22100	134
3.22467	128
3.22833	125
3.23200	125
3.23567	125
3.23933	125
3.24300	123
3.24667	121
3.25033	120
3.25400	118
3.25767	114
3.26133	111
3.26500	110
3.26867	112
3.27233	111
3.27600	108
3.27967	104
3.28333	103
3.28700	104
3.29067	106
3.29433	107
3.29800	103
3.30167	97
3.30533	94
3.30900	95
3.31267	99
3.31633	103
3.32000	109
3.32367	114
3.32733	119
3.33100	122
3.33467	124
3.33833	125
3.34200	123
3.34567	118
3.34933	111
3.35300	112
3.35667	120
3.36033	128
3.36400	131
3.36767	132
3.37133	131
3.37500	128
3.37867	122
3.38233	115
3.38600	107
3.38967	103
3.39333	103
3.39700	103
3.40067	102
3.40433	103
3.40800	106
3.41167	110
3.41533	113
3.41900	116
3.42267	120
3.42633	125
3.43000	123
3.43367	117
3.43733	112
3.44100	107
3.44467	102
3.44833	98
3.45200	97
3.45567	98
3.45933	98
3.46300	102
3.46667	107
3.47033	110
3.47400	111
3.47767	111
3.48133	107
3.48500	102
3.48867	96
3.49233	93
3.49600	90
3.49967	89
3.50333	87
3.50700	86
3.51067	90
3.51433	93
3.51800	94
3.52167	96
3.52533	98
3.52900	102
3.53267	102
3.53633	99
3.54000	95
3.54367	92
3.54733	91
3.55100	92
3.55467	93
3.55833	93
3.56200	93
3.56567	93
3.56933	91
3.57300	90
3.57667	91
3.58033	91
3.58400	91
3.58767	92
3.59133	93
3.59500	94
3.59867	96
3.60233	96
3.60600	95
3.60967	93
3.61333	91
3.61700	90
3.62067	90
3.62433	91
3.62800	92
3.63167	93
3.63533	93
3.63900	95
3.64267	95
3.64633	95
3.65000	97
3.65367	98
3.65733	101
3.66100	102
3.66467	102
3.66833	99
3.67200	97
3.67567	95
3.67933	93
3.68300	91
3.68667	91
3.69033	96
3.69400	101
3.69767	105
3.70133	107
3.70500	106
3.70867	105
3.71233	101
3.71600	95
3.71967	90
3.72333	89
3.72700	86
3.73067	80
3.73433	74
3.73800	67
3.74167	63
3.74533	60
3.74900	57
3.75267	54
3.75633	54
3.76000	57
3.76367	63
3.76733	69
3.77100	73
3.77467	76
3.77833	78
3.78200	80
3.78567	81
3.78933	82
3.79300	84
3.79667	87
3.80033	90
3.80400	93
3.80767	94
3.81133	91
3.81500	87
3.81867	80
3.82233	73
3.82600	67
3.82967	66
3.83333	70
3.83700	74
3.84067	77
3.84433	82
3.84800	85
3.85167	86
3.85533	83
3.85900	76
3.86267	71
3.86633	67
3.87000	67
3.87367	68
3.87733	68
3.88100	67
3.88467	67
3.88833	68
3.89200	72
3.89567	78
3.89933	83
3.90300	85
3.90667	83
3.91033	81
3.91400	81
3.91767	81
3.92133	82
3.92500	82
3.92867	82
3.93233	81
3.93600	79
3.93967	75
3.94333	67
3.94700	58
3.95067	54
3.95433	54
3.95800	51
3.96167	50
3.96533	49
3.96900	52
3.97267	56
3.97633	60
3.98000	63
3.98367	66
3.98733	68
3.99100	70
3.99467	67
3.99833	64

[Chromatogram (Ch2)]
Interval(msec)	220
# of Points	1091
Start Time(min)	0.002
End Time(min)	3.998
R.Time (min)	Intensity
0.00167	1
0.00533	1
0.00900	1
0.01267	1
0.01633	1
0.02000	1
0.02367	1
0.02733	1
0.03100	0
0.03467	0
0.03833	0
0.04200	0
0.04567	0
0.04933	0
0.05300	0
0.05667	0
0.06033	0
0.06400	1
0.06767	1
0.07133	1
0.07500	1
0.07867	1
0.08233	1
0.08600	1
0.08967	2
0.09333	2
0.09700	2
0.10067	2
0.10433	2
0.10800	2
0.11167	2
0.11533	2
0.11900	2
0.12267	2
0.12633	2
0.13000	2
0.13367	2
0.13733	2
0.14100	2
0.14467	2
0.14833	2
0.15200	2
0.15567	2
0.15933	2
0.16300	2
0.16667	2
0.17033	2
0.17400	2
0.17767	2
0.18133	1
0.18500	1
0.18867	1
0.19233	1
0.19600	1
0.19967	1
0.20333	1
0.20700	1
0.21067	1
0.21433	1
0.21800	1
0.22167	1
0.22533	1
0.22900	0
0.23267	0
0.23633	0
0.24000	-0
0.24367	-0
0.24733	-0
0.25100	-1
0.25467	-1
0.25833	-1
0.26200	-1
0.26567	-0
0.26933	-0
0.27300	-0
0.27667	-0
0.28033	-0
0.28400	-0
0.28767	-0
0.29133	0
0.29500	0
0.29867	0
0.30233	0
0.30600	0
0.30967	0
0.31333	0
0.31700	-0
0.32067	-0
0.32433	-0
0.32800	-0
0.33167	-0
0.33533	-0
0.33900	-1
0.34267	-1
0.34633	-1
0.35000	-1
0.35367	-1
0.35733	-1
0.36100	-1
0.36467	-1
0.36833	-1
0.37200	-1
0.37567	-1
0.37933	-1
0.38300	-0
0.38667	-0
0.39033	-0
0.39400	-0
0.39767	-0
0.40133	-0
0.40500	-0
0.40867	0
0.41233	0
0.41600	1
0.41967	1
0.42333	1
0.42700	1
0.43067	1
0.43433	1
0.43800	1
0.44167	1
0.44533	1
0.44900	1
0.45267	1
0.45633	1
0.46000	1
0.46367	1
0.46733	1
0.47100	1
0.47467	1
0.47833	1
0.48200	0
0.48567	0
0.48933	-0
0.49300	-0
0.49667	-0
0.50033	-0
0.50400	-1
0.50767	-1
0.51133	-1
0.51500	-2
0.51867	-2
0.52233	-2
0.52600	-3
0.52967	-3
0.53333	-3
0.53700	-2
0.54067	-2
0.54433	-2
0.54800	-2
0.55167	-2
0.55533	-1
0.55900	-1
0.56267	-1
0.56633	-1
0.57000	-1
0.57367	-1
0.57733	-1
0.58100	-1
0.58467	-1
0.58833	-0
0.59200	-0
0.59567	-1
0.59933	-0
0.60300	-0
0.60667	-0
0.61033	0
0.61400	0
0.61767	0
0.62133	0
0.62500	0
0.62867	-0
0.63233	-0
0.63600	-0
0.63967	-1
0.64333	-1
0.64700	-1
0.65067	-1
0.65433	-1
0.65800	-1
0.66167	-1
0.66533	-1
0.66900	-1
0.67267	-1
0.67633	-1
0.68000	-1
0.68367	-1
0.68733	-1
0.69100	-1
0.69467	-1
0.69833	-1
0.70200	-1
0.70567	-1
0.70933	-1
0.71300	-1
0.71667	-1
0.72033	-0
0.72400	-1
0.72767	-1
0.73133	-1
0.73500	-1
0.73867	-1
0.74233	-1
0.74600	-1
0.74967	-1
0.75333	-0
0.75700	-0
0.76067	0
0.76433	0
0.76800	0
0.77167	0
0.77533	0
0.77900	0
0.78267	-0
0.78633	-0
0.79000	-0
0.79367	-0
0.79733	0
0.80100	0
0.80467	1
0.80833	1
0.81200	1
0.81567	1
0.81933	1
0.82300	1
0.82667	1
0.83033	1
0.83400	1
0.83767	1
0.84133	1
0.84500	1
0.84867	0
0.85233	0
0.85600	-0
0.85967	-0
0.86333	-1
0.86700	-1
0.87067	-1
0.87433	-1
0.87800	-1
0.88167	-1
0.88533	-1
0.88900	-1
0.89267	-1
0.89633	-1
0.90000	-1
0.90367	-1
0.90733	-1
0.91100	-1
0.91467	-1
0.91833	-1
0.92200	-1
0.92567	-1
0.92933	-1
0.93300	-1
0.93667	-1
0.94033	-1
0.94400	-1
0.94767	-0
0.95133	-0
0.95500	-0
0.95867	-1
0.96233	-1
0.96600	-1
0.96967	-1
0.97333	-1
0.97700	-1
0.98067	-1
0.98433	-1
0.98800	-0
0.99167	-0
0.99533	-0
0.99900	-0
1.00267	0
1.00633	0
1.01000	0
1.01367	0
1.01733	0
1.02100	-0
1.02467	-0
1.02833	-0
1.03200	-0
1.03567	-0
1.03933	-0
1.04300	-0
1.04667	-0
1.05033	-1
1.05400	-1
1.05767	-1
1.06133	-2
1.06500	-2
1.06867	-2
1.07233	-2
1.07600	-2
1.07967	-2
1.08333	-2
1.08700	-2
1.09067	-2
1.09433	-2
1.09800	-1
1.10167	-1
1.10533	-1
1.10900	-1
1.11267	-1
1.11633	-1
1.12000	-1
1.12367	-1
1.12733	-1
1.13100	-1
1.13467	-1
1.13833	-1
1.14200	-1
1.14567	-1
1.14933	-1
1.15300	-1
1.15667	-1
1.16033	-1
1.16400	-1
1.16767	-1
1.17133	-2
1.17500	-2
1.17867	-2
1.18233	-2
1.18600	-1
1.18967	-1
1.19333	-1
1.19700	-1
1.20067	-1
1.20433	-1
1.20800	-1
1.21167	-2
1.21533	-2
1.21900	-2
1.22267	-2
1.22633	-1
1.23000	-1
1.23367	-1
1.23733	-1
1.24100	-1
1.24467	-1
1.24833	-2
1.25200	-2
1.25567	-2
1.25933	-2
1.26300	-2
1.26667	-2
1.27033	-2
1.27400	-3
1.27767	-3
1.28133	-3
1.28500	-3
1.28867	-3
1.29233	-3
1.29600	-3
1.29967	-3
1.30333	-3
1.30700	-3
1.31067	-4
1.31433	-4
1.31800	-4
1.32167	-3
1.32533	-3
1.32900	-3
1.33267	-3
1.33633	-3
1.34000	-3
1.34367	-3
1.34733	-2
1.35100	-2
1.35467	-2
1.35833	-1
1.36200	-1
1.36567	-1
1.36933	-1
1.37300	-0
1.37667	-0
1.38033	-0
1.38400	-0
1.38767	-0
1.39133	-0
1.39500	-0
1.39867	-0
1.40233	-0
1.40600	-0
1.40967	-0
1.41333	-1
1.41700	-1
1.42067	-1
1.42433	-1
1.42800	-1
1.43167	-1
1.43533	-1
1.43900	-1
1.44267	-2
1.44633	-2
1.45000	-2
1.45367	-3
1.45733	-3
1.46100	-3
1.46467	-3
1.46833	-3
1.47200	-3
1.47567	-3
1.47933	-3
1.48300	-3
1.48667	-2
1.49033	-2
1.49400	-2
1.49767	-2
1.50133	-2
1.50500	-2
1.50867	-2
1.51233	-2
1.51600	-2
1.51967	-1
1.52333	-1
1.52700	-1
1.53067	-1
1.53433	-1
1.53800	-1
1.54167	-1
1.54533	-1
1.54900	-2
1.55267	-2
1.55633	-2
1.56000	-2
1.56367	-2
1.56733	-2
1.57100	-2
1.57467	-2
1.57833	-2
1.58200	-2
1.58567	-3
1.58933	-3
1.59300	-3
1.59667	-4
1.60033	-5
1.60400	-6
1.60767	-7
1.61133	-9
1.61500	-11
1.61867	-14
1.62233	-16
1.62600	-19
1.62967	-22
1.63333	-25
1.63700	-28
1.64067	-32
1.64433	-36
1.64800	-39
1.65167	-43
1.65533	-46
1.65900	-49
1.66267	-52
1.66633	-56
1.67000	-60
1.67367	-64
1.67733	-68
1.68100	-71
1.68467	-75
1.68833	-79
1.69200	-82
1.69567	-85
1.69933	-87
1.70300	-90
1.70667	-92
1.71033	-94
1.71400	-95
1.71767	-96
1.72133	-97
1.72500	-97
1.72867	-98
1.73233	-98
1.73600	-98
1.73967	-98
1.74333	-98
1.74700	-98
1.75067	-98
1.75433	-98
1.75800	-98
1.76167	-98
1.76533	-99
1.76900	-100
1.77267	-100
1.77633	-100
1.78000	-100
1.78367	-100
1.78733	-99
1.79100	-99
1.79467	-98
1.79833	-97
1.80200	-98
1.80567	-98
1.80933	-99
1.81300	-99
1.81667	-100
1.82033	-101
1.82400	-101
1.82767	-101
1.83133	-102
1.83500	-101
1.83867	-101
1.84233	-100
1.84600	-100
1.84967	-100
1.85333	-100
1.85700	-101
1.86067	-101
1.86433	-101
1.86800	-101
1.87167	-101
1.87533	-101
1.87900	-101
1.88267	-100
1.88633	-100
1.89000	-99
1.89367	-98
1.89733	-97
1.90100	-97
1.90467	-97
1.90833	-97
1.91200	-97
1.91567	-98
1.91933	-98
1.92300	-98
1.92667	-98
1.93033	-98
1.93400	-97
1.93767	-97
1.94133	-96
1.94500	-96
1.94867	-95
1.95233	-95
1.95600	-95
1.95967	-96
1.96333	-96
1.96700	-96
1.97067	-96
1.97433	-96
1.97800	-96
1.98167	-95
1.98533	-94
1.98900	-94
1.99267	-93
1.99633	-93
2.00000	-94
2.00367	-94
2.00733	-94
2.01100	-94
2.01467	-94
2.01833	-93
2.02200	-93
2.02567	-92
2.02933	-91
2.03300	-89
2.03667	-88
2.04033	-88
2.04400	-88
2.04767	-88
2.05133	-88
2.05500	-88
2.05867	-88
2.06233	-88
2.06600	-88
2.06967	-88
2.07333	-88
2.07700	-87
2.08067	-87
2.08433	-87
2.08800	-87
2.09167	-86
2.09533	-86
2.09900	-85
2.10267	-85
2.10633	-84
2.11000	-84
2.11367	-84
2.11733	-84
2.12100	-84
2.12467	-84
2.12833	-83
2.13200	-83
2.13567	-82
2.13933	-81
2.14300	-81
2.14667	-80
2.15033	-80
2.15400	-79
2.15767	-79
2.16133	-79
2.16500	-79
2.16867	-79
2.17233	-79
2.17600	-79
2.17967	-80
2.18333	-80
2.18700	-81
2.19067	-80
2.19433	-80
2.19800	-79
2.20167	-79
2.20533	-79
2.20900	-79
2.21267	-79
2.21633	-79
2.22000	-78
2.22367	-78
2.22733	-77
2.23100	-76
2.23467	-75
2.23833	-74
2.24200	-73
2.24567	-73
2.24933	-73
2.25300	-73
2.25667	-73
2.26033	-73
2.26400	-74
2.26767	-74
2.27133	-74
2.27500	-73
2.27867	-73
2.28233	-72
2.28600	-71
2.28967	-70
2.29333	-70
2.29700	-69
2.30067	-69
2.30433	-69
2.30800	-69
2.31167	-69
2.31533	-69
2.31900	-69
2.32267	-69
2.32633	-69
2.33000	-69
2.33367	-69
2.33733	-69
2.34100	-68
2.34467	-67
2.34833	-66
2.35200	-64
2.35567	-63
2.35933	-61
2.36300	-60
2.36667	-58
2.37033	-57
2.37400	-54
2.37767	-51
2.38133	-48
2.38500	-45
2.38867	-41
2.39233	-37
2.39600	-33
2.39967	-29
2.40333	-25
2.40700	-21
2.41067	-17
2.41433	-14
2.41800	-11
2.42167	-9
2.42533	-7
2.42900	-5
2.43267	-3
2.43633	-1
2.44000	1
2.44367	2
2.44733	4
2.45100	5
2.45467	6
2.45833	7
2.46200	8
2.46567	8
2.46933	9
2.47300	10
2.47667	12
2.48033	13
2.48400	14
2.48767	14
2.49133	15
2.49500	16
2.49867	16
2.50233	17
2.50600	17
2.50967	17
2.51333	18
2.51700	18
2.52067	19
2.52433	19
2.52800	19
2.53167	19
2.53533	18
2.53900	18
2.54267	17
2.54633	17
2.55000	16
2.55367	15
2.55733	14
2.56100	13
2.56467	13
2.56833	12
2.57200	12
2.57567	12
2.57933	12
2.58300	12
2.58667	13
2.59033	14
2.59400	14
2.59767	15
2.60133	16
2.60500	17
2.60867	17
2.61233	18
2.61600	18
2.61967	18
2.62333	18
2.62700	18
2.63067	18
2.63433	18
2.63800	18
2.64167	18
2.64533	19
2.64900	19
2.65267	20
2.65633	20
2.66000	21
2.66367	22
2.66733	22
2.67100	23
2.67467	24
2.67833	24
2.68200	25
2.68567	25
2.68933	25
2.69300	25
2.69667	25
2.70033	25
2.70400	24
2.70767	24
2.71133	24
2.71500	24
2.71867	24
2.72233	24
2.72600	25
2.72967	25
2.73333	25
2.73700	26
2.74067	26
2.74433	27
2.74800	27
2.75167	28
2.75533	28
2.75900	29
2.76267	29
2.76633	29
2.77000	30
2.77367	30
2.77733	30
2.78100	30
2.78467	30
2.78833	30
2.79200	30
2.79567	29
2.79933	29
2.80300	29
2.80667	29
2.81033	29
2.81400	29
2.81767	28
2.82133	28
2.82500	28
2.82867	28
2.83233	28
2.83600	28
2.83967	28
2.84333	28
2.84700	28
2.85067	28
2.85433	27
2.85800	26
2.86167	22
2.86533	17
2.86900	8
2.87267	-4
2.87633	-20
2.88000	-41
2.88367	-68
2.88733	-100
2.89100	-137
2.89467	-180
2.89833	-228
2.90200	-280
2.90567	-336
2.90933	-395
2.91300	-457
2.91667	-520
2.92033	-585
2.92400	-650
2.92767	-714
2.93133	-776
2.93500	-836
2.93867	-892
2.94233	-946
2.94600	-1002
2.94967	-1055
2.95333	-1098
2.95700	-1120
2.96067	-1117
2.96433	-1090
2.96800	-1041
2.97167	-976
2.97533	-901
2.97900	-820
2.98267	-738
2.98633	-658
2.99000	-581
2.99367	-510
2.99733	-444
3.00100	-385
3.00467	-333
3.00833	-286
3.01200	-245
3.01567	-209
3.01933	-177
3.02300	-150
3.02667	-126
3.03033	-106
3.03400	-88
3.03767	-73
3.04133	-60
3.04500	-49
3.04867	-40
3.05233	-32
3.05600	-24
3.05967	-19
3.06333	-14
3.06700	-10
3.07067	-6
3.07433	-3
3.07800	-1
3.08167	1
3.08533	3
3.08900	5
3.09267	6
3.09633	8
3.10000	9
3.10367	11
3.10733	12
3.11100	13
3.11467	14
3.11833	15
3.12200	15
3.12567	16
3.12933	17
3.13300	17
3.13667	18
3.14033	18
3.14400	18
3.14767	19
3.15133	19
3.15500	20
3.15867	20
3.16233	20
3.16600	21
3.16967	21
3.17333	21
3.17700	22
3.18067	22
3.18433	23
3.18800	23
3.19167	24
3.19533	24
3.19900	25
3.20267	25
3.20633	25
3.21000	26
3.21367	26
3.21733	26
3.22100	27
3.22467	27
3.22833	27
3.23200	27
3.23567	27
3.23933	27
3.24300	28
3.24667	28
3.25033	29
3.25400	29
3.25767	29
3.26133	29
3.26500	29
3.26867	29
3.27233	29
3.27600	29
3.27967	29
3.28333	29
3.28700	29
3.29067	29
3.29433	29
3.29800	29
3.30167	29
3.30533	29
3.30900	29
3.31267	29
3.31633	28
3.32000	28
3.32367	28
3.32733	28
3.33100	28
3.33467	28
3.33833	28
3.34200	28
3.34567	28
3.34933	28
3.35300	28
3.35667	28
3.36033	28
3.36400	28
3.36767	28
3.37133	28
3.37500	28
3.37867	29
3.38233	29
3.38600	29
3.38967	29
3.39333	29
3.39700	29
3.40067	29
3.40433	30
3.40800	30
3.41167	29
3.41533	29
3.41900	29
3.42267	29
3.42633	29
3.43000	29
3.43367	29
3.43733	29
3.44100	29
3.44467	29
3.44833	29
3.45200	29
3.45567	29
3.45933	29
3.46300	29
3.46667	28
3.47033	28
3.47400	28
3.47767	28
3.48133	28
3.48500	28
3.48867	29
3.49233	29
3.49600	29
3.49967	29
3.50333	29
3.50700	29
3.51067	29
3.51433	29
3.51800	29
3.52167	29
3.52533	30
3.52900	30
3.53267	30
3.53633	30
3.54000	30
3.54367	30
3.54733	30
3.55100	30
3.55467	30
3.55833	30
3.56200	30
3.56567	30
3.56933	30
3.57300	30
3.57667	30
3.58033	30
3.58400	30
3.58767	30
3.59133	30
3.59500	30
3.59867	29
3.60233	29
3.60600	29
3.60967	30
3.61333	30
3.61700	30
3.62067	30
3.62433	30
3.62800	30
3.63167	29
3.63533	29
3.63900	29
3.64267	29
3.64633	29
3.65000	29
3.65367	29
3.65733	29
3.66100	29
3.66467	29
3.66833	29
3.67200	29
3.67567	29
3.67933	29
3.68300	30
3.68667	30
3.69033	30
3.69400	30
3.69767	29
3.70133	29
3.70500	30
3.70867	30
3.71233	30
3.71600	30
3.71967	30
3.72333	30
3.72700	29
3.73067	29
3.73433	30
3.73800	30
3.74167	30
3.74533	30
3.74900	30
3.75267	30
3.75633	30
3.76000	30
3.76367	30
3.76733	30
3.77100	30
3.77467	29
3.77833	29
3.78200	29
3.78567	29
3.78933	29
3.79300	29
3.79667	29
3.80033	29
3.80400	30
3.80767	30
3.81133	30
3.81500	30
3.81867	30
3.82233	30
3.82600	30
3.82967	30
3.83333	30
3.83700	30
3.84067	30
3.84433	30
3.84800	30
3.85167	30
3.85533	30
3.85900	30
3.86267	31
3.86633	31
3.87000	31
3.87367	31
3.87733	31
3.88100	30
3.88467	30
3.88833	30
3.89200	30
3.89567	30
3.89933	30
3.90300	30
3.90667	30
3.91033	30
3.91400	30
3.91767	30
3.92133	30
3.92500	30
3.92867	30
3.93233	31
3.93600	31
3.93967	31
3.94333	31
3.94700	31
3.95067	31
3.95433	31
3.95800	31
3.96167	31
3.96533	31
3.96900	31
3.97267	31
3.97633	31
3.98000	31
3.98367	31
3.98733	30
3.99100	30
3.99467	30
3.99833	30

[Chromatogram (Ch3)]
Interval(msec)	220
# of Points	1091
Start Time(min)	0.002
End Time(min)	3.998
R.Time (min)	Intensity
0.00167	0
0.00533	-2
0.00900	-3
0.01267	-3
0.01633	-2
0.02000	-2
0.02367	-2
0.02733	-3
0.03100	-3
0.03467	-3
0.03833	-4
0.04200	-4
0.04567	-3
0.04933	-3
0.05300	-3
0.05667	-4
0.06033	-6
0.06400	-7
0.06767	-7
0.07133	-7
0.07500	-5
0.07867	-3
0.08233	-2
0.08600	-1
0.08967	-0
0.09333	-1
0.09700	-1
0.10067	-0
0.10433	0
0.10800	2
0.11167	3
0.11533	4
0.11900	3
0.12267	1
0.12633	-3
0.13000	-5
0.13367	-6
0.13733	-6
0.14100	-7
0.14467	-8
0.14833	-8
0.15200	-6
0.15567	-5
0.15933	-4
0.16300	-2
0.16667	-2
0.17033	-3
0.17400	-2
0.17767	-4
0.18133	-5
0.18500	-3
0.18867	1
0.19233	-1
0.19600	-2
0.19967	-2
0.20333	-4
0.20700	-6
0.21067	-8
0.21433	-7
0.21800	-6
0.22167	-7
0.22533	-5
0.22900	-3
0.23267	-4
0.23633	-9
0.24000	-12
0.24367	-11
0.24733	-11
0.25100	-11
0.25467	-7
0.25833	-4
0.26200	-3
0.26567	-3
0.26933	-2
0.27300	-5
0.27667	-7
0.28033	-8
0.28400	-6
0.28767	-6
0.29133	-6
0.29500	-6
0.29867	-6
0.30233	-6
0.30600	-7
0.30967	-7
0.31333	-6
0.31700	-5
0.32067	-5
0.32433	-6
0.32800	-6
0.33167	-7
0.33533	-9
0.33900	-8
0.34267	-9
0.34633	-10
0.35000	-8
0.35367	-7
0.35733	-5
0.36100	-2
0.36467	-4
0.36833	-3
0.37200	-0
0.37567	1
0.37933	-1
0.38300	-1
0.38667	-1
0.39033	-2
0.39400	-1
0.39767	-1
0.40133	0
0.40500	2
0.40867	1
0.41233	-3
0.41600	-5
0.41967	-5
0.42333	-6
0.42700	-7
0.43067	-8
0.43433	-6
0.43800	-3
0.44167	-2
0.44533	-3
0.44900	-4
0.45267	-4
0.45633	-3
0.46000	-2
0.46367	-4
0.46733	-6
0.47100	-9
0.47467	-11
0.47833	-10
0.48200	-10
0.48567	-8
0.48933	-6
0.49300	-1
0.49667	2
0.50033	1
0.50400	1
0.50767	-2
0.51133	-2
0.51500	-2
0.51867	-2
0.52233	-4
0.52600	-5
0.52967	-5
0.53333	-4
0.53700	-3
0.54067	-4
0.54433	-5
0.54800	-2
0.55167	-2
0.55533	-1
0.55900	0
0.56267	-1
0.56633	-2
0.57000	-1
0.57367	-1
0.57733	-2
0.58100	-4
0.58467	-5
0.58833	-2
0.59200	-3
0.59567	-5
0.59933	-6
0.60300	-5
0.60667	-5
0.61033	-4
0.61400	-2
0.61767	-3
0.62133	-3
0.62500	-2
0.62867	-2
0.63233	-3
0.63600	-3
0.63967	-3
0.64333	-3
0.64700	-1
0.65067	0
0.65433	-1
0.65800	-1
0.66167	-3
0.66533	-3
0.66900	0
0.67267	1
0.67633	0
0.68000	0
0.68367	-1
0.68733	-2
0.69100	-4
0.69467	-6
0.69833	-6
0.70200	-4
0.70567	-2
0.70933	-2
0.71300	-1
0.71667	1
0.72033	1
0.72400	3
0.72767	4
0.73133	4
0.73500	2
0.73867	3
0.74233	3
0.74600	2
0.74967	3
0.75333	5
0.75700	4
0.76067	3
0.76433	5
0.76800	5
0.77167	3
0.77533	1
0.77900	0
0.78267	0
0.78633	1
0.79000	5
0.79367	6
0.79733	5
0.80100	6
0.80467	7
0.80833	5
0.81200	2
0.81567	3
0.81933	1
0.82300	1
0.82667	4
0.83033	4
0.83400	4
0.83767	3
0.84133	3
0.84500	2
0.84867	1
0.85233	1
0.85600	-1
0.85967	-0
0.86333	-0
0.86700	-0
0.87067	-2
0.87433	-4
0.87800	-6
0.88167	-4
0.88533	-1
0.88900	-0
0.89267	-1
0.89633	-2
0.90000	-3
0.90367	-4
0.90733	-3
0.91100	-4
0.91467	-6
0.91833	-3
0.92200	-2
0.92567	-2
0.92933	-2
0.93300	-2
0.93667	-2
0.94033	-1
0.94400	-2
0.94767	-2
0.95133	-1
0.95500	-2
0.95867	-3
0.96233	-1
0.96600	2
0.96967	3
0.97333	3
0.97700	4
0.98067	3
0.98433	1
0.98800	2
0.99167	4
0.99533	2
0.99900	1
1.00267	-1
1.00633	-1
1.01000	1
1.01367	2
1.01733	1
1.02100	2
1.02467	4
1.02833	3
1.03200	-0
1.03567	2
1.03933	5
1.04300	3
1.04667	4
1.05033	6
1.05400	6
1.05767	3
1.06133	2
1.06500	4
1.06867	3
1.07233	2
1.07600	1
1.07967	2
1.08333	4
1.08700	6
1.09067	4
1.09433	1
1.09800	1
1.10167	-1
1.10533	-1
1.10900	-0
1.11267	2
1.11633	5
1.12000	6
1.12367	7
1.12733	7
1.13100	5
1.13467	4
1.13833	2
1.14200	-1
1.14567	-2
1.14933	0
1.15300	2
1.15667	3
1.16033	2
1.16400	1
1.16767	2
1.17133	3
1.17500	4
1.17867	5
1.18233	6
1.18600	6
1.18967	3
1.19333	3
1.19700	4
1.20067	5
1.20433	5
1.20800	6
1.21167	9
1.21533	10
1.21900	8
1.22267	7
1.22633	5
1.23000	3
1.23367	3
1.23733	3
1.24100	2
1.24467	-0
1.24833	2
1.25200	2
1.25567	1
1.25933	1
1.26300	0
1.26667	-0
1.27033	1
1.27400	4
1.27767	7
1.28133	8
1.28500	8
1.28867	8
1.29233	7
1.29600	4
1.29967	4
1.30333	6
1.30700	5
1.31067	4
1.31433	4
1.31800	5
1.32167	5
1.32533	5
1.32900	3
1.33267	0
1.33633	-0
1.34000	-1
1.34367	-4
1.34733	-5
1.35100	-4
1.35467	-1
1.35833	0
1.36200	2
1.36567	2
1.36933	2
1.37300	4
1.37667	5
1.38033	3
1.38400	4
1.38767	3
1.39133	3
1.39500	5
1.39867	7
1.40233	6
1.40600	4
1.40967	4
1.41333	4
1.41700	3
1.42067	3
1.42433	4
1.42800	6
1.43167	5
1.43533	7
1.43900	8
1.44267	8
1.44633	5
1.45000	3
1.45367	3
1.45733	4
1.46100	5
1.46467	5
1.46833	3
1.47200	-0
1.47567	-1
1.47933	1
1.48300	4
1.48667	5
1.49033	5
1.49400	4
1.49767	3
1.50133	6
1.50500	7
1.50867	6
1.51233	4
1.51600	4
1.51967	3
1.52333	4
1.52700	6
1.53067	6
1.53433	4
1.53800	2
1.54167	3
1.54533	4
1.54900	6
1.55267	6
1.55633	4
1.56000	2
1.56367	4
1.56733	4
1.57100	2
1.57467	1
1.57833	1
1.58200	2
1.58567	4
1.58933	4
1.59300	3
1.59667	4
1.60033	5
1.60400	5
1.60767	5
1.61133	8
1.61500	9
1.61867	10
1.62233	9
1.62600	8
1.62967	6
1.63333	4
1.63700	2
1.64067	3
1.64433	6
1.64800	7
1.65167	7
1.65533	9
1.65900	10
1.66267	10
1.66633	10
1.67000	12
1.67367	15
1.67733	15
1.68100	12
1.68467	11
1.68833	13
1.69200	14
1.69567	14
1.69933	15
1.70300	16
1.70667	16
1.71033	15
1.71400	11
1.71767	11
1.72133	12
1.72500	10
1.72867	9
1.73233	9
1.73600	13
1.73967	14
1.74333	14
1.74700	15
1.75067	14
1.75433	14
1.75800	16
1.76167	17
1.76533	16
1.76900	18
1.77267	19
1.77633	18
1.78000	17
1.78367	16
1.78733	16
1.79100	17
1.79467	16
1.79833	14
1.80200	15
1.80567	17
1.80933	19
1.81300	22
1.81667	22
1.82033	21
1.82400	19
1.82767	20
1.83133	21
1.83500	21
1.83867	20
1.84233	19
1.84600	19
1.84967	19
1.85333	17
1.85700	16
1.86067	16
1.86433	18
1.86800	20
1.87167	21
1.87533	21
1.87900	19
1.88267	19
1.88633	20
1.89000	20
1.89367	20
1.89733	21
1.90100	22
1.90467	24
1.90833	27
1.91200	30
1.91567	29
1.91933	27
1.92300	27
1.92667	28
1.93033	29
1.93400	30
1.93767	30
1.94133	31
1.94500	31
1.94867	29
1.95233	28
1.95600	27
1.95967	27
1.96333	29
1.96700	31
1.97067	33
1.97433	32
1.97800	31
1.98167	30
1.98533	29
1.98900	30
1.99267	30
1.99633	32
2.00000	34
2.00367	36
2.00733	39
2.01100	42
2.01467	44
2.01833	48
2.02200	50
2.02567	53
2.02933	52
2.03300	52
2.03667	51
2.04033	52
2.04400	53
2.04767	53
2.05133	54
2.05500	54
2.05867	54
2.06233	54
2.06600	55
2.06967	56
2.07333	56
2.07700	57
2.08067	55
2.08433	53
2.08800	53
2.09167	55
2.09533	56
2.09900	54
2.10267	54
2.10633	52
2.11000	52
2.11367	50
2.11733	50
2.12100	52
2.12467	55
2.12833	59
2.13200	64
2.13567	65
2.13933	64
2.14300	63
2.14667	62
2.15033	63
2.15400	65
2.15767	66
2.16133	69
2.16500	70
2.16867	72
2.17233	72
2.17600	72
2.17967	74
2.18333	75
2.18700	74
2.19067	71
2.19433	70
2.19800	71
2.20167	75
2.20533	77
2.20900	76
2.21267	77
2.21633	80
2.22000	82
2.22367	83
2.22733	82
2.23100	83
2.23467	86
2.23833	87
2.24200	87
2.24567	88
2.24933	89
2.25300	91
2.25667	94
2.26033	94
2.26400	92
2.26767	94
2.27133	94
2.27500	92
2.27867	90
2.28233	89
2.28600	91
2.28967	95
2.29333	98
2.29700	97
2.30067	97
2.30433	100
2.30800	102
2.31167	105
2.31533	103
2.31900	101
2.32267	102
2.32633	101
2.33000	103
2.33367	104
2.33733	101
2.34100	102
2.34467	103
2.34833	102
2.35200	102
2.35567	102
2.35933	102
2.36300	104
2.36667	106
2.37033	108
2.37400	109
2.37767	111
2.38133	112
2.38500	108
2.38867	103
2.39233	104
2.39600	108
2.39967	115
2.40333	121
2.40700	125
2.41067	129
2.41433	130
2.41800	129
2.42167	127
2.42533	127
2.42900	131
2.43267	134
2.43633	135
2.44000	141
2.44367	190
2.44733	275
2.45100	351
2.45467	403
2.45833	422
2.46200	413
2.46567	393
2.46933	374
2.47300	360
2.47667	349
2.48033	336
2.48400	316
2.48767	291
2.49133	267
2.49500	246
2.49867	231
2.50233	222
2.50600	218
2.50967	220
2.51333	224
2.51700	229
2.52067	235
2.52433	237
2.52800	235
2.53167	228
2.53533	218
2.53900	207
2.54267	193
2.54633	180
2.55000	167
2.55367	156
2.55733	147
2.56100	141
2.56467	138
2.56833	135
2.57200	132
2.57567	134
2.57933	137
2.58300	141
2.58667	144
2.59033	146
2.59400	152
2.59767	159
2.60133	166
2.60500	173
2.60867	181
2.61233	188
2.61600	193
2.61967	198
2.62333	198
2.62700	195
2.63067	191
2.63433	186
2.63800	178
2.64167	171
2.64533	162
2.64900	152
2.65267	142
2.65633	132
2.66000	123
2.66367	115
2.66733	109
2.67100	99
2.67467	91
2.67833	86
2.68200	84
2.68567	80
2.68933	75
2.69300	71
2.69667	70
2.70033	70
2.70400	68
2.70767	66
2.71133	65
2.71500	62
2.71867	59
2.72233	58
2.72600	59
2.72967	59
2.73333	60
2.73700	62
2.74067	62
2.74433	58
2.74800	54
2.75167	54
2.75533	58
2.75900	59
2.76267	58
2.76633	58
2.77000	60
2.77367	62
2.77733	66
2.78100	69
2.78467	71
2.78833	73
2.79200	74
2.79567	77
2.79933	80
2.80300	81
2.80667	82
2.81033	82
2.81400	82
2.81767	84
2.82133	87
2.82500	90
2.82867	93
2.83233	96
2.83600	103
2.83967	122
2.84333	163
2.84700	243
2.85067	381
2.85433	595
2.85800	897
2.86167	1283
2.86533	1739
2.86900	2232
2.87267	2725
2.87633	3178
2.88000	3553
2.88367	3818
2.88733	3963
2.89100	3984
2.89467	3900
2.89833	3733
2.90200	3500
2.90567	3226
2.90933	2935
2.91300	2644
2.91667	2362
2.92033	2095
2.92400	1844
2.92767	1615
2.93133	1411
2.93500	1231
2.93867	1071
2.94233	930
2.94600	805
2.94967	695
2.95333	602
2.95700	519
2.96067	446
2.96433	386
2.96800	334
2.97167	288
2.97533	249
2.97900	217
2.98267	189
2.98633	166
2.99000	145
2.99367	128
2.99733	113
3.00100	101
3.00467	90
3.00833	81
3.01200	72
3.01567	61
3.01933	54
3.02300	51
3.02667	49
3.03033	48
3.03400	46
3.03767	44
3.04133	41
3.04500	29
3.04867	3
3.05233	-11
3.05600	11
3.05967	71
3.06333	160
3.06700	265
3.07067	372
3.07433	477
3.07800	574
3.08167	663
3.08533	742
3.08900	811
3.09267	872
3.09633	921
3.10000	958
3.10367	988
3.10733	1012
3.11100	1030
3.11467	1041
3.11833	1050
3.12200	1056
3.12567	1060
3.12933	1062
3.13300	1064
3.13667	1064
3.14033	1064
3.14400	1064
3.14767	1060
3.15133	1055
3.15500	1052
3.15867	1051
3.16233	1049
3.16600	1047
3.16967	1045
3.17333	1044
3.17700	1043
3.18067	1040
3.18433	1038
3.18800	1037
3.19167	1033
3.19533	1027
3.19900	1025
3.20267	1023
3.20633	1020
3.21000	1019
3.21367	1020
3.21733	1020
3.22100	1020
3.22467	1019
3.22833	1016
3.23200	1015
3.23567	1014
3.23933	1012
3.24300	1012
3.24667	1014
3.25033	1014
3.25400	1011
3.25767	1008
3.26133	1002
3.26500	997
3.26867	996
3.27233	993
3.27600	990
3.27967	986
3.28333	981
3.28700	975
3.29067	969
3.29433	965
3.29800	964
3.30167	960
3.30533	954
3.30900	948
3.31267	943
3.31633	936
3.32000	932
3.32367	925
3.32733	918
3.33100	914
3.33467	908
3.33833	906
3.34200	904
3.34567	902
3.34933	899
3.35300	897
3.35667	892
3.36033	887
3.36400	882
3.36767	879
3.37133	876
3.37500	875
3.37867	875
3.38233	873
3.38600	869
3.38967	868
3.39333	867
3.39700	865
3.40067	863
3.40433	862
3.40800	859
3.41167	857
3.41533	856
3.41900	855
3.42267	857
3.42633	855
3.43000	855
3.43367	854
3.43733	853
3.44100	853
3.44467	853
3.44833	853
3.45200	850
3.45567	849
3.45933	847
3.46300	845
3.46667	841
3.47033	841
3.47400	843
3.47767	845
3.48133	843
3.48500	841
3.48867	840
3.49233	841
3.49600	840
3.49967	841
3.50333	841
3.50700	840
3.51067	838
3.51433	839
3.51800	839
3.52167	838
3.52533	841
3.52900	843
3.53267	841
3.53633	839
3.54000	838
3.54367	838
3.54733	839
3.55100	838
3.55467	839
3.55833	836
3.56200	833
3.56567	830
3.56933	828
3.57300	826
3.57667	822
3.58033	817
3.58400	814
3.58767	811
3.59133	806
3.59500	803
3.59867	800
3.60233	798
3.60600	796
3.60967	793
3.61333	789
3.61700	785
3.62067	783
3.62433	781
3.62800	777
3.63167	774
3.63533	769
3.63900	768
3.64267	769
3.64633	768
3.65000	766
3.65367	764
3.65733	761
3.66100	758
3.66467	754
3.66833	753
3.67200	752
3.67567	749
3.67933	745
3.68300	743
3.68667	742
3.69033	742
3.69400	740
3.69767	739
3.70133	737
3.70500	735
3.70867	733
3.71233	733
3.71600	733
3.71967	730
3.72333	725
3.72700	721
3.73067	718
3.73433	715
3.73800	713
3.74167	712
3.74533	712
3.74900	709
3.75267	707
3.75633	705
3.76000	704
3.76367	701
3.76733	699
3.77100	695
3.77467	692
3.77833	690
3.78200	689
3.78567	688
3.78933	687
3.79300	687
3.79667	685
3.80033	683
3.80400	681
3.80767	677
3.81133	677
3.81500	677
3.81867	677
3.82233	676
3.82600	675
3.82967	675
3.83333	675
3.83700	676
3.84067	673
3.84433	668
3.84800	665
3.85167	665
3.85533	664
3.85900	662
3.86267	661
3.86633	659
3.87000	657
3.87367	656
3.87733	654
3.88100	653
3.88467	650
3.88833	646
3.89200	644
3.89567	643
3.89933	643
3.90300	643
3.90667	643
3.91033	642
3.91400	642
3.91767	640
3.92133	638
3.92500	637
3.92867	637
3.93233	635
3.93600	632
3.93967	630
3.94333	629
3.94700	629
3.95067	628
3.95433	627
3.95800	626
3.96167	622
3.96533	620
3.96900	620
3.97267	621
3.97633	621
3.98000	619
3.98367	616
3.98733	612
3.99100	610
3.99467	607
3.99833	602

[Status Trace (Column Oven Temperature)]
Interval(msec)	1000
# of Points	240
Start Time(min)	0.005
End Time(min)	3.989
Intensity Units	
Intensity Multiplier	1
R.Time (min)	Intensity
0.00533	35.03
0.02200	35.03
0.03867	35.02
0.05533	35.03
0.07200	35.02
0.08867	35.03
0.10533	35.02
0.12200	35.02
0.13867	35.02
0.15533	35.02
0.17200	35.02
0.18867	35.01
0.20533	35.01
0.22200	35.01
0.23867	35.01
0.25533	35.02
0.27200	35.01
0.28867	35.01
0.30533	35.00
0.32200	35.01
0.33867	35.01
0.35533	35.02
0.37200	35.02
0.38867	35.02
0.40533	35.01
0.42200	35.00
0.43867	34.99
0.45533	34.98
0.47200	34.98
0.48867	34.99
0.50533	34.99
0.52200	35.00
0.53867	35.00
0.55533	35.00
0.57200	35.01
0.58867	35.01
0.60533	35.00
0.62200	35.00
0.63867	35.00
0.65533	35.00
0.67200	35.00
0.68867	35.00
0.70533	35.00
0.72200	35.00
0.73867	35.00
0.75533	35.00
0.77200	35.00
0.78867	35.00
0.80533	35.00
0.82200	34.99
0.83867	34.98
0.85533	34.98
0.87200	34.99
0.88867	34.99
0.90533	34.99
0.92200	35.00
0.93867	34.99
0.95533	34.99
0.97200	34.99
0.98867	35.00
1.00533	34.99
1.02200	34.99
1.03867	34.99
1.05533	34.99
1.07200	34.99
1.08867	34.99
1.10533	34.99
1.12200	35.00
1.13867	35.00
1.15533	34.99
1.17200	35.00
1.18867	35.00
1.20533	34.99
1.22200	34.99
1.23867	34.99
1.25533	34.99
1.27200	34.99
1.28867	35.01
1.30533	35.01
1.32200	35.02
1.33867	35.01
1.35533	35.00
1.37200	34.99
1.38867	34.99
1.40533	34.99
1.42200	34.99
1.43867	34.99
1.45533	35.00
1.47200	34.99
1.48867	34.99
1.50533	34.98
1.52200	34.98
1.53867	34.98
1.55533	34.98
1.57200	34.98
1.58867	34.99
1.60533	35.03
1.62200	35.15
1.63867	35.35
1.65533	35.59
1.67200	35.92
1.68867	36.27
1.70533	36.63
1.72200	36.97
1.73867	37.29
1.75533	37.64
1.77200	37.97
1.78867	38.28
1.80533	38.62
1.82200	38.97
1.83867	39.28
1.85533	39.62
1.87200	39.96
1.88867	40.27
1.90533	40.60
1.92200	40.94
1.93867	41.26
1.95533	41.59
1.97200	41.93
1.98867	42.24
2.00533	42.58
2.02200	42.91
2.03867	43.22
2.05533	43.56
2.07200	43.88
2.08867	44.21
2.10533	44.53
2.12200	44.87
2.13867	45.19
2.15533	45.51
2.17200	45.84
2.18867	46.17
2.20533	46.51
2.22200	46.84
2.23867	47.15
2.25533	47.48
2.27200	47.82
2.28867	48.14
2.30533	48.47
2.32200	48.80
2.33867	49.12
2.35533	49.40
2.37200	49.61
2.38867	49.71
2.40533	49.72
2.42200	49.72
2.43867	49.72
2.45533	49.74
2.47200	49.75
2.48867	49.76
2.50533	49.77
2.52200	49.78
2.53867	49.80
2.55533	49.81
2.57200	49.81
2.58867	49.82
2.60533	49.83
2.62200	49.84
2.63867	49.85
2.65533	49.86
2.67200	49.84
2.68867	49.85
2.70533	49.87
2.72200	49.88
2.73867	49.88
2.75533	49.87
2.77200	49.87
2.78867	49.87
2.80533	49.88
2.82200	49.89
2.83867	49.90
2.85533	49.92
2.87200	49.94
2.88867	49.95
2.90533	49.96
2.92200	49.96
2.93867	49.97
2.95533	49.99
2.97200	49.99
2.98867	50.00
3.00533	50.00
3.02200	50.01
3.03867	50.03
3.05533	50.04
3.07200	50.07
3.08867	50.08
3.10533	50.08
3.12200	50.09
3.13867	50.10
3.15533	50.11
3.17200	50.11
3.18867	50.09
3.20533	50.08
3.22200	50.08
3.23867	50.07
3.25533	50.06
3.27200	50.06
3.28867	50.05
3.30533	50.05
3.32200	50.06
3.33867	50.06
3.35533	50.05
3.37200	50.06
3.38867	50.05
3.40533	50.06
3.42200	50.06
3.43867	50.07
3.45533	50.07
3.47200	50.07
3.48867	50.07
3.50533	50.07
3.52200	50.06
3.53867	50.07
3.55533	50.07
3.57200	50.07
3.58867	50.07
3.60533	50.07
3.62200	50.08
3.63867	50.08
3.65533	50.08
3.67200	50.09
3.68867	50.09
3.70533	50.08
3.72200	50.09
3.73867	50.09
3.75533	50.09
3.77200	50.09
3.78867	50.10
3.80533	50.10
3.82200	50.10
3.83867	50.09
3.85533	50.08
3.87200	50.08
3.88867	50.08
3.90533	50.08
3.92200	50.08
3.93867	50.07
3.95533	50.06
3.97200	50.06
3.98867	50.06

[Status Trace (Injection Unit Temperature)]
Interval(msec)	1000
# of Points	240
Start Time(min)	0.005
End Time(min)	3.989
Intensity Units	
Intensity Multiplier	1
R.Time (min)	Intensity
0.00533	99.98
0.02200	99.98
0.03867	99.98
0.05533	99.98
0.07200	99.98
0.08867	99.98
0.10533	99.98
0.12200	99.98
0.13867	99.98
0.15533	99.98
0.17200	99.97
0.18867	99.98
0.20533	99.98
0.22200	99.98
0.23867	99.98
0.25533	99.98
0.27200	99.98
0.28867	99.98
0.30533	99.98
0.32200	99.98
0.33867	99.98
0.35533	99.98
0.37200	99.98
0.38867	99.98
0.40533	99.98
0.42200	99.98
0.43867	99.98
0.45533	99.98
0.47200	99.98
0.48867	99.98
0.50533	99.98
0.52200	99.98
0.53867	99.98
0.55533	99.98
0.57200	99.98
0.58867	99.98
0.60533	99.98
0.62200	99.98
0.63867	99.98
0.65533	99.98
0.67200	99.98
0.68867	99.98
0.70533	99.98
0.72200	99.98
0.73867	99.98
0.75533	99.98
0.77200	99.98
0.78867	99.98
0.80533	99.98
0.82200	99.98
0.83867	99.98
0.85533	99.98
0.87200	99.98
0.88867	99.98
0.90533	99.98
0.92200	99.98
0.93867	99.98
0.95533	99.98
0.97200	99.98
0.98867	99.98
1.00533	99.98
1.02200	99.98
1.03867	99.98
1.05533	99.98
1.07200	99.98
1.08867	99.98
1.10533	99.98
1.12200	99.98
1.13867	99.98
1.15533	99.98
1.17200	99.98
1.18867	99.98
1.20533	99.98
1.22200	99.98
1.23867	99.98
1.25533	99.98
1.27200	99.98
1.28867	99.98
1.30533	99.98
1.32200	99.98
1.33867	99.98
1.35533	99.98
1.37200	99.98
1.38867	99.98
1.40533	99.98
1.42200	99.98
1.43867	99.98
1.45533	99.98
1.47200	99.98
1.48867	99.98
1.50533	99.98
1.52200	99.98
1.53867	99.98
1.55533	99.98
1.57200	99.98
1.58867	99.98
1.60533	99.98
1.62200	99.98
1.63867	99.98
1.65533	99.98
1.67200	99.98
1.68867	99.98
1.70533	99.98
1.72200	99.98
1.73867	99.98
1.75533	99.98
1.77200	99.98
1.78867	99.98
1.80533	99.98
1.82200	99.98
1.83867	99.98
1.85533	99.97
1.87200	99.98
1.88867	99.97
1.90533	99.98
1.92200	99.97
1.93867	99.97
1.95533	99.97
1.97200	99.97
1.98867	99.97
2.00533	99.97
2.02200	99.97
2.03867	99.96
2.05533	99.96
2.07200	99.97
2.08867	99.96
2.10533	99.97
2.12200	99.96
2.13867	99.96
2.15533	99.96
2.17200	99.96
2.18867	99.96
2.20533	99.97
2.22200	99.96
2.23867	99.96
2.25533	99.96
2.27200	99.96
2.28867	99.96
2.30533	99.96
2.32200	99.96
2.33867	99.96
2.35533	99.96
2.37200	99.96
2.38867	99.96
2.40533	99.96
2.42200	99.96
2.43867	99.96
2.45533	99.96
2.47200	99.96
2.48867	99.96
2.50533	99.97
2.52200	99.96
2.53867	99.96
2.55533	99.96
2.57200	99.97
2.58867	99.97
2.60533	99.97
2.62200	99.96
2.63867	99.97
2.65533	99.97
2.67200	99.97
2.68867	99.97
2.70533	99.97
2.72200	99.98
2.73867	99.98
2.75533	99.98
2.77200	99.98
2.78867	99.99
2.80533	99.99
2.82200	99.98
2.83867	99.99
2.85533	99.99
2.87200	100.00
2.88867	100.00
2.90533	100.00
2.92200	100.00
2.93867	100.00
2.95533	100.00
2.97200	100.00
2.98867	100.01
3.00533	100.01
3.02200	100.01
3.03867	100.01
3.05533	100.01
3.07200	100.01
3.08867	100.02
3.10533	100.02
3.12200	100.02
3.13867	100.02
3.15533	100.02
3.17200	100.02
3.18867	100.02
3.20533	100.02
3.22200	100.02
3.23867	100.03
3.25533	100.03
3.27200	100.03
3.28867	100.03
3.30533	100.03
3.32200	100.03
3.33867	100.03
3.35533	100.04
3.37200	100.03
3.38867	100.03
3.40533	100.04
3.42200	100.03
3.43867	100.04
3.45533	100.04
3.47200	100.03
3.48867	100.04
3.50533	100.04
3.52200	100.04
3.53867	100.04
3.55533	100.04
3.57200	100.04
3.58867	100.04
3.60533	100.04
3.62200	100.04
3.63867	100.04
3.65533	100.04
3.67200	100.04
3.68867	100.04
3.70533	100.04
3.72200	100.04
3.73867	100.05
3.75533	100.05
3.77200	100.04
3.78867	100.04
3.80533	100.04
3.82200	100.04
3.83867	100.05
3.85533	100.05
3.87200	100.05
3.88867	100.05
3.90533	100.05
3.92200	100.05
3.93867	100.05
3.95533	100.05
3.97200	100.04
3.98867	100.05

[Status Trace (Carrier Gas Pressure)]
Interval(msec)	1000
# of Points	240
Start Time(min)	0.005
End Time(min)	3.989
Intensity Units	
Intensity Multiplier	1
R.Time (min)	Intensity
0.00533	58.00
0.02200	55.82
0.03867	56.70
0.05533	58.93
0.07200	59.76
0.08867	58.18
0.10533	57.98
0.12200	58.00
0.13867	58.01
0.15533	58.01
0.17200	58.00
0.18867	58.00
0.20533	58.00
0.22200	58.00
0.23867	58.00
0.25533	58.00
0.27200	58.00
0.28867	58.00
0.30533	58.00
0.32200	58.00
0.33867	58.00
0.35533	58.00
0.37200	58.00
0.38867	58.00
0.40533	58.00
0.42200	58.00
0.43867	58.00
0.45533	58.00
0.47200	58.00
0.48867	58.00
0.50533	58.00
0.52200	58.00
0.53867	58.00
0.55533	58.00
0.57200	58.00
0.58867	58.00
0.60533	58.00
0.62200	58.00
0.63867	58.00
0.65533	58.00
0.67200	58.00
0.68867	58.00
0.70533	58.00
0.72200	58.00
0.73867	58.00
0.75533	58.00
0.77200	58.00
0.78867	58.00
0.80533	58.00
0.82200	58.00
0.83867	58.00
0.85533	58.00
0.87200	58.00
0.88867	58.00
0.90533	58.00
0.92200	58.00
0.93867	58.00
0.95533	58.00
0.97200	58.00
0.98867	58.00
1.00533	58.00
1.02200	58.00
1.03867	58.00
1.05533	58.00
1.07200	58.00
1.08867	58.00
1.10533	58.00
1.12200	58.00
1.13867	58.00
1.15533	58.00
1.17200	58.00
1.18867	58.00
1.20533	58.00
1.22200	58.00
1.23867	58.00
1.25533	58.00
1.27200	58.00
1.28867	58.00
1.30533	58.00
1.32200	58.00
1.33867	58.00
1.35533	58.00
1.37200	58.00
1.38867	58.00
1.40533	58.00
1.42200	58.00
1.43867	58.00
1.45533	58.00
1.47200	58.00
1.48867	58.00
1.50533	58.00
1.52200	58.00
1.53867	58.00
1.55533	58.00
1.57200	58.00
1.58867	58.00
1.60533	58.00
1.62200	58.00
1.63867	58.00
1.65533	58.01
1.67200	58.00
1.68867	58.01
1.70533	58.00
1.72200	58.00
1.73867	58.00
1.75533	58.00
1.77200	58.00
1.78867	58.00
1.80533	58.00
1.82200	58.00
1.83867	58.00
1.85533	58.00
1.87200	58.00
1.88867	58.00
1.90533	58.00
1.92200	58.00
1.93867	58.00
1.95533	58.00
1.97200	58.00
1.98867	58.00
2.00533	58.00
2.02200	58.00
2.03867	58.00
2.05533	58.00
2.07200	58.00
2.08867	58.00
2.10533	58.00
2.12200	58.00
2.13867	58.00
2.15533	58.00
2.17200	58.00
2.18867	58.00
2.20533	58.00
2.22200	58.00
2.23867	58.00
2.25533	58.00
2.27200	58.00
2.28867	58.00
2.30533	58.00
2.32200	58.00
2.33867	58.00
2.35533	58.00
2.37200	58.00
2.38867	57.99
2.40533	57.99
2.42200	58.00
2.43867	58.00
2.45533	58.00
2.47200	58.00
2.48867	58.00
2.50533	57.99
2.52200	57.99
2.53867	58.00
2.55533	58.00
2.57200	58.00
2.58867	58.00
2.60533	58.00
2.62200	58.00
2.63867	58.00
2.65533	58.00
2.67200	58.00
2.68867	58.00
2.70533	58.00
2.72200	58.00
2.73867	58.00
2.75533	58.00
2.77200	58.00
2.78867	58.00
2.80533	58.00
2.82200	58.00
2.83867	58.00
2.85533	58.00
2.87200	58.00
2.88867	58.00
2.90533	58.00
2.92200	58.00
2.93867	58.00
2.95533	58.00
2.97200	58.00
2.98867	58.00
3.00533	58.00
3.02200	58.00
3.03867	58.00
3.05533	58.00
3.07200	58.00
3.08867	58.00
3.10533	58.00
3.12200	58.00
3.13867	58.00
3.15533	58.00
3.17200	58.00
3.18867	58.00
3.20533	58.00
3.22200	58.00
3.23867	58.00
3.25533	58.00
3.27200	58.00
3.28867	58.00
3.30533	58.00
3.32200	58.00
3.33867	58.00
3.35533	58.00
3.37200	58.00
3.38867	58.00
3.40533	58.00
3.42200	58.00
3.43867	58.00
3.45533	58.00
3.47200	58.00
3.48867	58.00
3.50533	58.00
3.52200	58.00
3.53867	58.00
3.55533	58.00
3.57200	58.00
3.58867	58.00
3.60533	58.00
3.62200	58.00
3.63867	58.00
3.65533	58.00
3.67200	58.00
3.68867	58.00
3.70533	58.00
3.72200	58.00
3.73867	58.00
3.75533	58.00
3.77200	58.00
3.78867	58.00
3.80533	58.00
3.82200	58.00
3.83867	58.00
3.85533	58.00
3.87200	58.00
3.88867	58.00
3.90533	58.00
3.92200	58.00
3.93867	58.00
3.95533	58.00
3.97200	58.00
3.98867	58.00

[Status Trace (Carrier Gas Flow)]
Interval(msec)	1000
# of Points	240
Start Time(min)	0.005
End Time(min)	3.989
Intensity Units	
Intensity Multiplier	1
R.Time (min)	Intensity
0.00533	34.52
0.02200	34.55
0.03867	34.54
0.05533	34.55
0.07200	34.50
0.08867	34.52
0.10533	34.52
0.12200	34.52
0.13867	34.52
0.15533	34.52
0.17200	34.52
0.18867	34.52
0.20533	34.52
0.22200	34.52
0.23867	34.53
0.25533	34.52
0.27200	34.52
0.28867	34.52
0.30533	34.52
0.32200	34.52
0.33867	34.52
0.35533	34.52
0.37200	34.52
0.38867	34.52
0.40533	34.52
0.42200	34.52
0.43867	34.52
0.45533	34.52
0.47200	34.52
0.48867	34.52
0.50533	34.52
0.52200	34.52
0.53867	34.52
0.55533	34.52
0.57200	34.52
0.58867	34.52
0.60533	34.52
0.62200	34.52
0.63867	34.52
0.65533	34.52
0.67200	34.52
0.68867	34.52
0.70533	34.52
0.72200	34.52
0.73867	34.52
0.75533	34.52
0.77200	34.52
0.78867	34.52
0.80533	34.52
0.82200	34.52
0.83867	34.52
0.85533	34.52
0.87200	34.52
0.88867	34.52
0.90533	34.52
0.92200	34.51
0.93867	34.52
0.95533	34.52
0.97200	34.52
0.98867	34.52
1.00533	34.52
1.02200	34.52
1.03867	34.52
1.05533	34.52
1.07200	34.52
1.08867	34.52
1.10533	34.52
1.12200	34.52
1.13867	34.52
1.15533	34.52
1.17200	34.52
1.18867	34.52
1.20533	34.52
1.22200	34.52
1.23867	34.52
1.25533	34.52
1.27200	34.51
1.28867	34.52
1.30533	34.52
1.32200	34.51
1.33867	34.51
1.35533	34.52
1.37200	34.52
1.38867	34.52
1.40533	34.51
1.42200	34.53
1.43867	34.52
1.45533	34.52
1.47200	34.52
1.48867	34.52
1.50533	34.52
1.52200	34.52
1.53867	34.52
1.55533	34.52
1.57200	34.51
1.58867	34.52
1.60533	34.52
1.62200	34.52
1.63867	34.52
1.65533	34.52
1.67200	34.52
1.68867	34.51
1.70533	34.51
1.72200	34.52
1.73867	34.52
1.75533	34.52
1.77200	34.52
1.78867	34.52
1.80533	34.52
1.82200	34.51
1.83867	34.52
1.85533	34.51
1.87200	34.52
1.88867	34.51
1.90533	34.52
1.92200	34.52
1.93867	34.52
1.95533	34.52
1.97200	34.52
1.98867	34.51
2.00533	34.52
2.02200	34.52
2.03867	34.52
2.05533	34.52
2.07200	34.52
2.08867	34.52
2.10533	34.52
2.12200	34.52
2.13867	34.52
2.15533	34.52
2.17200	34.52
2.18867	34.52
2.20533	34.52
2.22200	34.52
2.23867	34.52
2.25533	34.52
2.27200	34.52
2.28867	34.52
2.30533	34.52
2.32200	34.52
2.33867	34.52
2.35533	34.52
2.37200	34.52
2.38867	34.51
2.40533	34.52
2.42200	34.52
2.43867	34.52
2.45533	34.51
2.47200	34.52
2.48867	34.52
2.50533	34.52
2.52200	34.52
2.53867	34.51
2.55533	34.52
2.57200	34.52
2.58867	34.52
2.60533	34.52
2.62200	34.52
2.63867	34.52
2.65533	34.52
2.67200	34.52
2.68867	34.52
2.70533	34.51
2.72200	34.52
2.73867	34.52
2.75533	34.52
2.77200	34.52
2.78867	34.52
2.80533	34.52
2.82200	34.52
2.83867	34.51
2.85533	34.52
2.87200	34.52
2.88867	34.51
2.90533	34.52
2.92200	34.52
2.93867	34.51
2.95533	34.52
2.97200	34.52
2.98867	34.52
3.00533	34.51
3.02200	34.52
3.03867	34.52
3.05533	34.52
3.07200	34.52
3.08867	34.52
3.10533	34.52
3.12200	34.52
3.13867	34.52
3.15533	34.52
3.17200	34.52
3.18867	34.52
3.20533	34.52
3.22200	34.52
3.23867	34.51
3.25533	34.52
3.27200	34.52
3.28867	34.52
3.30533	34.52
3.32200	34.52
3.33867	34.52
3.35533	34.51
3.37200	34.52
3.38867	34.52
3.40533	34.52
3.42200	34.52
3.43867	34.52
3.45533	34.52
3.47200	34.52
3.48867	34.52
3.50533	34.52
3.52200	34.52
3.53867	34.52
3.55533	34.52
3.57200	34.51
3.58867	34.52
3.60533	34.52
3.62200	34.52
3.63867	34.52
3.65533	34.52
3.67200	34.52
3.68867	34.52
3.70533	34.52
3.72200	34.52
3.73867	34.52
3.75533	34.51
3.77200	34.52
3.78867	34.52
3.80533	34.51
3.82200	34.52
3.83867	34.52
3.85533	34.52
3.87200	34.52
3.88867	34.52
3.90533	34.51
3.92200	34.52
3.93867	34.52
3.95533	34.52
3.97200	34.51
3.98867	34.52

[Status Trace (Column Flow)]
Interval(msec)	1000
# of Points	240
Start Time(min)	0.005
End Time(min)	3.989
Intensity Units	
Intensity Multiplier	1
R.Time (min)	Intensity
0.00533	5.51
0.02200	5.26
0.03867	5.36
0.05533	5.62
0.07200	5.72
0.08867	5.53
0.10533	5.51
0.12200	5.51
0.13867	5.51
0.15533	5.51
0.17200	5.51
0.18867	5.51
0.20533	5.51
0.22200	5.51
0.23867	5.51
0.25533	5.51
0.27200	5.51
0.28867	5.51
0.30533	5.51
0.32200	5.51
0.33867	5.51
0.35533	5.51
0.37200	5.51
0.38867	5.51
0.40533	5.51
0.42200	5.51
0.43867	5.51
0.45533	5.52
0.47200	5.52
0.48867	5.52
0.50533	5.51
0.52200	5.51
0.53867	5.51
0.55533	5.51
0.57200	5.51
0.58867	5.51
0.60533	5.51
0.62200	5.51
0.63867	5.51
0.65533	5.51
0.67200	5.51
0.68867	5.51
0.70533	5.51
0.72200	5.51
0.73867	5.51
0.75533	5.51
0.77200	5.51
0.78867	5.51
0.80533	5.51
0.82200	5.51
0.83867	5.51
0.85533	5.51
0.87200	5.51
0.88867	5.51
0.90533	5.51
0.92200	5.51
0.93867	5.51
0.95533	5.51
0.97200	5.51
0.98867	5.51
1.00533	5.51
1.02200	5.51
1.03867	5.51
1.05533	5.51
1.07200	5.51
1.08867	5.51
1.10533	5.51
1.12200	5.51
1.13867	5.51
1.15533	5.51
1.17200	5.51
1.18867	5.51
1.20533	5.51
1.22200	5.51
1.23867	5.51
1.25533	5.51
1.27200	5.51
1.28867	5.51
1.30533	5.51
1.32200	5.51
1.33867	5.51
1.35533	5.51
1.37200	5.51
1.38867	5.51
1.40533	5.51
1.42200	5.51
1.43867	5.51
1.45533	5.51
1.47200	5.51
1.48867	5.51
1.50533	5.51
1.52200	5.52
1.53867	5.52
1.55533	5.52
1.57200	5.51
1.58867	5.51
1.60533	5.51
1.62200	5.51
1.63867	5.50
1.65533	5.50
1.67200	5.49
1.68867	5.48
1.70533	5.46
1.72200	5.45
1.73867	5.44
1.75533	5.43
1.77200	5.42
1.78867	5.41
1.80533	5.40
1.82200	5.39
1.83867	5.38
1.85533	5.37
1.87200	5.36
1.88867	5.35
1.90533	5.34
1.92200	5.33
1.93867	5.32
1.95533	5.31
1.97200	5.30
1.98867	5.29
2.00533	5.28
2.02200	5.27
2.03867	5.26
2.05533	5.26
2.07200	5.25
2.08867	5.24
2.10533	5.23
2.12200	5.22
2.13867	5.21
2.15533	5.20
2.17200	5.19
2.18867	5.18
2.20533	5.17
2.22200	5.16
2.23867	5.15
2.25533	5.14
2.27200	5.13
2.28867	5.12
2.30533	5.11
2.32200	5.11
2.33867	5.10
2.35533	5.09
2.37200	5.08
2.38867	5.08
2.40533	5.08
2.42200	5.08
2.43867	5.08
2.45533	5.08
2.47200	5.08
2.48867	5.08
2.50533	5.08
2.52200	5.08
2.53867	5.08
2.55533	5.08
2.57200	5.08
2.58867	5.08
2.60533	5.08
2.62200	5.08
2.63867	5.08
2.65533	5.08
2.67200	5.08
2.68867	5.08
2.70533	5.08
2.72200	5.07
2.73867	5.07
2.75533	5.08
2.77200	5.08
2.78867	5.08
2.80533	5.08
2.82200	5.07
2.83867	5.07
2.85533	5.07
2.87200	5.07
2.88867	5.07
2.90533	5.07
2.92200	5.07
2.93867	5.07
2.95533	5.07
2.97200	5.07
2.98867	5.07
3.00533	5.07
3.02200	5.07
3.03867	5.07
3.05533	5.07
3.07200	5.07
3.08867	5.07
3.10533	5.07
3.12200	5.07
3.13867	5.07
3.15533	5.07
3.17200	5.07
3.18867	5.07
3.20533	5.07
3.22200	5.07
3.23867	5.07
3.25533	5.07
3.27200	5.07
3.28867	5.07
3.30533	5.07
3.32200	5.07
3.33867	5.07
3.35533	5.07
3.37200	5.07
3.38867	5.07
3.40533	5.07
3.42200	5.07
3.43867	5.07
3.45533	5.07
3.47200	5.07
3.48867	5.07
3.50533	5.07
3.52200	5.07
3.53867	5.07
3.55533	5.07
3.57200	5.07
3.58867	5.07
3.60533	5.07
3.62200	5.07
3.63867	5.07
3.65533	5.07
3.67200	5.07
3.68867	5.07
3.70533	5.07
3.72200	5.07
3.73867	5.07
3.75533	5.07
3.77200	5.07
3.78867	5.07
3.80533	5.07
3.82200	5.07
3.83867	5.07
3.85533	5.07
3.87200	5.07
3.88867	5.07
3.90533	5.07
3.92200	5.07
3.93867	5.07
3.95533	5.07
3.97200	5.07
3.98867	5.07

[Status Trace (Linear Velocity)]
Interval(msec)	1000
# of Points	240
Start Time(min)	0.005
End Time(min)	3.989
Intensity Units	
Intensity Multiplier	1
R.Time (min)	Intensity
0.00533	39.01
0.02200	37.58
0.03867	38.16
0.05533	39.62
0.07200	40.16
0.08867	39.13
0.10533	39.00
0.12200	39.02
0.13867	39.02
0.15533	39.02
0.17200	39.02
0.18867	39.02
0.20533	39.02
0.22200	39.01
0.23867	39.01
0.25533	39.01
0.27200	39.01
0.28867	39.01
0.30533	39.02
0.32200	39.02
0.33867	39.01
0.35533	39.01
0.37200	39.01
0.38867	39.01
0.40533	39.01
0.42200	39.01
0.43867	39.02
0.45533	39.02
0.47200	39.02
0.48867	39.02
0.50533	39.02
0.52200	39.02
0.53867	39.02
0.55533	39.01
0.57200	39.01
0.58867	39.01
0.60533	39.02
0.62200	39.02
0.63867	39.02
0.65533	39.02
0.67200	39.02
0.68867	39.02
0.70533	39.02
0.72200	39.01
0.73867	39.01
0.75533	39.01
0.77200	39.01
0.78867	39.01
0.80533	39.02
0.82200	39.02
0.83867	39.02
0.85533	39.02
0.87200	39.02
0.88867	39.02
0.90533	39.02
0.92200	39.02
0.93867	39.02
0.95533	39.02
0.97200	39.02
0.98867	39.01
1.00533	39.02
1.02200	39.02
1.03867	39.02
1.05533	39.02
1.07200	39.02
1.08867	39.02
1.10533	39.02
1.12200	39.02
1.13867	39.02
1.15533	39.02
1.17200	39.01
1.18867	39.02
1.20533	39.02
1.22200	39.02
1.23867	39.02
1.25533	39.02
1.27200	39.02
1.28867	39.01
1.30533	39.01
1.32200	39.01
1.33867	39.01
1.35533	39.01
1.37200	39.02
1.38867	39.02
1.40533	39.02
1.42200	39.02
1.43867	39.02
1.45533	39.02
1.47200	39.02
1.48867	39.02
1.50533	39.02
1.52200	39.02
1.53867	39.02
1.55533	39.02
1.57200	39.02
1.58867	39.02
1.60533	39.01
1.62200	39.00
1.63867	38.98
1.65533	38.96
1.67200	38.93
1.68867	38.90
1.70533	38.86
1.72200	38.83
1.73867	38.80
1.75533	38.76
1.77200	38.74
1.78867	38.70
1.80533	38.67
1.82200	38.64
1.83867	38.61
1.85533	38.58
1.87200	38.54
1.88867	38.51
1.90533	38.48
1.92200	38.46
1.93867	38.42
1.95533	38.39
1.97200	38.36
1.98867	38.33
2.00533	38.30
2.02200	38.27
2.03867	38.24
2.05533	38.21
2.07200	38.18
2.08867	38.15
2.10533	38.12
2.12200	38.09
2.13867	38.06
2.15533	38.03
2.17200	38.01
2.18867	37.97
2.20533	37.94
2.22200	37.92
2.23867	37.88
2.25533	37.86
2.27200	37.83
2.28867	37.80
2.30533	37.77
2.32200	37.74
2.33867	37.71
2.35533	37.68
2.37200	37.66
2.38867	37.65
2.40533	37.65
2.42200	37.65
2.43867	37.65
2.45533	37.65
2.47200	37.65
2.48867	37.65
2.50533	37.65
2.52200	37.64
2.53867	37.65
2.55533	37.65
2.57200	37.65
2.58867	37.65
2.60533	37.65
2.62200	37.65
2.63867	37.64
2.65533	37.64
2.67200	37.64
2.68867	37.65
2.70533	37.64
2.72200	37.64
2.73867	37.64
2.75533	37.64
2.77200	37.64
2.78867	37.64
2.80533	37.64
2.82200	37.64
2.83867	37.64
2.85533	37.64
2.87200	37.64
2.88867	37.64
2.90533	37.63
2.92200	37.63
2.93867	37.63
2.95533	37.63
2.97200	37.63
2.98867	37.63
3.00533	37.63
3.02200	37.63
3.03867	37.63
3.05533	37.63
3.07200	37.63
3.08867	37.62
3.10533	37.62
3.12200	37.62
3.13867	37.62
3.15533	37.62
3.17200	37.62
3.18867	37.62
3.20533	37.62
3.22200	37.62
3.23867	37.62
3.25533	37.63
3.27200	37.63
3.28867	37.63
3.30533	37.63
3.32200	37.63
3.33867	37.63
3.35533	37.63
3.37200	37.63
3.38867	37.63
3.40533	37.63
3.42200	37.63
3.43867	37.63
3.45533	37.62
3.47200	37.63
3.48867	37.62
3.50533	37.62
3.52200	37.63
3.53867	37.62
3.55533	37.62
3.57200	37.62
3.58867	37.62
3.60533	37.62
3.62200	37.62
3.63867	37.62
3.65533	37.62
3.67200	37.62
3.68867	37.62
3.70533	37.62
3.72200	37.62
3.73867	37.62
3.75533	37.62
3.77200	37.62
3.78867	37.62
3.80533	37.62
3.82200	37.62
3.83867	37.62
3.85533	37.62
3.87200	37.62
3.88867	37.62
3.90533	37.62
3.92200	37.62
3.93867	37.63
3.95533	37.63
3.97200	37.63
3.98867	37.63

