[Header]
Application Name	LabSolutions
Version	5.110
Data File Name	C:\Users\User\Desktop\Junior\UIC Prairie Sampling\5.18.23\05182023_081.gcd
Output Date	6/5/2023
Output Time	2:17:30 PM

[File Information]
Type	Data File
Generated	5/24/2023 9:31:12 PM
Generated by	System Administrator
Modified	5/24/2023 9:38:28 PM
Modified by	System Administrator

[Sample Information]
Operator Name	System Administrator
Acquired	5/24/2023 9:34:27 PM
Sample Type	0:Unknown
Level	0
Sample Name	081
Sample ID	081
ISTD Amount1	1
ISTD Amount2	1
ISTD Amount3	1
ISTD Amount4	1
ISTD Amount5	1
ISTD Amount6	1
ISTD Amount7	1
ISTD Amount8	1
ISTD Amount9	1
ISTD Amount10	1
ISTD Amount11	1
ISTD Amount12	1
ISTD Amount13	1
ISTD Amount14	1
ISTD Amount15	1
ISTD Amount16	1
ISTD Amount17	1
ISTD Amount18	1
ISTD Amount19	1
ISTD Amount20	1
ISTD Amount21	1
ISTD Amount22	1
ISTD Amount23	1
ISTD Amount24	1
ISTD Amount25	1
ISTD Amount26	1
ISTD Amount27	1
ISTD Amount28	1
ISTD Amount29	1
ISTD Amount30	1
ISTD Amount31	1
ISTD Amount32	1
Sample Amount	1
Dilution Factor	1
Vial#	80
Injection Volume	1
Injection Count	1
Bar Code	

[Original Files]
Data File	C:\Users\User\Desktop\Junior\UIC Prairie Sampling\5.18.23\05182023_081.gcd
Method File	C:\LabSolutions\Data\GHG_4min_2022\ghg3_togas_w_acet_4 min_new_int.gcm
Batch File	C:\LabSolutions\Data\AutoSamplerTesting\05182023.gcb
Report Format File	c:\LabSolutions\System\DEFAULT.lsr

[File Description]


[Configuration]
Instrument Name	C0B7VH3-Instrument1
Instrument #	1
Line #	1
# of Detectors	3
Detector ID	DET#1	DET#2	DET#3
Detector Name	FID	PTCD	ECD
# of Channels	1	1	1

[Peak Table(Ch1)]
# of Peaks	3
Peak#	R.Time	I.Time	F.Time	Area	Height	A/H	Conc.	Mark	ID#	Name	k'	Plate #	Plate Ht.	Tailing	Resolution	Sep.Factor	Area Ratio	Height Ratio	Conc. %	Norm Conc.
1	1.472	1.417	1.527	4748	2291	2.073	0.000	   	1	CO	0.000	9508	15.776	1.208	0.000	0.000	0	0	0.000	0.000
2	1.564	1.527	1.630	15826	8025	1.972	77.157	 V 	2	CH4	0.062	11451	13.099	1.168	1.543	0.000	0	0	19.145	19.145
3	1.989	1.941	2.491	1690833	803245	2.105	325.855	   	3	CO2	0.351	17341	8.650	1.338	7.156	5.640	0	0	80.855	80.855

[Peak Table(Ch2)]
# of Peaks	0

[Peak Table(Ch3)]
# of Peaks	5
Peak#	R.Time	I.Time	F.Time	Area	Height	A/H	Conc.	Mark	ID#	Name	k'	Plate #	Plate Ht.	Tailing	Resolution	Sep.Factor	Area Ratio	Height Ratio	Conc. %	Norm Conc.
1	2.458	2.418	2.510	816	321	2.542	0.000	   			0.000	15299	9.804	0.000	0.000	0.000	0	0	0.000	0.000
2	2.528	2.510	2.583	287	112	2.554	0.000	 V 			0.028	7119	21.071	0.000	0.699	0.000	0	0	0.000	0.000
3	2.631	2.583	2.649	202	79	2.569	0.000	 V 			0.070	20303	7.388	0.000	1.060	2.474	0	0	0.000	0.000
4	2.788	2.653	2.832	5031	606	8.306	0.074	   	1	N2O	0.134	764	196.419	0.000	0.660	1.915	0	0	12.262	12.262
5	2.891	2.832	3.874	35997	5273	6.827	0.533	 V 	1	N2O	0.176	11746	12.770	0.000	0.402	1.311	0	0	87.738	87.738

[Compound Results(Ch1)]
# of IDs	6
ID#	Name	R.Time	Area	Height	Conc.	Curve	3rd	2nd	1st	Constant	Area Ratio	Height Ratio	Conc. %	Norm Conc.
1	CO	1.472	4748	2291	0.000	Linear	0.000000e+00	0.000000e+00	0.000000e+00	0.000000e+00	0	0	0.000	0.000
2	CH4	1.564	15826	8025	77.157	Linear	0.000000e+00	0.000000e+00	2.051179e+002	0.000000e+00	0	0	19.145	19.145
3	CO2	1.989	1690833	803245	325.855	Linear	0.000000e+00	0.000000e+00	5.188919e+003	0.000000e+00	0	0	80.855	80.855
4	Ethylene	0.000	0	0	0.000	Linear	0.000000e+00	0.000000e+00	0.000000e+00	0.000000e+00	0	0	0.000	0.000
5	Acetylene	0.000	0	0	0.000	Linear	0.000000e+00	0.000000e+00	0.000000e+00	0.000000e+00	0	0	0.000	0.000
6	Ethane	0.000	0	0	0.000	Linear	0.000000e+00	0.000000e+00	0.000000e+00	0.000000e+00	0	0	0.000	0.000

[Compound Results(Ch2)]
# of IDs	5
ID#	Name	R.Time	Area	Height	Conc.	Curve	3rd	2nd	1st	Constant	Area Ratio	Height Ratio	Conc. %	Norm Conc.
1	Hydrogen	0.000	0	0	0.000	Linear	0.000000e+00	0.000000e+00	0.000000e+00	0.000000e+00	0	0	0.000	0.000
2	Oxygen	0.000	0	0	0.000	Linear	0.000000e+00	0.000000e+00	0.000000e+00	0.000000e+00	0	0	0.000	0.000
3	Nitrogen	0.000	0	0	0.000	Linear	0.000000e+00	0.000000e+00	0.000000e+00	0.000000e+00	0	0	0.000	0.000
4	Methane	0.000	0	0	0.000	Linear	0.000000e+00	0.000000e+00	0.000000e+00	0.000000e+00	0	0	0.000	0.000
5	Carbon Monoxide	0.000	0	0	0.000	Linear	0.000000e+00	0.000000e+00	0.000000e+00	0.000000e+00	0	0	0.000	0.000

[Compound Results(Ch3)]
# of IDs	2
ID#	Name	R.Time	Area	Height	Conc.	Curve	3rd	2nd	1st	Constant	Area Ratio	Height Ratio	Conc. %	Norm Conc.
1	N2O	2.891	41028	5879	0.607	Linear	0.000000e+00	0.000000e+00	6.759880e+004	0.000000e+00	0	0	100.000	100.000
2	SF6	0.000	0	0	0.000	Linear	0.000000e+00	0.000000e+00	0.000000e+00	0.000000e+00	0	0	0.000	0.000

[Group Results(Ch1)]
# of Groups	0

[Group Results(Ch2)]
# of Groups	0

[Group Results(Ch3)]
# of Groups	0

[Chromatogram (Ch1)]
Interval(msec)	220
# of Points	1091
Start Time(min)	0.002
End Time(min)	3.998
R.Time (min)	Intensity
0.00167	-4
0.00533	-2
0.00900	-2
0.01267	-9
0.01633	-15
0.02000	-16
0.02367	-17
0.02733	-17
0.03100	-13
0.03467	-7
0.03833	-3
0.04200	-4
0.04567	-5
0.04933	-5
0.05300	-10
0.05667	-17
0.06033	-20
0.06400	-20
0.06767	-17
0.07133	-14
0.07500	-9
0.07867	-0
0.08233	7
0.08600	9
0.08967	10
0.09333	14
0.09700	18
0.10067	23
0.10433	24
0.10800	23
0.11167	21
0.11533	16
0.11900	7
0.12267	-3
0.12633	-15
0.13000	-25
0.13367	-29
0.13733	-26
0.14100	-19
0.14467	-10
0.14833	-2
0.15200	1
0.15567	4
0.15933	7
0.16300	7
0.16667	7
0.17033	7
0.17400	8
0.17767	6
0.18133	3
0.18500	1
0.18867	2
0.19233	5
0.19600	8
0.19967	10
0.20333	10
0.20700	4
0.21067	-6
0.21433	-15
0.21800	-21
0.22167	-22
0.22533	-20
0.22900	-15
0.23267	-9
0.23633	-5
0.24000	-4
0.24367	-4
0.24733	-3
0.25100	-3
0.25467	-6
0.25833	-8
0.26200	-10
0.26567	-10
0.26933	-2
0.27300	7
0.27667	9
0.28033	3
0.28400	-3
0.28767	-7
0.29133	-9
0.29500	-11
0.29867	-12
0.30233	-15
0.30600	-20
0.30967	-23
0.31333	-25
0.31700	-24
0.32067	-19
0.32433	-17
0.32800	-16
0.33167	-13
0.33533	-8
0.33900	-5
0.34267	-4
0.34633	-4
0.35000	-2
0.35367	1
0.35733	6
0.36100	9
0.36467	4
0.36833	-3
0.37200	-10
0.37567	-16
0.37933	-22
0.38300	-29
0.38667	-32
0.39033	-33
0.39400	-31
0.39767	-27
0.40133	-20
0.40500	-14
0.40867	-12
0.41233	-11
0.41600	-10
0.41967	-11
0.42333	-13
0.42700	-18
0.43067	-22
0.43433	-21
0.43800	-17
0.44167	-12
0.44533	-12
0.44900	-12
0.45267	-13
0.45633	-17
0.46000	-21
0.46367	-23
0.46733	-24
0.47100	-23
0.47467	-22
0.47833	-23
0.48200	-22
0.48567	-21
0.48933	-19
0.49300	-17
0.49667	-13
0.50033	-10
0.50400	-12
0.50767	-17
0.51133	-24
0.51500	-30
0.51867	-33
0.52233	-33
0.52600	-34
0.52967	-36
0.53333	-35
0.53700	-30
0.54067	-26
0.54433	-23
0.54800	-21
0.55167	-21
0.55533	-20
0.55900	-17
0.56267	-14
0.56633	-14
0.57000	-16
0.57367	-20
0.57733	-24
0.58100	-27
0.58467	-34
0.58833	-37
0.59200	-35
0.59567	-30
0.59933	-25
0.60300	-23
0.60667	-23
0.61033	-22
0.61400	-21
0.61767	-23
0.62133	-27
0.62500	-32
0.62867	-36
0.63233	-40
0.63600	-44
0.63967	-47
0.64333	-50
0.64700	-48
0.65067	-40
0.65433	-30
0.65800	-25
0.66167	-22
0.66533	-24
0.66900	-28
0.67267	-30
0.67633	-32
0.68000	-36
0.68367	-38
0.68733	-37
0.69100	-37
0.69467	-41
0.69833	-43
0.70200	-38
0.70567	-32
0.70933	-29
0.71300	-29
0.71667	-30
0.72033	-29
0.72400	-25
0.72767	-16
0.73133	-6
0.73500	2
0.73867	2
0.74233	-7
0.74600	-18
0.74967	-27
0.75333	-31
0.75700	-31
0.76067	-32
0.76433	-35
0.76800	-35
0.77167	-36
0.77533	-37
0.77900	-36
0.78267	-36
0.78633	-32
0.79000	-28
0.79367	-26
0.79733	-28
0.80100	-30
0.80467	-31
0.80833	-32
0.81200	-34
0.81567	-36
0.81933	-38
0.82300	-40
0.82667	-39
0.83033	-34
0.83400	-28
0.83767	-23
0.84133	-18
0.84500	-16
0.84867	-20
0.85233	-26
0.85600	-34
0.85967	-39
0.86333	-41
0.86700	-41
0.87067	-39
0.87433	-37
0.87800	-36
0.88167	-34
0.88533	-32
0.88900	-33
0.89267	-35
0.89633	-35
0.90000	-33
0.90367	-34
0.90733	-40
0.91100	-43
0.91467	-42
0.91833	-39
0.92200	-35
0.92567	-29
0.92933	-24
0.93300	-21
0.93667	-22
0.94033	-23
0.94400	-25
0.94767	-31
0.95133	-36
0.95500	-38
0.95867	-38
0.96233	-41
0.96600	-45
0.96967	-49
0.97333	-54
0.97700	-60
0.98067	-67
0.98433	-71
0.98800	-70
0.99167	-64
0.99533	-61
0.99900	-57
1.00267	-53
1.00633	-50
1.01000	-45
1.01367	-37
1.01733	-34
1.02100	-36
1.02467	-38
1.02833	-37
1.03200	-35
1.03567	-32
1.03933	-29
1.04300	-25
1.04667	-21
1.05033	-21
1.05400	-25
1.05767	-35
1.06133	-47
1.06500	-58
1.06867	-67
1.07233	-73
1.07600	-74
1.07967	-72
1.08333	-68
1.08700	-63
1.09067	-58
1.09433	-56
1.09800	-55
1.10167	-55
1.10533	-57
1.10900	-58
1.11267	-59
1.11633	-58
1.12000	-54
1.12367	-52
1.12733	-51
1.13100	-49
1.13467	-49
1.13833	-53
1.14200	-56
1.14567	-59
1.14933	-63
1.15300	-59
1.15667	-53
1.16033	-51
1.16400	-53
1.16767	-60
1.17133	-70
1.17500	-75
1.17867	-70
1.18233	-61
1.18600	-55
1.18967	-49
1.19333	-43
1.19700	-39
1.20067	-34
1.20433	-32
1.20800	-32
1.21167	-34
1.21533	-39
1.21900	-44
1.22267	-44
1.22633	-41
1.23000	-42
1.23367	-47
1.23733	-50
1.24100	-51
1.24467	-50
1.24833	-51
1.25200	-55
1.25567	-59
1.25933	-59
1.26300	-55
1.26667	-52
1.27033	-50
1.27400	-46
1.27767	-43
1.28133	-42
1.28500	-40
1.28867	-42
1.29233	-43
1.29600	-45
1.29967	-48
1.30333	-51
1.30700	-55
1.31067	-54
1.31433	-48
1.31800	-42
1.32167	-39
1.32533	-40
1.32900	-46
1.33267	-54
1.33633	-59
1.34000	-63
1.34367	-67
1.34733	-71
1.35100	-69
1.35467	-66
1.35833	-64
1.36200	-61
1.36567	-55
1.36933	-55
1.37300	-58
1.37667	-57
1.38033	-57
1.38400	-62
1.38767	-68
1.39133	-71
1.39500	-74
1.39867	-74
1.40233	-74
1.40600	-76
1.40967	-77
1.41333	-76
1.41700	-74
1.42067	-68
1.42433	-62
1.42800	-58
1.43167	-52
1.43533	-38
1.43900	-9
1.44267	26
1.44633	102
1.45000	323
1.45367	702
1.45733	1146
1.46100	1558
1.46467	1891
1.46833	2122
1.47200	2220
1.47567	2163
1.47933	1951
1.48300	1633
1.48667	1280
1.49033	951
1.49400	675
1.49767	458
1.50133	298
1.50500	182
1.50867	102
1.51233	47
1.51600	12
1.51967	-12
1.52333	-27
1.52700	-35
1.53067	-17
1.53433	113
1.53800	559
1.54167	1524
1.54533	2954
1.54900	4540
1.55267	5972
1.55633	7077
1.56000	7771
1.56367	7959
1.56733	7555
1.57100	6607
1.57467	5339
1.57833	4035
1.58200	2896
1.58567	1999
1.58933	1335
1.59300	868
1.59667	551
1.60033	341
1.60400	197
1.60767	98
1.61133	34
1.61500	-4
1.61867	-28
1.62233	-44
1.62600	-56
1.62967	-62
1.63333	-59
1.63700	-50
1.64067	-44
1.64433	-43
1.64800	-47
1.65167	-55
1.65533	-62
1.65900	-69
1.66267	-78
1.66633	-86
1.67000	-93
1.67367	-102
1.67733	-107
1.68100	-105
1.68467	-99
1.68833	-93
1.69200	-89
1.69567	-88
1.69933	-89
1.70300	-85
1.70667	-82
1.71033	-81
1.71400	-82
1.71767	-84
1.72133	-89
1.72500	-98
1.72867	-109
1.73233	-113
1.73600	-108
1.73967	-102
1.74333	-98
1.74700	-93
1.75067	-88
1.75433	-85
1.75800	-84
1.76167	-85
1.76533	-87
1.76900	-88
1.77267	-87
1.77633	-84
1.78000	-81
1.78367	-79
1.78733	-78
1.79100	-77
1.79467	-73
1.79833	-69
1.80200	-66
1.80567	-66
1.80933	-66
1.81300	-66
1.81667	-67
1.82033	-74
1.82400	-86
1.82767	-94
1.83133	-97
1.83500	-98
1.83867	-95
1.84233	-91
1.84600	-91
1.84967	-92
1.85333	-90
1.85700	-87
1.86067	-84
1.86433	-81
1.86800	-76
1.87167	-72
1.87533	-73
1.87900	-76
1.88267	-74
1.88633	-70
1.89000	-69
1.89367	-74
1.89733	-81
1.90100	-84
1.90467	-83
1.90833	-81
1.91200	-80
1.91567	-79
1.91933	-79
1.92300	-83
1.92667	-87
1.93033	-87
1.93400	-86
1.93767	-85
1.94133	-79
1.94500	-61
1.94867	31
1.95233	580
1.95600	3268
1.95967	13257
1.96333	41489
1.96700	102852
1.97067	206864
1.97433	347233
1.97800	501850
1.98167	643372
1.98533	748768
1.98900	803201
1.99267	800168
1.99633	742907
2.00000	644917
2.00367	526358
2.00733	407247
2.01100	301853
2.01467	216829
2.01833	152675
2.02200	106487
2.02567	74267
2.02933	52238
2.03300	37337
2.03667	27289
2.04033	20486
2.04400	15831
2.04767	12598
2.05133	10305
2.05500	8645
2.05867	7410
2.06233	6464
2.06600	5718
2.06967	5114
2.07333	4618
2.07700	4204
2.08067	3854
2.08433	3555
2.08800	3294
2.09167	3069
2.09533	2875
2.09900	2705
2.10267	2553
2.10633	2414
2.11000	2285
2.11367	2168
2.11733	2061
2.12100	1962
2.12467	1873
2.12833	1789
2.13200	1712
2.13567	1639
2.13933	1567
2.14300	1497
2.14667	1433
2.15033	1377
2.15400	1329
2.15767	1287
2.16133	1243
2.16500	1197
2.16867	1154
2.17233	1117
2.17600	1084
2.17967	1051
2.18333	1021
2.18700	995
2.19067	974
2.19433	956
2.19800	934
2.20167	908
2.20533	881
2.20900	861
2.21267	847
2.21633	826
2.22000	798
2.22367	771
2.22733	750
2.23100	730
2.23467	710
2.23833	691
2.24200	674
2.24567	660
2.24933	647
2.25300	634
2.25667	622
2.26033	608
2.26400	597
2.26767	587
2.27133	581
2.27500	577
2.27867	574
2.28233	568
2.28600	559
2.28967	551
2.29333	546
2.29700	542
2.30067	536
2.30433	524
2.30800	510
2.31167	495
2.31533	483
2.31900	474
2.32267	468
2.32633	463
2.33000	459
2.33367	452
2.33733	442
2.34100	431
2.34467	424
2.34833	422
2.35200	422
2.35567	422
2.35933	423
2.36300	421
2.36667	416
2.37033	412
2.37400	410
2.37767	406
2.38133	400
2.38500	395
2.38867	390
2.39233	385
2.39600	384
2.39967	384
2.40333	382
2.40700	383
2.41067	384
2.41433	383
2.41800	379
2.42167	372
2.42533	363
2.42900	356
2.43267	355
2.43633	355
2.44000	352
2.44367	349
2.44733	344
2.45100	339
2.45467	333
2.45833	330
2.46200	333
2.46567	338
2.46933	345
2.47300	355
2.47667	362
2.48033	363
2.48400	357
2.48767	341
2.49133	323
2.49500	309
2.49867	299
2.50233	296
2.50600	297
2.50967	304
2.51333	318
2.51700	328
2.52067	332
2.52433	333
2.52800	332
2.53167	331
2.53533	329
2.53900	328
2.54267	327
2.54633	327
2.55000	329
2.55367	329
2.55733	326
2.56100	325
2.56467	324
2.56833	320
2.57200	317
2.57567	315
2.57933	313
2.58300	310
2.58667	308
2.59033	306
2.59400	306
2.59767	311
2.60133	315
2.60500	318
2.60867	322
2.61233	323
2.61600	325
2.61967	327
2.62333	322
2.62700	319
2.63067	319
2.63433	321
2.63800	320
2.64167	313
2.64533	305
2.64900	294
2.65267	288
2.65633	289
2.66000	295
2.66367	302
2.66733	309
2.67100	314
2.67467	314
2.67833	312
2.68200	307
2.68567	304
2.68933	307
2.69300	314
2.69667	319
2.70033	323
2.70400	325
2.70767	327
2.71133	330
2.71500	330
2.71867	327
2.72233	320
2.72600	314
2.72967	313
2.73333	319
2.73700	331
2.74067	336
2.74433	336
2.74800	331
2.75167	326
2.75533	325
2.75900	321
2.76267	317
2.76633	317
2.77000	318
2.77367	317
2.77733	320
2.78100	326
2.78467	330
2.78833	331
2.79200	332
2.79567	334
2.79933	339
2.80300	344
2.80667	348
2.81033	347
2.81400	343
2.81767	337
2.82133	334
2.82500	335
2.82867	339
2.83233	343
2.83600	341
2.83967	335
2.84333	330
2.84700	328
2.85067	333
2.85433	345
2.85800	360
2.86167	367
2.86533	367
2.86900	365
2.87267	364
2.87633	363
2.88000	365
2.88367	369
2.88733	370
2.89100	365
2.89467	357
2.89833	350
2.90200	344
2.90567	344
2.90933	346
2.91300	347
2.91667	346
2.92033	345
2.92400	346
2.92767	347
2.93133	348
2.93500	350
2.93867	354
2.94233	360
2.94600	369
2.94967	377
2.95333	379
2.95700	381
2.96067	380
2.96433	376
2.96800	373
2.97167	373
2.97533	380
2.97900	389
2.98267	400
2.98633	410
2.99000	413
2.99367	409
2.99733	404
3.00100	399
3.00467	395
3.00833	391
3.01200	386
3.01567	381
3.01933	379
3.02300	379
3.02667	382
3.03033	389
3.03400	394
3.03767	396
3.04133	392
3.04500	384
3.04867	376
3.05233	373
3.05600	372
3.05967	372
3.06333	372
3.06700	376
3.07067	382
3.07433	387
3.07800	394
3.08167	405
3.08533	415
3.08900	420
3.09267	422
3.09633	424
3.10000	422
3.10367	410
3.10733	397
3.11100	387
3.11467	381
3.11833	380
3.12200	385
3.12567	391
3.12933	397
3.13300	400
3.13667	401
3.14033	401
3.14400	397
3.14767	392
3.15133	384
3.15500	376
3.15867	370
3.16233	369
3.16600	375
3.16967	386
3.17333	400
3.17700	412
3.18067	418
3.18433	414
3.18800	409
3.19167	408
3.19533	407
3.19900	404
3.20267	403
3.20633	403
3.21000	404
3.21367	406
3.21733	410
3.22100	414
3.22467	413
3.22833	409
3.23200	406
3.23567	402
3.23933	397
3.24300	392
3.24667	391
3.25033	394
3.25400	401
3.25767	406
3.26133	408
3.26500	407
3.26867	406
3.27233	410
3.27600	416
3.27967	422
3.28333	429
3.28700	434
3.29067	437
3.29433	433
3.29800	424
3.30167	417
3.30533	416
3.30900	417
3.31267	420
3.31633	423
3.32000	422
3.32367	419
3.32733	415
3.33100	408
3.33467	402
3.33833	400
3.34200	401
3.34567	407
3.34933	415
3.35300	422
3.35667	425
3.36033	425
3.36400	420
3.36767	414
3.37133	410
3.37500	408
3.37867	406
3.38233	402
3.38600	400
3.38967	398
3.39333	401
3.39700	407
3.40067	413
3.40433	414
3.40800	410
3.41167	406
3.41533	405
3.41900	405
3.42267	406
3.42633	413
3.43000	422
3.43367	431
3.43733	432
3.44100	425
3.44467	418
3.44833	415
3.45200	412
3.45567	406
3.45933	398
3.46300	390
3.46667	384
3.47033	384
3.47400	385
3.47767	386
3.48133	383
3.48500	378
3.48867	375
3.49233	381
3.49600	391
3.49967	402
3.50333	407
3.50700	405
3.51067	403
3.51433	405
3.51800	407
3.52167	408
3.52533	406
3.52900	400
3.53267	396
3.53633	394
3.54000	395
3.54367	393
3.54733	389
3.55100	390
3.55467	394
3.55833	396
3.56200	396
3.56567	394
3.56933	395
3.57300	401
3.57667	408
3.58033	410
3.58400	406
3.58767	404
3.59133	405
3.59500	406
3.59867	405
3.60233	402
3.60600	396
3.60967	386
3.61333	376
3.61700	365
3.62067	356
3.62433	351
3.62800	351
3.63167	353
3.63533	355
3.63900	360
3.64267	367
3.64633	376
3.65000	386
3.65367	394
3.65733	399
3.66100	396
3.66467	389
3.66833	385
3.67200	385
3.67567	391
3.67933	396
3.68300	395
3.68667	390
3.69033	384
3.69400	380
3.69767	374
3.70133	368
3.70500	363
3.70867	360
3.71233	356
3.71600	356
3.71967	363
3.72333	370
3.72700	377
3.73067	379
3.73433	375
3.73800	371
3.74167	369
3.74533	367
3.74900	362
3.75267	355
3.75633	349
3.76000	347
3.76367	350
3.76733	357
3.77100	366
3.77467	372
3.77833	373
3.78200	371
3.78567	367
3.78933	361
3.79300	356
3.79667	351
3.80033	345
3.80400	340
3.80767	337
3.81133	340
3.81500	346
3.81867	349
3.82233	350
3.82600	348
3.82967	344
3.83333	344
3.83700	345
3.84067	349
3.84433	352
3.84800	351
3.85167	348
3.85533	347
3.85900	350
3.86267	356
3.86633	362
3.87000	365
3.87367	364
3.87733	362
3.88100	363
3.88467	362
3.88833	358
3.89200	351
3.89567	342
3.89933	337
3.90300	336
3.90667	338
3.91033	340
3.91400	338
3.91767	333
3.92133	330
3.92500	329
3.92867	333
3.93233	339
3.93600	348
3.93967	357
3.94333	362
3.94700	361
3.95067	353
3.95433	344
3.95800	335
3.96167	325
3.96533	317
3.96900	316
3.97267	320
3.97633	325
3.98000	330
3.98367	336
3.98733	342
3.99100	345
3.99467	349
3.99833	349

[Chromatogram (Ch2)]
Interval(msec)	220
# of Points	1091
Start Time(min)	0.002
End Time(min)	3.998
R.Time (min)	Intensity
0.00167	-1
0.00533	-1
0.00900	-1
0.01267	-1
0.01633	-2
0.02000	-2
0.02367	-2
0.02733	-2
0.03100	-2
0.03467	-1
0.03833	-2
0.04200	-2
0.04567	-2
0.04933	-2
0.05300	-1
0.05667	-1
0.06033	-1
0.06400	-1
0.06767	-1
0.07133	-0
0.07500	0
0.07867	1
0.08233	1
0.08600	2
0.08967	2
0.09333	2
0.09700	3
0.10067	3
0.10433	3
0.10800	4
0.11167	4
0.11533	4
0.11900	4
0.12267	4
0.12633	4
0.13000	4
0.13367	4
0.13733	4
0.14100	4
0.14467	5
0.14833	5
0.15200	4
0.15567	4
0.15933	4
0.16300	4
0.16667	4
0.17033	4
0.17400	4
0.17767	4
0.18133	3
0.18500	3
0.18867	3
0.19233	3
0.19600	2
0.19967	2
0.20333	2
0.20700	2
0.21067	2
0.21433	2
0.21800	3
0.22167	3
0.22533	3
0.22900	3
0.23267	3
0.23633	3
0.24000	3
0.24367	3
0.24733	2
0.25100	2
0.25467	2
0.25833	2
0.26200	1
0.26567	1
0.26933	1
0.27300	1
0.27667	0
0.28033	0
0.28400	-0
0.28767	-1
0.29133	-1
0.29500	-1
0.29867	-1
0.30233	-0
0.30600	-0
0.30967	-0
0.31333	-0
0.31700	-0
0.32067	-1
0.32433	-1
0.32800	-1
0.33167	-1
0.33533	-2
0.33900	-2
0.34267	-2
0.34633	-2
0.35000	-2
0.35367	-2
0.35733	-2
0.36100	-2
0.36467	-2
0.36833	-2
0.37200	-2
0.37567	-2
0.37933	-2
0.38300	-2
0.38667	-2
0.39033	-2
0.39400	-1
0.39767	-1
0.40133	-1
0.40500	-1
0.40867	-1
0.41233	-1
0.41600	-0
0.41967	-0
0.42333	0
0.42700	0
0.43067	0
0.43433	1
0.43800	1
0.44167	1
0.44533	1
0.44900	1
0.45267	1
0.45633	1
0.46000	1
0.46367	0
0.46733	0
0.47100	0
0.47467	0
0.47833	1
0.48200	1
0.48567	1
0.48933	1
0.49300	1
0.49667	1
0.50033	1
0.50400	1
0.50767	1
0.51133	0
0.51500	0
0.51867	-0
0.52233	-0
0.52600	-0
0.52967	-0
0.53333	-1
0.53700	-1
0.54067	-1
0.54433	-1
0.54800	-2
0.55167	-2
0.55533	-2
0.55900	-2
0.56267	-3
0.56633	-3
0.57000	-3
0.57367	-3
0.57733	-3
0.58100	-3
0.58467	-3
0.58833	-2
0.59200	-2
0.59567	-2
0.59933	-1
0.60300	-1
0.60667	-1
0.61033	-1
0.61400	-1
0.61767	-1
0.62133	-1
0.62500	-1
0.62867	-2
0.63233	-1
0.63600	-1
0.63967	-1
0.64333	-1
0.64700	-0
0.65067	-0
0.65433	0
0.65800	0
0.66167	1
0.66533	0
0.66900	0
0.67267	0
0.67633	0
0.68000	-0
0.68367	-0
0.68733	-1
0.69100	-1
0.69467	-1
0.69833	-1
0.70200	-1
0.70567	-1
0.70933	-1
0.71300	-2
0.71667	-2
0.72033	-2
0.72400	-2
0.72767	-2
0.73133	-2
0.73500	-2
0.73867	-2
0.74233	-2
0.74600	-3
0.74967	-3
0.75333	-3
0.75700	-3
0.76067	-3
0.76433	-2
0.76800	-2
0.77167	-2
0.77533	-2
0.77900	-2
0.78267	-2
0.78633	-1
0.79000	-1
0.79367	-1
0.79733	-0
0.80100	0
0.80467	1
0.80833	1
0.81200	1
0.81567	1
0.81933	1
0.82300	1
0.82667	2
0.83033	2
0.83400	2
0.83767	2
0.84133	1
0.84500	1
0.84867	1
0.85233	1
0.85600	1
0.85967	2
0.86333	2
0.86700	1
0.87067	1
0.87433	1
0.87800	1
0.88167	0
0.88533	0
0.88900	-0
0.89267	-0
0.89633	-0
0.90000	-0
0.90367	-0
0.90733	-1
0.91100	-1
0.91467	-1
0.91833	-1
0.92200	-1
0.92567	-1
0.92933	-1
0.93300	-1
0.93667	-1
0.94033	-1
0.94400	-1
0.94767	-1
0.95133	-1
0.95500	-1
0.95867	-1
0.96233	-1
0.96600	-1
0.96967	-1
0.97333	-1
0.97700	-1
0.98067	-1
0.98433	-1
0.98800	-1
0.99167	-0
0.99533	-0
0.99900	-1
1.00267	-1
1.00633	-1
1.01000	-1
1.01367	-1
1.01733	-1
1.02100	-1
1.02467	-1
1.02833	-1
1.03200	-1
1.03567	-1
1.03933	-1
1.04300	-2
1.04667	-2
1.05033	-2
1.05400	-2
1.05767	-2
1.06133	-2
1.06500	-2
1.06867	-2
1.07233	-2
1.07600	-2
1.07967	-2
1.08333	-2
1.08700	-2
1.09067	-2
1.09433	-2
1.09800	-2
1.10167	-2
1.10533	-2
1.10900	-2
1.11267	-2
1.11633	-2
1.12000	-1
1.12367	-1
1.12733	-1
1.13100	-1
1.13467	-1
1.13833	-1
1.14200	-1
1.14567	-1
1.14933	-1
1.15300	-1
1.15667	-1
1.16033	-1
1.16400	-0
1.16767	-0
1.17133	-0
1.17500	-0
1.17867	0
1.18233	0
1.18600	1
1.18967	1
1.19333	1
1.19700	1
1.20067	1
1.20433	1
1.20800	1
1.21167	1
1.21533	1
1.21900	1
1.22267	0
1.22633	0
1.23000	0
1.23367	-0
1.23733	-0
1.24100	-1
1.24467	-1
1.24833	-1
1.25200	-1
1.25567	-1
1.25933	-2
1.26300	-2
1.26667	-2
1.27033	-2
1.27400	-1
1.27767	-1
1.28133	-1
1.28500	-1
1.28867	-1
1.29233	-1
1.29600	-1
1.29967	-1
1.30333	-1
1.30700	-2
1.31067	-2
1.31433	-3
1.31800	-3
1.32167	-3
1.32533	-3
1.32900	-3
1.33267	-3
1.33633	-3
1.34000	-3
1.34367	-3
1.34733	-4
1.35100	-4
1.35467	-4
1.35833	-4
1.36200	-4
1.36567	-4
1.36933	-3
1.37300	-3
1.37667	-2
1.38033	-2
1.38400	-2
1.38767	-1
1.39133	-1
1.39500	-1
1.39867	-1
1.40233	-1
1.40600	-1
1.40967	-1
1.41333	-1
1.41700	-1
1.42067	-1
1.42433	-2
1.42800	-2
1.43167	-2
1.43533	-2
1.43900	-2
1.44267	-2
1.44633	-3
1.45000	-3
1.45367	-3
1.45733	-3
1.46100	-3
1.46467	-3
1.46833	-3
1.47200	-3
1.47567	-3
1.47933	-3
1.48300	-3
1.48667	-3
1.49033	-3
1.49400	-3
1.49767	-3
1.50133	-3
1.50500	-3
1.50867	-2
1.51233	-2
1.51600	-2
1.51967	-2
1.52333	-2
1.52700	-2
1.53067	-2
1.53433	-2
1.53800	-1
1.54167	-1
1.54533	-1
1.54900	-1
1.55267	-1
1.55633	-1
1.56000	-1
1.56367	-1
1.56733	-1
1.57100	-1
1.57467	-1
1.57833	-1
1.58200	-1
1.58567	-1
1.58933	-2
1.59300	-2
1.59667	-2
1.60033	-3
1.60400	-4
1.60767	-6
1.61133	-7
1.61500	-9
1.61867	-12
1.62233	-14
1.62600	-17
1.62967	-21
1.63333	-24
1.63700	-28
1.64067	-31
1.64433	-35
1.64800	-39
1.65167	-43
1.65533	-47
1.65900	-51
1.66267	-55
1.66633	-59
1.67000	-63
1.67367	-68
1.67733	-72
1.68100	-76
1.68467	-81
1.68833	-85
1.69200	-88
1.69567	-91
1.69933	-94
1.70300	-96
1.70667	-97
1.71033	-99
1.71400	-100
1.71767	-100
1.72133	-101
1.72500	-101
1.72867	-100
1.73233	-100
1.73600	-99
1.73967	-98
1.74333	-98
1.74700	-97
1.75067	-96
1.75433	-96
1.75800	-96
1.76167	-96
1.76533	-97
1.76900	-98
1.77267	-99
1.77633	-100
1.78000	-102
1.78367	-103
1.78733	-104
1.79100	-104
1.79467	-105
1.79833	-105
1.80200	-105
1.80567	-106
1.80933	-107
1.81300	-107
1.81667	-108
1.82033	-108
1.82400	-108
1.82767	-108
1.83133	-107
1.83500	-107
1.83867	-107
1.84233	-107
1.84600	-108
1.84967	-108
1.85333	-108
1.85700	-109
1.86067	-109
1.86433	-109
1.86800	-108
1.87167	-107
1.87533	-106
1.87900	-106
1.88267	-105
1.88633	-104
1.89000	-104
1.89367	-103
1.89733	-103
1.90100	-103
1.90467	-102
1.90833	-102
1.91200	-102
1.91567	-102
1.91933	-102
1.92300	-102
1.92667	-102
1.93033	-102
1.93400	-102
1.93767	-102
1.94133	-102
1.94500	-101
1.94867	-101
1.95233	-101
1.95600	-101
1.95967	-101
1.96333	-101
1.96700	-100
1.97067	-100
1.97433	-99
1.97800	-99
1.98167	-98
1.98533	-98
1.98900	-98
1.99267	-98
1.99633	-97
2.00000	-97
2.00367	-97
2.00733	-97
2.01100	-97
2.01467	-97
2.01833	-97
2.02200	-97
2.02567	-97
2.02933	-97
2.03300	-97
2.03667	-97
2.04033	-96
2.04400	-95
2.04767	-95
2.05133	-94
2.05500	-93
2.05867	-92
2.06233	-91
2.06600	-91
2.06967	-91
2.07333	-90
2.07700	-90
2.08067	-90
2.08433	-90
2.08800	-90
2.09167	-89
2.09533	-89
2.09900	-89
2.10267	-89
2.10633	-89
2.11000	-89
2.11367	-89
2.11733	-89
2.12100	-89
2.12467	-89
2.12833	-89
2.13200	-88
2.13567	-88
2.13933	-87
2.14300	-87
2.14667	-86
2.15033	-86
2.15400	-85
2.15767	-85
2.16133	-85
2.16500	-85
2.16867	-85
2.17233	-84
2.17600	-84
2.17967	-85
2.18333	-84
2.18700	-84
2.19067	-83
2.19433	-83
2.19800	-82
2.20167	-81
2.20533	-81
2.20900	-81
2.21267	-81
2.21633	-81
2.22000	-81
2.22367	-81
2.22733	-80
2.23100	-80
2.23467	-79
2.23833	-79
2.24200	-79
2.24567	-79
2.24933	-78
2.25300	-78
2.25667	-78
2.26033	-77
2.26400	-77
2.26767	-77
2.27133	-77
2.27500	-77
2.27867	-78
2.28233	-79
2.28600	-80
2.28967	-81
2.29333	-82
2.29700	-82
2.30067	-82
2.30433	-81
2.30800	-81
2.31167	-80
2.31533	-79
2.31900	-78
2.32267	-77
2.32633	-76
2.33000	-75
2.33367	-74
2.33733	-73
2.34100	-72
2.34467	-71
2.34833	-70
2.35200	-69
2.35567	-68
2.35933	-66
2.36300	-64
2.36667	-63
2.37033	-60
2.37400	-58
2.37767	-55
2.38133	-51
2.38500	-47
2.38867	-43
2.39233	-39
2.39600	-35
2.39967	-31
2.40333	-27
2.40700	-24
2.41067	-20
2.41433	-16
2.41800	-13
2.42167	-10
2.42533	-7
2.42900	-5
2.43267	-3
2.43633	-2
2.44000	-1
2.44367	1
2.44733	2
2.45100	3
2.45467	5
2.45833	6
2.46200	8
2.46567	9
2.46933	11
2.47300	11
2.47667	12
2.48033	12
2.48400	12
2.48767	11
2.49133	11
2.49500	11
2.49867	12
2.50233	12
2.50600	12
2.50967	13
2.51333	13
2.51700	13
2.52067	12
2.52433	12
2.52800	11
2.53167	11
2.53533	10
2.53900	10
2.54267	10
2.54633	10
2.55000	11
2.55367	11
2.55733	12
2.56100	13
2.56467	14
2.56833	15
2.57200	15
2.57567	16
2.57933	16
2.58300	17
2.58667	18
2.59033	18
2.59400	18
2.59767	18
2.60133	18
2.60500	17
2.60867	17
2.61233	17
2.61600	17
2.61967	17
2.62333	18
2.62700	18
2.63067	19
2.63433	20
2.63800	21
2.64167	21
2.64533	22
2.64900	22
2.65267	23
2.65633	23
2.66000	23
2.66367	23
2.66733	23
2.67100	23
2.67467	23
2.67833	23
2.68200	23
2.68567	23
2.68933	24
2.69300	24
2.69667	24
2.70033	24
2.70400	24
2.70767	25
2.71133	25
2.71500	25
2.71867	25
2.72233	26
2.72600	25
2.72967	25
2.73333	25
2.73700	25
2.74067	25
2.74433	26
2.74800	26
2.75167	26
2.75533	27
2.75900	27
2.76267	28
2.76633	28
2.77000	29
2.77367	29
2.77733	30
2.78100	30
2.78467	31
2.78833	31
2.79200	31
2.79567	31
2.79933	30
2.80300	30
2.80667	29
2.81033	29
2.81400	28
2.81767	28
2.82133	28
2.82500	28
2.82867	28
2.83233	28
2.83600	28
2.83967	28
2.84333	28
2.84700	28
2.85067	28
2.85433	29
2.85800	29
2.86167	28
2.86533	26
2.86900	23
2.87267	17
2.87633	8
2.88000	-5
2.88367	-22
2.88733	-45
2.89100	-72
2.89467	-105
2.89833	-143
2.90200	-186
2.90567	-233
2.90933	-284
2.91300	-339
2.91667	-397
2.92033	-457
2.92400	-518
2.92767	-579
2.93133	-641
2.93500	-702
2.93867	-760
2.94233	-816
2.94600	-869
2.94967	-920
2.95333	-974
2.95700	-1029
2.96067	-1076
2.96433	-1106
2.96800	-1112
2.97167	-1093
2.97533	-1051
2.97900	-991
2.98267	-919
2.98633	-841
2.99000	-760
2.99367	-679
2.99733	-602
3.00100	-530
3.00467	-463
3.00833	-402
3.01200	-348
3.01567	-300
3.01933	-258
3.02300	-220
3.02667	-188
3.03033	-159
3.03400	-135
3.03767	-114
3.04133	-95
3.04500	-80
3.04867	-66
3.05233	-55
3.05600	-45
3.05967	-36
3.06333	-29
3.06700	-22
3.07067	-17
3.07433	-12
3.07800	-8
3.08167	-4
3.08533	-1
3.08900	1
3.09267	3
3.09633	5
3.10000	7
3.10367	8
3.10733	9
3.11100	10
3.11467	11
3.11833	12
3.12200	12
3.12567	13
3.12933	14
3.13300	15
3.13667	15
3.14033	16
3.14400	17
3.14767	17
3.15133	18
3.15500	18
3.15867	19
3.16233	19
3.16600	20
3.16967	20
3.17333	21
3.17700	21
3.18067	22
3.18433	22
3.18800	23
3.19167	23
3.19533	23
3.19900	24
3.20267	24
3.20633	24
3.21000	24
3.21367	25
3.21733	25
3.22100	25
3.22467	25
3.22833	25
3.23200	25
3.23567	25
3.23933	26
3.24300	26
3.24667	26
3.25033	26
3.25400	26
3.25767	26
3.26133	26
3.26500	26
3.26867	26
3.27233	26
3.27600	26
3.27967	26
3.28333	26
3.28700	26
3.29067	26
3.29433	25
3.29800	25
3.30167	25
3.30533	25
3.30900	25
3.31267	25
3.31633	25
3.32000	25
3.32367	25
3.32733	25
3.33100	25
3.33467	25
3.33833	25
3.34200	26
3.34567	26
3.34933	26
3.35300	27
3.35667	27
3.36033	28
3.36400	28
3.36767	28
3.37133	29
3.37500	30
3.37867	30
3.38233	31
3.38600	31
3.38967	32
3.39333	32
3.39700	32
3.40067	33
3.40433	33
3.40800	33
3.41167	33
3.41533	33
3.41900	33
3.42267	32
3.42633	32
3.43000	32
3.43367	32
3.43733	31
3.44100	31
3.44467	31
3.44833	31
3.45200	31
3.45567	31
3.45933	31
3.46300	31
3.46667	31
3.47033	31
3.47400	31
3.47767	31
3.48133	31
3.48500	31
3.48867	31
3.49233	31
3.49600	31
3.49967	31
3.50333	31
3.50700	31
3.51067	31
3.51433	31
3.51800	31
3.52167	30
3.52533	30
3.52900	30
3.53267	30
3.53633	30
3.54000	31
3.54367	31
3.54733	31
3.55100	31
3.55467	31
3.55833	31
3.56200	31
3.56567	31
3.56933	30
3.57300	30
3.57667	30
3.58033	30
3.58400	30
3.58767	30
3.59133	30
3.59500	30
3.59867	30
3.60233	30
3.60600	30
3.60967	30
3.61333	30
3.61700	30
3.62067	30
3.62433	30
3.62800	30
3.63167	30
3.63533	30
3.63900	30
3.64267	30
3.64633	29
3.65000	29
3.65367	29
3.65733	29
3.66100	29
3.66467	29
3.66833	28
3.67200	28
3.67567	28
3.67933	27
3.68300	27
3.68667	27
3.69033	27
3.69400	27
3.69767	27
3.70133	27
3.70500	27
3.70867	27
3.71233	27
3.71600	27
3.71967	27
3.72333	27
3.72700	27
3.73067	27
3.73433	28
3.73800	28
3.74167	28
3.74533	28
3.74900	28
3.75267	29
3.75633	29
3.76000	29
3.76367	29
3.76733	29
3.77100	29
3.77467	29
3.77833	29
3.78200	29
3.78567	29
3.78933	30
3.79300	30
3.79667	30
3.80033	30
3.80400	30
3.80767	30
3.81133	30
3.81500	29
3.81867	29
3.82233	29
3.82600	29
3.82967	29
3.83333	29
3.83700	29
3.84067	29
3.84433	29
3.84800	29
3.85167	29
3.85533	29
3.85900	29
3.86267	29
3.86633	29
3.87000	29
3.87367	29
3.87733	29
3.88100	29
3.88467	29
3.88833	28
3.89200	28
3.89567	28
3.89933	28
3.90300	28
3.90667	28
3.91033	28
3.91400	28
3.91767	28
3.92133	28
3.92500	28
3.92867	28
3.93233	28
3.93600	28
3.93967	28
3.94333	28
3.94700	29
3.95067	29
3.95433	29
3.95800	29
3.96167	28
3.96533	28
3.96900	28
3.97267	29
3.97633	28
3.98000	28
3.98367	28
3.98733	28
3.99100	28
3.99467	28
3.99833	28

[Chromatogram (Ch3)]
Interval(msec)	220
# of Points	1091
Start Time(min)	0.002
End Time(min)	3.998
R.Time (min)	Intensity
0.00167	1
0.00533	2
0.00900	3
0.01267	3
0.01633	2
0.02000	2
0.02367	2
0.02733	2
0.03100	2
0.03467	1
0.03833	0
0.04200	1
0.04567	2
0.04933	3
0.05300	2
0.05667	2
0.06033	3
0.06400	3
0.06767	3
0.07133	5
0.07500	7
0.07867	6
0.08233	3
0.08600	2
0.08967	-0
0.09333	-3
0.09700	-3
0.10067	-4
0.10433	-4
0.10800	-3
0.11167	-2
0.11533	0
0.11900	1
0.12267	2
0.12633	4
0.13000	6
0.13367	6
0.13733	7
0.14100	8
0.14467	7
0.14833	6
0.15200	5
0.15567	5
0.15933	4
0.16300	4
0.16667	2
0.17033	1
0.17400	1
0.17767	1
0.18133	2
0.18500	2
0.18867	4
0.19233	4
0.19600	3
0.19967	4
0.20333	3
0.20700	-0
0.21067	-1
0.21433	2
0.21800	4
0.22167	6
0.22533	6
0.22900	5
0.23267	2
0.23633	2
0.24000	4
0.24367	5
0.24733	6
0.25100	6
0.25467	5
0.25833	3
0.26200	2
0.26567	2
0.26933	4
0.27300	5
0.27667	7
0.28033	7
0.28400	7
0.28767	7
0.29133	6
0.29500	4
0.29867	3
0.30233	5
0.30600	3
0.30967	2
0.31333	3
0.31700	5
0.32067	8
0.32433	8
0.32800	7
0.33167	7
0.33533	7
0.33900	7
0.34267	7
0.34633	8
0.35000	9
0.35367	8
0.35733	8
0.36100	6
0.36467	5
0.36833	4
0.37200	6
0.37567	9
0.37933	12
0.38300	11
0.38667	9
0.39033	11
0.39400	11
0.39767	12
0.40133	11
0.40500	11
0.40867	11
0.41233	11
0.41600	9
0.41967	6
0.42333	7
0.42700	9
0.43067	10
0.43433	8
0.43800	8
0.44167	8
0.44533	7
0.44900	6
0.45267	6
0.45633	5
0.46000	4
0.46367	4
0.46733	4
0.47100	5
0.47467	6
0.47833	6
0.48200	6
0.48567	7
0.48933	8
0.49300	9
0.49667	9
0.50033	9
0.50400	9
0.50767	9
0.51133	7
0.51500	5
0.51867	4
0.52233	4
0.52600	3
0.52967	2
0.53333	2
0.53700	5
0.54067	8
0.54433	9
0.54800	8
0.55167	8
0.55533	8
0.55900	10
0.56267	10
0.56633	8
0.57000	6
0.57367	5
0.57733	8
0.58100	8
0.58467	5
0.58833	2
0.59200	2
0.59567	4
0.59933	7
0.60300	9
0.60667	9
0.61033	8
0.61400	7
0.61767	7
0.62133	6
0.62500	8
0.62867	10
0.63233	11
0.63600	11
0.63967	12
0.64333	11
0.64700	10
0.65067	10
0.65433	10
0.65800	12
0.66167	13
0.66533	12
0.66900	10
0.67267	11
0.67633	12
0.68000	11
0.68367	11
0.68733	10
0.69100	11
0.69467	13
0.69833	13
0.70200	12
0.70567	10
0.70933	12
0.71300	13
0.71667	15
0.72033	17
0.72400	17
0.72767	18
0.73133	17
0.73500	16
0.73867	15
0.74233	16
0.74600	18
0.74967	22
0.75333	25
0.75700	25
0.76067	22
0.76433	21
0.76800	20
0.77167	20
0.77533	21
0.77900	20
0.78267	20
0.78633	19
0.79000	17
0.79367	17
0.79733	18
0.80100	19
0.80467	19
0.80833	20
0.81200	22
0.81567	23
0.81933	22
0.82300	19
0.82667	19
0.83033	20
0.83400	21
0.83767	22
0.84133	23
0.84500	25
0.84867	26
0.85233	28
0.85600	29
0.85967	30
0.86333	29
0.86700	28
0.87067	28
0.87433	27
0.87800	25
0.88167	22
0.88533	21
0.88900	22
0.89267	23
0.89633	23
0.90000	24
0.90367	24
0.90733	22
0.91100	22
0.91467	24
0.91833	24
0.92200	24
0.92567	23
0.92933	21
0.93300	22
0.93667	23
0.94033	23
0.94400	24
0.94767	25
0.95133	25
0.95500	24
0.95867	21
0.96233	20
0.96600	19
0.96967	20
0.97333	19
0.97700	20
0.98067	24
0.98433	26
0.98800	28
0.99167	27
0.99533	25
0.99900	25
1.00267	24
1.00633	23
1.01000	23
1.01367	22
1.01733	22
1.02100	21
1.02467	22
1.02833	19
1.03200	18
1.03567	19
1.03933	20
1.04300	21
1.04667	24
1.05033	28
1.05400	29
1.05767	28
1.06133	27
1.06500	26
1.06867	27
1.07233	28
1.07600	28
1.07967	28
1.08333	27
1.08700	26
1.09067	25
1.09433	25
1.09800	24
1.10167	23
1.10533	20
1.10900	19
1.11267	20
1.11633	21
1.12000	21
1.12367	21
1.12733	20
1.13100	18
1.13467	18
1.13833	20
1.14200	20
1.14567	21
1.14933	23
1.15300	24
1.15667	23
1.16033	22
1.16400	21
1.16767	19
1.17133	19
1.17500	21
1.17867	21
1.18233	21
1.18600	22
1.18967	23
1.19333	20
1.19700	17
1.20067	16
1.20433	18
1.20800	21
1.21167	22
1.21533	21
1.21900	19
1.22267	19
1.22633	18
1.23000	18
1.23367	20
1.23733	19
1.24100	20
1.24467	22
1.24833	21
1.25200	20
1.25567	21
1.25933	21
1.26300	20
1.26667	21
1.27033	23
1.27400	26
1.27767	27
1.28133	28
1.28500	30
1.28867	30
1.29233	27
1.29600	26
1.29967	26
1.30333	27
1.30700	28
1.31067	28
1.31433	26
1.31800	24
1.32167	24
1.32533	24
1.32900	23
1.33267	23
1.33633	23
1.34000	22
1.34367	20
1.34733	19
1.35100	18
1.35467	19
1.35833	21
1.36200	22
1.36567	24
1.36933	24
1.37300	24
1.37667	23
1.38033	22
1.38400	22
1.38767	23
1.39133	25
1.39500	26
1.39867	25
1.40233	26
1.40600	25
1.40967	25
1.41333	25
1.41700	25
1.42067	25
1.42433	25
1.42800	24
1.43167	24
1.43533	24
1.43900	25
1.44267	27
1.44633	29
1.45000	28
1.45367	26
1.45733	26
1.46100	26
1.46467	25
1.46833	24
1.47200	24
1.47567	23
1.47933	24
1.48300	24
1.48667	25
1.49033	25
1.49400	23
1.49767	24
1.50133	24
1.50500	22
1.50867	21
1.51233	21
1.51600	21
1.51967	21
1.52333	22
1.52700	21
1.53067	20
1.53433	19
1.53800	21
1.54167	24
1.54533	25
1.54900	24
1.55267	24
1.55633	24
1.56000	24
1.56367	22
1.56733	21
1.57100	19
1.57467	20
1.57833	22
1.58200	24
1.58567	24
1.58933	22
1.59300	19
1.59667	21
1.60033	24
1.60400	28
1.60767	30
1.61133	32
1.61500	31
1.61867	29
1.62233	29
1.62600	28
1.62967	28
1.63333	26
1.63700	26
1.64067	27
1.64433	28
1.64800	31
1.65167	32
1.65533	33
1.65900	32
1.66267	31
1.66633	33
1.67000	36
1.67367	38
1.67733	39
1.68100	37
1.68467	35
1.68833	34
1.69200	34
1.69567	34
1.69933	35
1.70300	36
1.70667	37
1.71033	35
1.71400	34
1.71767	35
1.72133	38
1.72500	39
1.72867	38
1.73233	37
1.73600	38
1.73967	38
1.74333	37
1.74700	37
1.75067	37
1.75433	38
1.75800	40
1.76167	42
1.76533	43
1.76900	47
1.77267	50
1.77633	50
1.78000	48
1.78367	47
1.78733	47
1.79100	50
1.79467	52
1.79833	52
1.80200	50
1.80567	49
1.80933	48
1.81300	47
1.81667	45
1.82033	45
1.82400	46
1.82767	48
1.83133	49
1.83500	49
1.83867	49
1.84233	50
1.84600	52
1.84967	54
1.85333	53
1.85700	53
1.86067	52
1.86433	52
1.86800	52
1.87167	52
1.87533	52
1.87900	53
1.88267	54
1.88633	57
1.89000	60
1.89367	60
1.89733	60
1.90100	61
1.90467	61
1.90833	63
1.91200	66
1.91567	68
1.91933	67
1.92300	65
1.92667	65
1.93033	66
1.93400	66
1.93767	65
1.94133	66
1.94500	67
1.94867	67
1.95233	69
1.95600	70
1.95967	71
1.96333	74
1.96700	78
1.97067	80
1.97433	81
1.97800	83
1.98167	84
1.98533	85
1.98900	87
1.99267	88
1.99633	89
2.00000	89
2.00367	89
2.00733	90
2.01100	93
2.01467	94
2.01833	94
2.02200	93
2.02567	93
2.02933	93
2.03300	92
2.03667	91
2.04033	90
2.04400	92
2.04767	95
2.05133	96
2.05500	98
2.05867	98
2.06233	98
2.06600	99
2.06967	102
2.07333	103
2.07700	103
2.08067	101
2.08433	102
2.08800	105
2.09167	108
2.09533	110
2.09900	112
2.10267	112
2.10633	112
2.11000	114
2.11367	115
2.11733	114
2.12100	115
2.12467	116
2.12833	119
2.13200	121
2.13567	122
2.13933	123
2.14300	124
2.14667	126
2.15033	126
2.15400	125
2.15767	126
2.16133	127
2.16500	127
2.16867	127
2.17233	127
2.17600	127
2.17967	128
2.18333	127
2.18700	127
2.19067	129
2.19433	132
2.19800	132
2.20167	131
2.20533	131
2.20900	130
2.21267	130
2.21633	132
2.22000	132
2.22367	133
2.22733	134
2.23100	134
2.23467	137
2.23833	138
2.24200	140
2.24567	142
2.24933	141
2.25300	140
2.25667	141
2.26033	142
2.26400	143
2.26767	146
2.27133	146
2.27500	142
2.27867	139
2.28233	138
2.28600	138
2.28967	139
2.29333	141
2.29700	144
2.30067	147
2.30433	148
2.30800	150
2.31167	149
2.31533	146
2.31900	145
2.32267	144
2.32633	144
2.33000	145
2.33367	145
2.33733	146
2.34100	148
2.34467	150
2.34833	151
2.35200	151
2.35567	149
2.35933	148
2.36300	147
2.36667	147
2.37033	146
2.37400	144
2.37767	142
2.38133	140
2.38500	139
2.38867	138
2.39233	139
2.39600	141
2.39967	144
2.40333	148
2.40700	150
2.41067	150
2.41433	150
2.41800	149
2.42167	148
2.42533	149
2.42900	150
2.43267	152
2.43633	150
2.44000	152
2.44367	193
2.44733	279
2.45100	362
2.45467	425
2.45833	455
2.46200	452
2.46567	431
2.46933	407
2.47300	388
2.47667	373
2.48033	355
2.48400	330
2.48767	302
2.49133	274
2.49500	250
2.49867	231
2.50233	218
2.50600	209
2.50967	205
2.51333	207
2.51700	213
2.52067	217
2.52433	221
2.52800	221
2.53167	218
2.53533	209
2.53900	197
2.54267	185
2.54633	173
2.55000	161
2.55367	147
2.55733	134
2.56100	125
2.56467	118
2.56833	114
2.57200	112
2.57567	112
2.57933	111
2.58300	107
2.58667	106
2.59033	110
2.59400	113
2.59767	117
2.60133	122
2.60500	129
2.60867	136
2.61233	141
2.61600	145
2.61967	149
2.62333	150
2.62700	151
2.63067	150
2.63433	146
2.63800	139
2.64167	123
2.64533	91
2.64900	65
2.65267	62
2.65633	82
2.66000	119
2.66367	163
2.66733	210
2.67100	256
2.67467	299
2.67833	339
2.68200	376
2.68567	407
2.68933	435
2.69300	462
2.69667	487
2.70033	509
2.70400	528
2.70767	542
2.71133	556
2.71500	568
2.71867	577
2.72233	584
2.72600	590
2.72967	596
2.73333	602
2.73700	608
2.74067	614
2.74433	621
2.74800	629
2.75167	637
2.75533	644
2.75900	651
2.76267	661
2.76633	671
2.77000	679
2.77367	685
2.77733	690
2.78100	693
2.78467	695
2.78833	697
2.79200	696
2.79567	695
2.79933	691
2.80300	686
2.80667	680
2.81033	671
2.81400	662
2.81767	654
2.82133	645
2.82500	638
2.82867	631
2.83233	627
2.83600	630
2.83967	648
2.84333	695
2.84700	795
2.85067	967
2.85433	1235
2.85800	1609
2.86167	2087
2.86533	2646
2.86900	3252
2.87267	3856
2.87633	4408
2.88000	4859
2.88367	5181
2.88733	5356
2.89100	5387
2.89467	5288
2.89833	5084
2.90200	4804
2.90567	4479
2.90933	4132
2.91300	3780
2.91667	3436
2.92033	3108
2.92400	2803
2.92767	2527
2.93133	2281
2.93500	2062
2.93867	1866
2.94233	1693
2.94600	1544
2.94967	1413
2.95333	1299
2.95700	1200
2.96067	1114
2.96433	1040
2.96800	974
2.97167	919
2.97533	872
2.97900	833
2.98267	799
2.98633	770
2.99000	744
2.99367	723
2.99733	707
3.00100	692
3.00467	680
3.00833	669
3.01200	659
3.01567	650
3.01933	644
3.02300	640
3.02667	635
3.03033	628
3.03400	623
3.03767	618
3.04133	614
3.04500	612
3.04867	610
3.05233	609
3.05600	607
3.05967	606
3.06333	604
3.06700	602
3.07067	601
3.07433	602
3.07800	603
3.08167	602
3.08533	599
3.08900	598
3.09267	597
3.09633	597
3.10000	596
3.10367	594
3.10733	594
3.11100	594
3.11467	595
3.11833	595
3.12200	593
3.12567	592
3.12933	592
3.13300	592
3.13667	592
3.14033	594
3.14400	594
3.14767	594
3.15133	594
3.15500	594
3.15867	593
3.16233	591
3.16600	589
3.16967	590
3.17333	591
3.17700	589
3.18067	586
3.18433	585
3.18800	584
3.19167	582
3.19533	583
3.19900	582
3.20267	582
3.20633	582
3.21000	581
3.21367	580
3.21733	580
3.22100	581
3.22467	583
3.22833	582
3.23200	580
3.23567	579
3.23933	579
3.24300	578
3.24667	577
3.25033	578
3.25400	578
3.25767	577
3.26133	577
3.26500	576
3.26867	574
3.27233	574
3.27600	572
3.27967	572
3.28333	573
3.28700	572
3.29067	571
3.29433	571
3.29800	571
3.30167	570
3.30533	570
3.30900	569
3.31267	569
3.31633	568
3.32000	567
3.32367	566
3.32733	564
3.33100	561
3.33467	560
3.33833	559
3.34200	557
3.34567	555
3.34933	554
3.35300	554
3.35667	551
3.36033	546
3.36400	541
3.36767	538
3.37133	536
3.37500	534
3.37867	531
3.38233	528
3.38600	526
3.38967	523
3.39333	524
3.39700	524
3.40067	522
3.40433	521
3.40800	519
3.41167	517
3.41533	513
3.41900	509
3.42267	506
3.42633	504
3.43000	503
3.43367	502
3.43733	500
3.44100	500
3.44467	500
3.44833	498
3.45200	497
3.45567	493
3.45933	491
3.46300	490
3.46667	489
3.47033	487
3.47400	484
3.47767	485
3.48133	486
3.48500	486
3.48867	483
3.49233	480
3.49600	476
3.49967	475
3.50333	472
3.50700	469
3.51067	468
3.51433	466
3.51800	464
3.52167	463
3.52533	463
3.52900	464
3.53267	463
3.53633	459
3.54000	457
3.54367	457
3.54733	454
3.55100	450
3.55467	447
3.55833	445
3.56200	443
3.56567	439
3.56933	438
3.57300	437
3.57667	436
3.58033	435
3.58400	432
3.58767	431
3.59133	432
3.59500	433
3.59867	433
3.60233	432
3.60600	431
3.60967	430
3.61333	428
3.61700	424
3.62067	420
3.62433	417
3.62800	414
3.63167	411
3.63533	409
3.63900	410
3.64267	412
3.64633	415
3.65000	418
3.65367	419
3.65733	417
3.66100	415
3.66467	413
3.66833	412
3.67200	410
3.67567	407
3.67933	405
3.68300	405
3.68667	405
3.69033	404
3.69400	400
3.69767	397
3.70133	395
3.70500	393
3.70867	394
3.71233	393
3.71600	393
3.71967	394
3.72333	394
3.72700	393
3.73067	389
3.73433	384
3.73800	380
3.74167	378
3.74533	377
3.74900	378
3.75267	379
3.75633	379
3.76000	379
3.76367	377
3.76733	375
3.77100	373
3.77467	370
3.77833	367
3.78200	366
3.78567	366
3.78933	364
3.79300	361
3.79667	359
3.80033	357
3.80400	357
3.80767	355
3.81133	352
3.81500	349
3.81867	349
3.82233	350
3.82600	350
3.82967	348
3.83333	345
3.83700	342
3.84067	342
3.84433	343
3.84800	342
3.85167	340
3.85533	340
3.85900	338
3.86267	337
3.86633	335
3.87000	331
3.87367	328
3.87733	326
3.88100	325
3.88467	324
3.88833	325
3.89200	326
3.89567	325
3.89933	325
3.90300	322
3.90667	318
3.91033	314
3.91400	312
3.91767	310
3.92133	309
3.92500	309
3.92867	309
3.93233	308
3.93600	307
3.93967	304
3.94333	302
3.94700	300
3.95067	299
3.95433	297
3.95800	295
3.96167	293
3.96533	293
3.96900	293
3.97267	291
3.97633	289
3.98000	288
3.98367	286
3.98733	284
3.99100	281
3.99467	279
3.99833	276

[Status Trace (Column Oven Temperature)]
Interval(msec)	1000
# of Points	240
Start Time(min)	0.008
End Time(min)	3.991
Intensity Units	
Intensity Multiplier	1
R.Time (min)	Intensity
0.00798	35.04
0.02465	35.05
0.04132	35.06
0.05798	35.07
0.07465	35.06
0.09132	35.05
0.10798	35.04
0.12465	35.03
0.14132	35.02
0.15798	35.01
0.17465	35.00
0.19132	34.99
0.20798	34.98
0.22465	34.98
0.24132	34.98
0.25798	34.98
0.27465	34.99
0.29132	34.99
0.30798	34.99
0.32465	35.00
0.34132	35.01
0.35798	35.02
0.37465	35.02
0.39132	35.01
0.40798	35.02
0.42465	35.02
0.44132	35.01
0.45798	35.01
0.47465	35.00
0.49132	34.99
0.50798	34.99
0.52465	34.99
0.54132	35.00
0.55798	35.00
0.57465	35.02
0.59132	35.02
0.60798	35.02
0.62465	35.02
0.64132	35.02
0.65798	35.01
0.67465	35.00
0.69132	35.00
0.70798	35.01
0.72465	35.02
0.74132	35.03
0.75798	35.03
0.77465	35.03
0.79132	35.03
0.80798	35.02
0.82465	35.02
0.84132	35.01
0.85798	35.02
0.87465	35.01
0.89132	35.01
0.90798	35.01
0.92465	35.01
0.94132	35.01
0.95798	35.00
0.97465	34.99
0.99132	34.99
1.00798	34.99
1.02465	34.99
1.04132	34.99
1.05798	35.00
1.07465	35.01
1.09132	35.01
1.10798	35.02
1.12465	35.02
1.14132	35.01
1.15798	35.01
1.17465	35.00
1.19132	34.99
1.20798	34.99
1.22465	34.98
1.24132	34.99
1.25798	34.99
1.27465	34.99
1.29132	35.00
1.30798	34.99
1.32465	35.00
1.34132	35.00
1.35798	35.00
1.37465	35.00
1.39132	35.00
1.40798	34.99
1.42465	35.00
1.44132	35.01
1.45798	35.03
1.47465	35.02
1.49132	35.02
1.50798	35.02
1.52465	35.01
1.54132	35.01
1.55798	35.00
1.57465	34.99
1.59132	34.99
1.60798	35.04
1.62465	35.16
1.64132	35.35
1.65798	35.62
1.67465	35.97
1.69132	36.35
1.70798	36.71
1.72465	37.04
1.74132	37.33
1.75798	37.62
1.77465	37.97
1.79132	38.30
1.80798	38.65
1.82465	38.98
1.84132	39.32
1.85798	39.67
1.87465	39.98
1.89132	40.31
1.90798	40.63
1.92465	40.96
1.94132	41.28
1.95798	41.61
1.97465	41.92
1.99132	42.25
2.00798	42.58
2.02465	42.91
2.04132	43.23
2.05798	43.56
2.07465	43.88
2.09132	44.20
2.10798	44.52
2.12465	44.86
2.14132	45.18
2.15798	45.50
2.17465	45.82
2.19132	46.15
2.20798	46.50
2.22465	46.83
2.24132	47.17
2.25798	47.47
2.27465	47.81
2.29132	48.19
2.30798	48.54
2.32465	48.86
2.34132	49.17
2.35798	49.43
2.37465	49.60
2.39132	49.66
2.40798	49.66
2.42465	49.65
2.44132	49.68
2.45798	49.68
2.47465	49.69
2.49132	49.72
2.50798	49.73
2.52465	49.75
2.54132	49.77
2.55798	49.78
2.57465	49.79
2.59132	49.79
2.60798	49.82
2.62465	49.83
2.64132	49.82
2.65798	49.82
2.67465	49.83
2.69132	49.84
2.70798	49.84
2.72465	49.87
2.74132	49.88
2.75798	49.87
2.77465	49.84
2.79132	49.84
2.80798	49.87
2.82465	49.87
2.84132	49.87
2.85798	49.87
2.87465	49.87
2.89132	49.87
2.90798	49.88
2.92465	49.90
2.94132	49.90
2.95798	49.91
2.97465	49.91
2.99132	49.91
3.00798	49.93
3.02465	49.95
3.04132	49.97
3.05798	50.00
3.07465	50.01
3.09132	50.03
3.10798	50.03
3.12465	50.05
3.14132	50.06
3.15798	50.06
3.17465	50.06
3.19132	50.06
3.20798	50.06
3.22465	50.06
3.24132	50.06
3.25798	50.07
3.27465	50.08
3.29132	50.09
3.30798	50.11
3.32465	50.12
3.34132	50.13
3.35798	50.11
3.37465	50.10
3.39132	50.09
3.40798	50.06
3.42465	50.05
3.44132	50.04
3.45798	50.03
3.47465	50.02
3.49132	50.02
3.50798	50.01
3.52465	50.01
3.54132	50.00
3.55798	49.99
3.57465	49.98
3.59132	49.99
3.60798	49.99
3.62465	49.99
3.64132	49.98
3.65798	49.99
3.67465	49.99
3.69132	50.01
3.70798	50.01
3.72465	50.02
3.74132	50.03
3.75798	50.03
3.77465	50.02
3.79132	50.03
3.80798	50.02
3.82465	50.02
3.84132	50.02
3.85798	50.03
3.87465	50.02
3.89132	50.03
3.90798	50.02
3.92465	50.03
3.94132	50.04
3.95798	50.04
3.97465	50.05
3.99132	50.06

[Status Trace (Injection Unit Temperature)]
Interval(msec)	1000
# of Points	240
Start Time(min)	0.008
End Time(min)	3.991
Intensity Units	
Intensity Multiplier	1
R.Time (min)	Intensity
0.00798	99.97
0.02465	99.98
0.04132	99.98
0.05798	99.98
0.07465	99.98
0.09132	99.98
0.10798	99.98
0.12465	99.98
0.14132	99.98
0.15798	99.98
0.17465	99.98
0.19132	99.98
0.20798	99.99
0.22465	99.99
0.24132	99.98
0.25798	99.99
0.27465	99.98
0.29132	99.98
0.30798	99.98
0.32465	99.98
0.34132	99.98
0.35798	99.98
0.37465	99.98
0.39132	99.98
0.40798	99.98
0.42465	99.98
0.44132	99.98
0.45798	99.99
0.47465	99.98
0.49132	99.98
0.50798	99.98
0.52465	99.98
0.54132	99.98
0.55798	99.98
0.57465	99.98
0.59132	99.98
0.60798	99.99
0.62465	99.98
0.64132	99.98
0.65798	99.98
0.67465	99.98
0.69132	99.98
0.70798	99.98
0.72465	99.98
0.74132	99.98
0.75798	99.98
0.77465	99.98
0.79132	99.98
0.80798	99.98
0.82465	99.98
0.84132	99.98
0.85798	99.97
0.87465	99.98
0.89132	99.98
0.90798	99.98
0.92465	99.98
0.94132	99.98
0.95798	99.98
0.97465	99.98
0.99132	99.98
1.00798	99.98
1.02465	99.98
1.04132	99.98
1.05798	99.98
1.07465	99.98
1.09132	99.98
1.10798	99.98
1.12465	99.98
1.14132	99.98
1.15798	99.98
1.17465	99.98
1.19132	99.98
1.20798	99.98
1.22465	99.98
1.24132	99.98
1.25798	99.98
1.27465	99.99
1.29132	99.98
1.30798	99.99
1.32465	99.99
1.34132	99.99
1.35798	99.99
1.37465	99.99
1.39132	99.99
1.40798	99.99
1.42465	99.99
1.44132	99.99
1.45798	99.99
1.47465	99.99
1.49132	99.99
1.50798	99.99
1.52465	99.99
1.54132	99.99
1.55798	99.99
1.57465	99.99
1.59132	99.99
1.60798	99.99
1.62465	99.99
1.64132	99.99
1.65798	99.99
1.67465	99.99
1.69132	100.00
1.70798	100.00
1.72465	99.99
1.74132	99.99
1.75798	99.99
1.77465	99.99
1.79132	99.99
1.80798	99.99
1.82465	99.99
1.84132	99.99
1.85798	99.99
1.87465	99.99
1.89132	99.99
1.90798	99.99
1.92465	99.98
1.94132	99.99
1.95798	99.98
1.97465	99.99
1.99132	99.98
2.00798	99.99
2.02465	99.99
2.04132	99.98
2.05798	99.98
2.07465	99.98
2.09132	99.98
2.10798	99.98
2.12465	99.98
2.14132	99.98
2.15798	99.97
2.17465	99.97
2.19132	99.98
2.20798	99.97
2.22465	99.97
2.24132	99.97
2.25798	99.97
2.27465	99.97
2.29132	99.97
2.30798	99.96
2.32465	99.97
2.34132	99.96
2.35798	99.96
2.37465	99.96
2.39132	99.97
2.40798	99.96
2.42465	99.96
2.44132	99.96
2.45798	99.96
2.47465	99.97
2.49132	99.96
2.50798	99.96
2.52465	99.96
2.54132	99.96
2.55798	99.96
2.57465	99.97
2.59132	99.97
2.60798	99.97
2.62465	99.97
2.64132	99.97
2.65798	99.98
2.67465	99.98
2.69132	99.98
2.70798	99.98
2.72465	99.98
2.74132	99.98
2.75798	99.99
2.77465	99.99
2.79132	99.99
2.80798	99.99
2.82465	99.99
2.84132	100.00
2.85798	99.99
2.87465	100.00
2.89132	100.00
2.90798	100.00
2.92465	100.00
2.94132	100.01
2.95798	100.01
2.97465	100.01
2.99132	100.01
3.00798	100.01
3.02465	100.01
3.04132	100.02
3.05798	100.02
3.07465	100.02
3.09132	100.01
3.10798	100.02
3.12465	100.02
3.14132	100.02
3.15798	100.02
3.17465	100.02
3.19132	100.03
3.20798	100.02
3.22465	100.03
3.24132	100.03
3.25798	100.03
3.27465	100.03
3.29132	100.03
3.30798	100.03
3.32465	100.03
3.34132	100.04
3.35798	100.04
3.37465	100.03
3.39132	100.03
3.40798	100.04
3.42465	100.04
3.44132	100.04
3.45798	100.04
3.47465	100.05
3.49132	100.04
3.50798	100.05
3.52465	100.05
3.54132	100.04
3.55798	100.05
3.57465	100.05
3.59132	100.05
3.60798	100.05
3.62465	100.05
3.64132	100.05
3.65798	100.04
3.67465	100.05
3.69132	100.05
3.70798	100.05
3.72465	100.05
3.74132	100.05
3.75798	100.05
3.77465	100.05
3.79132	100.05
3.80798	100.05
3.82465	100.05
3.84132	100.05
3.85798	100.05
3.87465	100.05
3.89132	100.05
3.90798	100.05
3.92465	100.05
3.94132	100.05
3.95798	100.05
3.97465	100.05
3.99132	100.05

[Status Trace (Carrier Gas Pressure)]
Interval(msec)	1000
# of Points	240
Start Time(min)	0.008
End Time(min)	3.991
Intensity Units	
Intensity Multiplier	1
R.Time (min)	Intensity
0.00798	58.00
0.02465	55.33
0.04132	57.12
0.05798	59.35
0.07465	59.26
0.09132	58.05
0.10798	57.98
0.12465	58.01
0.14132	58.01
0.15798	58.00
0.17465	58.00
0.19132	58.00
0.20798	58.00
0.22465	58.00
0.24132	58.00
0.25798	58.00
0.27465	58.00
0.29132	58.00
0.30798	58.00
0.32465	58.00
0.34132	58.00
0.35798	58.00
0.37465	58.00
0.39132	58.00
0.40798	58.00
0.42465	58.00
0.44132	58.00
0.45798	58.00
0.47465	58.00
0.49132	58.00
0.50798	58.00
0.52465	58.00
0.54132	58.00
0.55798	58.00
0.57465	58.00
0.59132	58.00
0.60798	58.00
0.62465	58.00
0.64132	58.00
0.65798	58.00
0.67465	58.00
0.69132	58.00
0.70798	58.00
0.72465	58.00
0.74132	58.00
0.75798	58.00
0.77465	58.00
0.79132	58.00
0.80798	58.00
0.82465	58.00
0.84132	58.00
0.85798	58.00
0.87465	58.00
0.89132	58.00
0.90798	58.00
0.92465	58.00
0.94132	58.00
0.95798	58.00
0.97465	58.00
0.99132	58.00
1.00798	58.00
1.02465	58.00
1.04132	58.00
1.05798	58.00
1.07465	58.00
1.09132	58.00
1.10798	58.00
1.12465	58.00
1.14132	58.00
1.15798	58.00
1.17465	58.00
1.19132	58.00
1.20798	58.00
1.22465	58.00
1.24132	58.00
1.25798	58.00
1.27465	58.00
1.29132	58.00
1.30798	58.00
1.32465	58.00
1.34132	58.00
1.35798	58.00
1.37465	58.00
1.39132	58.00
1.40798	58.00
1.42465	58.00
1.44132	58.00
1.45798	58.00
1.47465	58.00
1.49132	58.00
1.50798	58.00
1.52465	58.00
1.54132	58.00
1.55798	58.00
1.57465	58.00
1.59132	58.00
1.60798	58.00
1.62465	58.00
1.64132	58.01
1.65798	58.00
1.67465	58.01
1.69132	58.00
1.70798	58.00
1.72465	58.00
1.74132	58.00
1.75798	58.00
1.77465	58.00
1.79132	58.00
1.80798	58.00
1.82465	58.00
1.84132	58.00
1.85798	58.00
1.87465	58.00
1.89132	58.00
1.90798	58.00
1.92465	58.00
1.94132	58.00
1.95798	58.00
1.97465	58.00
1.99132	58.00
2.00798	58.00
2.02465	58.00
2.04132	58.00
2.05798	58.00
2.07465	58.00
2.09132	58.00
2.10798	58.00
2.12465	58.00
2.14132	58.00
2.15798	58.00
2.17465	58.00
2.19132	58.00
2.20798	58.00
2.22465	58.00
2.24132	58.00
2.25798	58.00
2.27465	58.00
2.29132	58.00
2.30798	58.00
2.32465	58.00
2.34132	58.00
2.35798	58.00
2.37465	58.00
2.39132	57.99
2.40798	57.99
2.42465	58.00
2.44132	58.00
2.45798	58.00
2.47465	58.00
2.49132	58.00
2.50798	57.99
2.52465	57.99
2.54132	58.00
2.55798	58.00
2.57465	58.00
2.59132	58.00
2.60798	58.00
2.62465	58.00
2.64132	58.00
2.65798	58.00
2.67465	58.00
2.69132	58.00
2.70798	58.00
2.72465	58.00
2.74132	58.00
2.75798	58.00
2.77465	58.00
2.79132	58.00
2.80798	58.00
2.82465	58.00
2.84132	58.00
2.85798	58.00
2.87465	58.00
2.89132	58.00
2.90798	58.00
2.92465	58.00
2.94132	58.00
2.95798	58.00
2.97465	58.00
2.99132	58.00
3.00798	58.00
3.02465	58.00
3.04132	58.00
3.05798	58.00
3.07465	58.00
3.09132	58.00
3.10798	58.00
3.12465	58.00
3.14132	58.00
3.15798	58.00
3.17465	58.00
3.19132	58.00
3.20798	58.00
3.22465	58.00
3.24132	58.00
3.25798	58.00
3.27465	58.00
3.29132	58.00
3.30798	58.00
3.32465	58.00
3.34132	58.00
3.35798	58.00
3.37465	58.00
3.39132	58.00
3.40798	58.00
3.42465	58.00
3.44132	58.00
3.45798	58.00
3.47465	58.00
3.49132	58.00
3.50798	58.00
3.52465	58.00
3.54132	58.00
3.55798	58.00
3.57465	58.00
3.59132	58.00
3.60798	58.00
3.62465	58.00
3.64132	58.00
3.65798	58.00
3.67465	58.00
3.69132	58.00
3.70798	58.00
3.72465	58.00
3.74132	58.00
3.75798	58.00
3.77465	58.00
3.79132	58.00
3.80798	58.00
3.82465	58.00
3.84132	58.00
3.85798	58.00
3.87465	58.00
3.89132	58.00
3.90798	58.00
3.92465	58.00
3.94132	58.00
3.95798	58.00
3.97465	58.00
3.99132	58.00

[Status Trace (Carrier Gas Flow)]
Interval(msec)	1000
# of Points	240
Start Time(min)	0.008
End Time(min)	3.991
Intensity Units	
Intensity Multiplier	1
R.Time (min)	Intensity
0.00798	34.52
0.02465	34.53
0.04132	34.55
0.05798	34.55
0.07465	34.50
0.09132	34.52
0.10798	34.52
0.12465	34.52
0.14132	34.51
0.15798	34.52
0.17465	34.52
0.19132	34.52
0.20798	34.52
0.22465	34.52
0.24132	34.52
0.25798	34.52
0.27465	34.51
0.29132	34.52
0.30798	34.52
0.32465	34.52
0.34132	34.52
0.35798	34.52
0.37465	34.52
0.39132	34.52
0.40798	34.52
0.42465	34.52
0.44132	34.52
0.45798	34.52
0.47465	34.52
0.49132	34.52
0.50798	34.51
0.52465	34.52
0.54132	34.52
0.55798	34.52
0.57465	34.52
0.59132	34.52
0.60798	34.52
0.62465	34.52
0.64132	34.52
0.65798	34.52
0.67465	34.52
0.69132	34.52
0.70798	34.52
0.72465	34.52
0.74132	34.52
0.75798	34.52
0.77465	34.52
0.79132	34.51
0.80798	34.52
0.82465	34.52
0.84132	34.52
0.85798	34.52
0.87465	34.52
0.89132	34.52
0.90798	34.52
0.92465	34.51
0.94132	34.52
0.95798	34.52
0.97465	34.51
0.99132	34.52
1.00798	34.52
1.02465	34.52
1.04132	34.52
1.05798	34.52
1.07465	34.52
1.09132	34.52
1.10798	34.52
1.12465	34.52
1.14132	34.52
1.15798	34.51
1.17465	34.52
1.19132	34.52
1.20798	34.51
1.22465	34.52
1.24132	34.51
1.25798	34.52
1.27465	34.51
1.29132	34.53
1.30798	34.52
1.32465	34.52
1.34132	34.52
1.35798	34.52
1.37465	34.52
1.39132	34.52
1.40798	34.52
1.42465	34.52
1.44132	34.52
1.45798	34.52
1.47465	34.52
1.49132	34.52
1.50798	34.52
1.52465	34.52
1.54132	34.52
1.55798	34.52
1.57465	34.51
1.59132	34.52
1.60798	34.52
1.62465	34.51
1.64132	34.53
1.65798	34.52
1.67465	34.52
1.69132	34.52
1.70798	34.52
1.72465	34.51
1.74132	34.52
1.75798	34.52
1.77465	34.52
1.79132	34.52
1.80798	34.52
1.82465	34.52
1.84132	34.52
1.85798	34.52
1.87465	34.52
1.89132	34.52
1.90798	34.51
1.92465	34.52
1.94132	34.52
1.95798	34.52
1.97465	34.52
1.99132	34.52
2.00798	34.52
2.02465	34.52
2.04132	34.52
2.05798	34.52
2.07465	34.52
2.09132	34.51
2.10798	34.52
2.12465	34.52
2.14132	34.52
2.15798	34.52
2.17465	34.52
2.19132	34.52
2.20798	34.52
2.22465	34.52
2.24132	34.52
2.25798	34.52
2.27465	34.52
2.29132	34.52
2.30798	34.52
2.32465	34.51
2.34132	34.52
2.35798	34.52
2.37465	34.52
2.39132	34.52
2.40798	34.52
2.42465	34.53
2.44132	34.51
2.45798	34.52
2.47465	34.52
2.49132	34.51
2.50798	34.41
2.52465	34.52
2.54132	34.52
2.55798	34.51
2.57465	34.52
2.59132	34.52
2.60798	34.52
2.62465	34.52
2.64132	34.52
2.65798	34.52
2.67465	34.52
2.69132	34.52
2.70798	34.52
2.72465	34.52
2.74132	34.52
2.75798	34.52
2.77465	34.52
2.79132	34.51
2.80798	34.52
2.82465	34.52
2.84132	34.52
2.85798	34.51
2.87465	34.52
2.89132	34.52
2.90798	34.52
2.92465	34.52
2.94132	34.52
2.95798	34.52
2.97465	34.51
2.99132	34.52
3.00798	34.52
3.02465	34.52
3.04132	34.52
3.05798	34.52
3.07465	34.52
3.09132	34.52
3.10798	34.52
3.12465	34.52
3.14132	34.52
3.15798	34.52
3.17465	34.52
3.19132	34.52
3.20798	34.52
3.22465	34.51
3.24132	34.52
3.25798	34.52
3.27465	34.52
3.29132	34.52
3.30798	34.52
3.32465	34.52
3.34132	34.52
3.35798	34.52
3.37465	34.52
3.39132	34.51
3.40798	34.52
3.42465	34.52
3.44132	34.52
3.45798	34.52
3.47465	34.52
3.49132	34.52
3.50798	34.52
3.52465	34.52
3.54132	34.52
3.55798	34.52
3.57465	34.52
3.59132	34.52
3.60798	34.52
3.62465	34.52
3.64132	34.52
3.65798	34.52
3.67465	34.52
3.69132	34.52
3.70798	34.52
3.72465	34.52
3.74132	34.52
3.75798	34.52
3.77465	34.52
3.79132	34.52
3.80798	34.52
3.82465	34.52
3.84132	34.52
3.85798	34.52
3.87465	34.51
3.89132	34.52
3.90798	34.52
3.92465	34.51
3.94132	34.52
3.95798	34.52
3.97465	34.52
3.99132	34.52

[Status Trace (Column Flow)]
Interval(msec)	1000
# of Points	240
Start Time(min)	0.008
End Time(min)	3.991
Intensity Units	
Intensity Multiplier	1
R.Time (min)	Intensity
0.00798	5.53
0.02465	5.22
0.04132	5.43
0.05798	5.69
0.07465	5.68
0.09132	5.54
0.10798	5.53
0.12465	5.53
0.14132	5.53
0.15798	5.53
0.17465	5.53
0.19132	5.53
0.20798	5.53
0.22465	5.53
0.24132	5.53
0.25798	5.53
0.27465	5.53
0.29132	5.53
0.30798	5.53
0.32465	5.53
0.34132	5.53
0.35798	5.53
0.37465	5.53
0.39132	5.53
0.40798	5.53
0.42465	5.53
0.44132	5.53
0.45798	5.53
0.47465	5.53
0.49132	5.53
0.50798	5.53
0.52465	5.53
0.54132	5.53
0.55798	5.53
0.57465	5.53
0.59132	5.53
0.60798	5.53
0.62465	5.53
0.64132	5.53
0.65798	5.53
0.67465	5.53
0.69132	5.53
0.70798	5.53
0.72465	5.53
0.74132	5.53
0.75798	5.53
0.77465	5.53
0.79132	5.53
0.80798	5.53
0.82465	5.53
0.84132	5.53
0.85798	5.53
0.87465	5.53
0.89132	5.53
0.90798	5.53
0.92465	5.53
0.94132	5.53
0.95798	5.53
0.97465	5.53
0.99132	5.53
1.00798	5.53
1.02465	5.53
1.04132	5.53
1.05798	5.53
1.07465	5.53
1.09132	5.53
1.10798	5.53
1.12465	5.53
1.14132	5.53
1.15798	5.53
1.17465	5.53
1.19132	5.53
1.20798	5.53
1.22465	5.53
1.24132	5.53
1.25798	5.53
1.27465	5.53
1.29132	5.53
1.30798	5.53
1.32465	5.53
1.34132	5.53
1.35798	5.53
1.37465	5.53
1.39132	5.53
1.40798	5.53
1.42465	5.53
1.44132	5.53
1.45798	5.53
1.47465	5.53
1.49132	5.53
1.50798	5.53
1.52465	5.53
1.54132	5.53
1.55798	5.53
1.57465	5.53
1.59132	5.53
1.60798	5.53
1.62465	5.53
1.64132	5.52
1.65798	5.51
1.67465	5.50
1.69132	5.49
1.70798	5.48
1.72465	5.47
1.74132	5.46
1.75798	5.45
1.77465	5.44
1.79132	5.43
1.80798	5.42
1.82465	5.41
1.84132	5.40
1.85798	5.39
1.87465	5.38
1.89132	5.37
1.90798	5.36
1.92465	5.35
1.94132	5.34
1.95798	5.33
1.97465	5.32
1.99132	5.31
2.00798	5.30
2.02465	5.29
2.04132	5.28
2.05798	5.27
2.07465	5.26
2.09132	5.25
2.10798	5.24
2.12465	5.24
2.14132	5.23
2.15798	5.22
2.17465	5.21
2.19132	5.20
2.20798	5.19
2.22465	5.18
2.24132	5.17
2.25798	5.16
2.27465	5.15
2.29132	5.14
2.30798	5.13
2.32465	5.12
2.34132	5.11
2.35798	5.11
2.37465	5.10
2.39132	5.10
2.40798	5.10
2.42465	5.10
2.44132	5.10
2.45798	5.10
2.47465	5.10
2.49132	5.10
2.50798	5.10
2.52465	5.10
2.54132	5.10
2.55798	5.10
2.57465	5.10
2.59132	5.10
2.60798	5.09
2.62465	5.09
2.64132	5.09
2.65798	5.09
2.67465	5.09
2.69132	5.09
2.70798	5.09
2.72465	5.09
2.74132	5.09
2.75798	5.09
2.77465	5.09
2.79132	5.09
2.80798	5.09
2.82465	5.09
2.84132	5.09
2.85798	5.09
2.87465	5.09
2.89132	5.09
2.90798	5.09
2.92465	5.09
2.94132	5.09
2.95798	5.09
2.97465	5.09
2.99132	5.09
3.00798	5.09
3.02465	5.09
3.04132	5.09
3.05798	5.09
3.07465	5.09
3.09132	5.09
3.10798	5.09
3.12465	5.09
3.14132	5.09
3.15798	5.09
3.17465	5.09
3.19132	5.09
3.20798	5.09
3.22465	5.09
3.24132	5.09
3.25798	5.09
3.27465	5.09
3.29132	5.09
3.30798	5.09
3.32465	5.09
3.34132	5.09
3.35798	5.09
3.37465	5.09
3.39132	5.09
3.40798	5.09
3.42465	5.09
3.44132	5.09
3.45798	5.09
3.47465	5.09
3.49132	5.09
3.50798	5.09
3.52465	5.09
3.54132	5.09
3.55798	5.09
3.57465	5.09
3.59132	5.09
3.60798	5.09
3.62465	5.09
3.64132	5.09
3.65798	5.09
3.67465	5.09
3.69132	5.09
3.70798	5.09
3.72465	5.09
3.74132	5.09
3.75798	5.09
3.77465	5.09
3.79132	5.09
3.80798	5.09
3.82465	5.09
3.84132	5.09
3.85798	5.09
3.87465	5.09
3.89132	5.09
3.90798	5.09
3.92465	5.09
3.94132	5.09
3.95798	5.09
3.97465	5.09
3.99132	5.09

[Status Trace (Linear Velocity)]
Interval(msec)	1000
# of Points	240
Start Time(min)	0.008
End Time(min)	3.991
Intensity Units	
Intensity Multiplier	1
R.Time (min)	Intensity
0.00798	39.02
0.02465	37.26
0.04132	38.44
0.05798	39.90
0.07465	39.84
0.09132	39.05
0.10798	39.01
0.12465	39.02
0.14132	39.02
0.15798	39.02
0.17465	39.02
0.19132	39.02
0.20798	39.02
0.22465	39.02
0.24132	39.02
0.25798	39.02
0.27465	39.02
0.29132	39.02
0.30798	39.02
0.32465	39.02
0.34132	39.02
0.35798	39.02
0.37465	39.02
0.39132	39.02
0.40798	39.02
0.42465	39.02
0.44132	39.02
0.45798	39.02
0.47465	39.02
0.49132	39.02
0.50798	39.02
0.52465	39.02
0.54132	39.02
0.55798	39.02
0.57465	39.02
0.59132	39.02
0.60798	39.02
0.62465	39.02
0.64132	39.02
0.65798	39.02
0.67465	39.02
0.69132	39.02
0.70798	39.02
0.72465	39.02
0.74132	39.02
0.75798	39.02
0.77465	39.02
0.79132	39.02
0.80798	39.02
0.82465	39.02
0.84132	39.02
0.85798	39.02
0.87465	39.02
0.89132	39.02
0.90798	39.02
0.92465	39.02
0.94132	39.02
0.95798	39.02
0.97465	39.02
0.99132	39.02
1.00798	39.02
1.02465	39.02
1.04132	39.02
1.05798	39.02
1.07465	39.02
1.09132	39.02
1.10798	39.02
1.12465	39.02
1.14132	39.02
1.15798	39.02
1.17465	39.02
1.19132	39.02
1.20798	39.02
1.22465	39.02
1.24132	39.02
1.25798	39.02
1.27465	39.02
1.29132	39.02
1.30798	39.02
1.32465	39.02
1.34132	39.02
1.35798	39.02
1.37465	39.02
1.39132	39.02
1.40798	39.02
1.42465	39.02
1.44132	39.02
1.45798	39.02
1.47465	39.02
1.49132	39.02
1.50798	39.02
1.52465	39.02
1.54132	39.02
1.55798	39.02
1.57465	39.02
1.59132	39.02
1.60798	39.02
1.62465	39.01
1.64132	38.99
1.65798	38.96
1.67465	38.93
1.69132	38.89
1.70798	38.86
1.72465	38.82
1.74132	38.80
1.75798	38.77
1.77465	38.74
1.79132	38.70
1.80798	38.67
1.82465	38.64
1.84132	38.61
1.85798	38.58
1.87465	38.55
1.89132	38.52
1.90798	38.49
1.92465	38.46
1.94132	38.42
1.95798	38.39
1.97465	38.36
1.99132	38.34
2.00798	38.31
2.02465	38.27
2.04132	38.24
2.05798	38.21
2.07465	38.19
2.09132	38.16
2.10798	38.13
2.12465	38.10
2.14132	38.07
2.15798	38.04
2.17465	38.01
2.19132	37.98
2.20798	37.95
2.22465	37.92
2.24132	37.89
2.25798	37.86
2.27465	37.83
2.29132	37.80
2.30798	37.76
2.32465	37.74
2.34132	37.71
2.35798	37.68
2.37465	37.67
2.39132	37.66
2.40798	37.66
2.42465	37.66
2.44132	37.66
2.45798	37.66
2.47465	37.66
2.49132	37.66
2.50798	37.66
2.52465	37.65
2.54132	37.65
2.55798	37.66
2.57465	37.65
2.59132	37.65
2.60798	37.65
2.62465	37.65
2.64132	37.65
2.65798	37.65
2.67465	37.65
2.69132	37.65
2.70798	37.65
2.72465	37.65
2.74132	37.65
2.75798	37.65
2.77465	37.65
2.79132	37.65
2.80798	37.65
2.82465	37.65
2.84132	37.65
2.85798	37.65
2.87465	37.65
2.89132	37.65
2.90798	37.65
2.92465	37.64
2.94132	37.64
2.95798	37.64
2.97465	37.64
2.99132	37.64
3.00798	37.64
3.02465	37.64
3.04132	37.64
3.05798	37.64
3.07465	37.63
3.09132	37.63
3.10798	37.63
3.12465	37.63
3.14132	37.63
3.15798	37.63
3.17465	37.63
3.19132	37.63
3.20798	37.63
3.22465	37.63
3.24132	37.63
3.25798	37.63
3.27465	37.63
3.29132	37.63
3.30798	37.63
3.32465	37.62
3.34132	37.62
3.35798	37.62
3.37465	37.63
3.39132	37.63
3.40798	37.63
3.42465	37.63
3.44132	37.63
3.45798	37.63
3.47465	37.63
3.49132	37.63
3.50798	37.63
3.52465	37.64
3.54132	37.64
3.55798	37.64
3.57465	37.64
3.59132	37.64
3.60798	37.64
3.62465	37.64
3.64132	37.64
3.65798	37.64
3.67465	37.64
3.69132	37.63
3.70798	37.63
3.72465	37.63
3.74132	37.63
3.75798	37.63
3.77465	37.63
3.79132	37.63
3.80798	37.63
3.82465	37.63
3.84132	37.63
3.85798	37.63
3.87465	37.63
3.89132	37.63
3.90798	37.63
3.92465	37.63
3.94132	37.63
3.95798	37.63
3.97465	37.63
3.99132	37.63

