[Header]
Application Name	LabSolutions
Version	5.110
Data File Name	C:\Users\User\Desktop\Junior\UIC Prairie Sampling\5.18.23\05182023_088.gcd
Output Date	6/5/2023
Output Time	2:17:30 PM

[File Information]
Type	Data File
Generated	5/24/2023 10:22:04 PM
Generated by	System Administrator
Modified	5/24/2023 10:29:16 PM
Modified by	System Administrator

[Sample Information]
Operator Name	System Administrator
Acquired	5/24/2023 10:25:15 PM
Sample Type	0:Unknown
Level	0
Sample Name	088
Sample ID	088
ISTD Amount1	1
ISTD Amount2	1
ISTD Amount3	1
ISTD Amount4	1
ISTD Amount5	1
ISTD Amount6	1
ISTD Amount7	1
ISTD Amount8	1
ISTD Amount9	1
ISTD Amount10	1
ISTD Amount11	1
ISTD Amount12	1
ISTD Amount13	1
ISTD Amount14	1
ISTD Amount15	1
ISTD Amount16	1
ISTD Amount17	1
ISTD Amount18	1
ISTD Amount19	1
ISTD Amount20	1
ISTD Amount21	1
ISTD Amount22	1
ISTD Amount23	1
ISTD Amount24	1
ISTD Amount25	1
ISTD Amount26	1
ISTD Amount27	1
ISTD Amount28	1
ISTD Amount29	1
ISTD Amount30	1
ISTD Amount31	1
ISTD Amount32	1
Sample Amount	1
Dilution Factor	1
Vial#	87
Injection Volume	1
Injection Count	1
Bar Code	

[Original Files]
Data File	C:\Users\User\Desktop\Junior\UIC Prairie Sampling\5.18.23\05182023_088.gcd
Method File	C:\LabSolutions\Data\GHG_4min_2022\ghg3_togas_w_acet_4 min_new_int.gcm
Batch File	C:\LabSolutions\Data\AutoSamplerTesting\05182023.gcb
Report Format File	c:\LabSolutions\System\DEFAULT.lsr

[File Description]


[Configuration]
Instrument Name	C0B7VH3-Instrument1
Instrument #	1
Line #	1
# of Detectors	3
Detector ID	DET#1	DET#2	DET#3
Detector Name	FID	PTCD	ECD
# of Channels	1	1	1

[Peak Table(Ch1)]
# of Peaks	3
Peak#	R.Time	I.Time	F.Time	Area	Height	A/H	Conc.	Mark	ID#	Name	k'	Plate #	Plate Ht.	Tailing	Resolution	Sep.Factor	Area Ratio	Height Ratio	Conc. %	Norm Conc.
1	1.472	1.424	1.527	4051	1975	2.051	0.000	   	1	CO	0.000	9435	15.898	1.259	0.000	0.000	0	0	0.000	0.000
2	1.564	1.527	1.622	4493	2292	1.960	21.905	 V 	2	CH4	0.062	11477	13.070	1.131	1.541	0.000	0	0	3.066	3.066
3	1.989	1.945	2.594	3593940	1707870	2.104	692.618	   	3	CO2	0.351	17114	8.765	1.328	7.136	5.640	0	0	96.934	96.934

[Peak Table(Ch2)]
# of Peaks	0

[Peak Table(Ch3)]
# of Peaks	6
Peak#	R.Time	I.Time	F.Time	Area	Height	A/H	Conc.	Mark	ID#	Name	k'	Plate #	Plate Ht.	Tailing	Resolution	Sep.Factor	Area Ratio	Height Ratio	Conc. %	Norm Conc.
1	2.458	2.334	2.510	1086	366	2.965	0.000	   			0.000	12350	12.145	0.000	0.000	0.000	0	0	0.000	0.000
2	2.528	2.510	2.576	403	148	2.722	0.000	 V 			0.028	2523	59.453	0.000	0.481	0.000	0	0	0.000	0.000
3	2.627	2.576	2.675	354	95	3.730	0.000	 V 			0.069	7220	20.776	0.000	0.609	2.421	0	0	0.000	0.000
4	2.891	2.719	3.188	19263	4817	3.999	0.285	S  	1	N2O	0.176	13368	11.221	1.586	2.360	2.565	0	0	100.000	100.000
5	3.173	3.100	3.188	218	82	2.646	0.000	T  	2	SF6	0.291	23063	6.504	0.600	3.076	1.653	0	0	0.000	0.000
6	3.320	3.199	3.995	10213	388	26.308	0.000	   			0.351	373	402.325	3.247	0.380	1.205	0	0	0.000	0.000

[Compound Results(Ch1)]
# of IDs	6
ID#	Name	R.Time	Area	Height	Conc.	Curve	3rd	2nd	1st	Constant	Area Ratio	Height Ratio	Conc. %	Norm Conc.
1	CO	1.472	4051	1975	0.000	Linear	0.000000e+00	0.000000e+00	0.000000e+00	0.000000e+00	0	0	0.000	0.000
2	CH4	1.564	4493	2292	21.905	Linear	0.000000e+00	0.000000e+00	2.051179e+002	0.000000e+00	0	0	3.066	3.066
3	CO2	1.989	3593940	1707870	692.618	Linear	0.000000e+00	0.000000e+00	5.188919e+003	0.000000e+00	0	0	96.934	96.934
4	Ethylene	0.000	0	0	0.000	Linear	0.000000e+00	0.000000e+00	0.000000e+00	0.000000e+00	0	0	0.000	0.000
5	Acetylene	0.000	0	0	0.000	Linear	0.000000e+00	0.000000e+00	0.000000e+00	0.000000e+00	0	0	0.000	0.000
6	Ethane	0.000	0	0	0.000	Linear	0.000000e+00	0.000000e+00	0.000000e+00	0.000000e+00	0	0	0.000	0.000

[Compound Results(Ch2)]
# of IDs	5
ID#	Name	R.Time	Area	Height	Conc.	Curve	3rd	2nd	1st	Constant	Area Ratio	Height Ratio	Conc. %	Norm Conc.
1	Hydrogen	0.000	0	0	0.000	Linear	0.000000e+00	0.000000e+00	0.000000e+00	0.000000e+00	0	0	0.000	0.000
2	Oxygen	0.000	0	0	0.000	Linear	0.000000e+00	0.000000e+00	0.000000e+00	0.000000e+00	0	0	0.000	0.000
3	Nitrogen	0.000	0	0	0.000	Linear	0.000000e+00	0.000000e+00	0.000000e+00	0.000000e+00	0	0	0.000	0.000
4	Methane	0.000	0	0	0.000	Linear	0.000000e+00	0.000000e+00	0.000000e+00	0.000000e+00	0	0	0.000	0.000
5	Carbon Monoxide	0.000	0	0	0.000	Linear	0.000000e+00	0.000000e+00	0.000000e+00	0.000000e+00	0	0	0.000	0.000

[Compound Results(Ch3)]
# of IDs	2
ID#	Name	R.Time	Area	Height	Conc.	Curve	3rd	2nd	1st	Constant	Area Ratio	Height Ratio	Conc. %	Norm Conc.
1	N2O	2.891	19263	4817	0.285	Linear	0.000000e+00	0.000000e+00	6.759880e+004	0.000000e+00	0	0	100.000	100.000
2	SF6	3.173	218	82	0.000	Linear	0.000000e+00	0.000000e+00	0.000000e+00	0.000000e+00	0	0	0.000	0.000

[Group Results(Ch1)]
# of Groups	0

[Group Results(Ch2)]
# of Groups	0

[Group Results(Ch3)]
# of Groups	0

[Chromatogram (Ch1)]
Interval(msec)	220
# of Points	1091
Start Time(min)	0.002
End Time(min)	3.998
R.Time (min)	Intensity
0.00167	-27
0.00533	-29
0.00900	-30
0.01267	-28
0.01633	-24
0.02000	-21
0.02367	-18
0.02733	-17
0.03100	-17
0.03467	-16
0.03833	-11
0.04200	-4
0.04567	-6
0.04933	-15
0.05300	-24
0.05667	-30
0.06033	-32
0.06400	-29
0.06767	-22
0.07133	-17
0.07500	-15
0.07867	-10
0.08233	-2
0.08600	6
0.08967	8
0.09333	6
0.09700	-2
0.10067	-10
0.10433	-9
0.10800	-8
0.11167	-7
0.11533	-6
0.11900	-1
0.12267	7
0.12633	15
0.13000	16
0.13367	11
0.13733	-1
0.14100	-16
0.14467	-30
0.14833	-39
0.15200	-43
0.15567	-42
0.15933	-36
0.16300	-32
0.16667	-29
0.17033	-27
0.17400	-26
0.17767	-24
0.18133	-20
0.18500	-12
0.18867	-4
0.19233	0
0.19600	4
0.19967	8
0.20333	1
0.20700	-9
0.21067	-14
0.21433	-14
0.21800	-11
0.22167	-7
0.22533	-5
0.22900	-3
0.23267	-1
0.23633	-0
0.24000	2
0.24367	3
0.24733	2
0.25100	3
0.25467	7
0.25833	10
0.26200	8
0.26567	1
0.26933	-6
0.27300	-17
0.27667	-28
0.28033	-34
0.28400	-35
0.28767	-34
0.29133	-30
0.29500	-26
0.29867	-21
0.30233	-13
0.30600	-7
0.30967	-4
0.31333	1
0.31700	6
0.32067	8
0.32433	5
0.32800	-2
0.33167	-6
0.33533	-3
0.33900	2
0.34267	4
0.34633	1
0.35000	2
0.35367	7
0.35733	8
0.36100	6
0.36467	6
0.36833	7
0.37200	9
0.37567	8
0.37933	5
0.38300	-0
0.38667	-3
0.39033	-5
0.39400	-6
0.39767	-7
0.40133	-6
0.40500	-5
0.40867	-1
0.41233	5
0.41600	7
0.41967	4
0.42333	-3
0.42700	-10
0.43067	-16
0.43433	-16
0.43800	-8
0.44167	1
0.44533	3
0.44900	-0
0.45267	-5
0.45633	-7
0.46000	-5
0.46367	-4
0.46733	-6
0.47100	-13
0.47467	-21
0.47833	-26
0.48200	-30
0.48567	-30
0.48933	-29
0.49300	-31
0.49667	-32
0.50033	-33
0.50400	-27
0.50767	-18
0.51133	-12
0.51500	-5
0.51867	3
0.52233	9
0.52600	11
0.52967	10
0.53333	7
0.53700	5
0.54067	6
0.54433	8
0.54800	6
0.55167	2
0.55533	2
0.55900	5
0.56267	4
0.56633	1
0.57000	1
0.57367	4
0.57733	6
0.58100	6
0.58467	3
0.58833	1
0.59200	-2
0.59567	-6
0.59933	-10
0.60300	-12
0.60667	-5
0.61033	4
0.61400	11
0.61767	12
0.62133	5
0.62500	-3
0.62867	-11
0.63233	-17
0.63600	-20
0.63967	-17
0.64333	-14
0.64700	-11
0.65067	-14
0.65433	-22
0.65800	-33
0.66167	-42
0.66533	-46
0.66900	-48
0.67267	-47
0.67633	-47
0.68000	-44
0.68367	-38
0.68733	-38
0.69100	-40
0.69467	-35
0.69833	-27
0.70200	-24
0.70567	-24
0.70933	-22
0.71300	-18
0.71667	-18
0.72033	-20
0.72400	-19
0.72767	-14
0.73133	-11
0.73500	-6
0.73867	1
0.74233	6
0.74600	4
0.74967	-5
0.75333	-15
0.75700	-21
0.76067	-26
0.76433	-25
0.76800	-25
0.77167	-25
0.77533	-23
0.77900	-19
0.78267	-17
0.78633	-17
0.79000	-13
0.79367	-12
0.79733	-12
0.80100	-13
0.80467	-13
0.80833	-13
0.81200	-13
0.81567	-12
0.81933	-8
0.82300	-2
0.82667	4
0.83033	8
0.83400	8
0.83767	2
0.84133	-6
0.84500	-9
0.84867	-7
0.85233	-1
0.85600	4
0.85967	5
0.86333	0
0.86700	-10
0.87067	-23
0.87433	-32
0.87800	-34
0.88167	-33
0.88533	-26
0.88900	-17
0.89267	-11
0.89633	-10
0.90000	-9
0.90367	-6
0.90733	1
0.91100	10
0.91467	12
0.91833	9
0.92200	4
0.92567	-3
0.92933	-9
0.93300	-13
0.93667	-19
0.94033	-25
0.94400	-31
0.94767	-35
0.95133	-40
0.95500	-45
0.95867	-47
0.96233	-47
0.96600	-43
0.96967	-36
0.97333	-28
0.97700	-20
0.98067	-14
0.98433	-10
0.98800	-11
0.99167	-16
0.99533	-19
0.99900	-19
1.00267	-17
1.00633	-14
1.01000	-13
1.01367	-14
1.01733	-15
1.02100	-13
1.02467	-13
1.02833	-16
1.03200	-22
1.03567	-26
1.03933	-29
1.04300	-28
1.04667	-25
1.05033	-23
1.05400	-19
1.05767	-18
1.06133	-20
1.06500	-20
1.06867	-18
1.07233	-18
1.07600	-19
1.07967	-16
1.08333	-11
1.08700	-9
1.09067	-11
1.09433	-21
1.09800	-30
1.10167	-31
1.10533	-25
1.10900	-19
1.11267	-15
1.11633	-14
1.12000	-16
1.12367	-20
1.12733	-24
1.13100	-26
1.13467	-29
1.13833	-30
1.14200	-28
1.14567	-25
1.14933	-21
1.15300	-20
1.15667	-22
1.16033	-23
1.16400	-24
1.16767	-23
1.17133	-20
1.17500	-18
1.17867	-16
1.18233	-16
1.18600	-20
1.18967	-22
1.19333	-23
1.19700	-23
1.20067	-20
1.20433	-14
1.20800	-8
1.21167	-3
1.21533	-4
1.21900	-9
1.22267	-14
1.22633	-18
1.23000	-23
1.23367	-27
1.23733	-27
1.24100	-30
1.24467	-32
1.24833	-33
1.25200	-31
1.25567	-30
1.25933	-31
1.26300	-31
1.26667	-33
1.27033	-34
1.27400	-35
1.27767	-37
1.28133	-38
1.28500	-39
1.28867	-39
1.29233	-38
1.29600	-38
1.29967	-37
1.30333	-31
1.30700	-22
1.31067	-19
1.31433	-20
1.31800	-24
1.32167	-25
1.32533	-21
1.32900	-18
1.33267	-20
1.33633	-24
1.34000	-26
1.34367	-25
1.34733	-23
1.35100	-23
1.35467	-29
1.35833	-39
1.36200	-47
1.36567	-52
1.36933	-59
1.37300	-63
1.37667	-63
1.38033	-58
1.38400	-51
1.38767	-45
1.39133	-38
1.39500	-38
1.39867	-39
1.40233	-40
1.40600	-42
1.40967	-44
1.41333	-44
1.41700	-44
1.42067	-42
1.42433	-40
1.42800	-35
1.43167	-30
1.43533	-21
1.43900	1
1.44267	29
1.44633	86
1.45000	263
1.45367	583
1.45733	965
1.46100	1322
1.46467	1617
1.46833	1831
1.47200	1936
1.47567	1903
1.47933	1731
1.48300	1460
1.48667	1150
1.49033	853
1.49400	602
1.49767	408
1.50133	268
1.50500	174
1.50867	113
1.51233	70
1.51600	40
1.51967	18
1.52333	2
1.52700	-10
1.53067	-11
1.53433	24
1.53800	149
1.54167	415
1.54533	808
1.54900	1253
1.55267	1663
1.55633	1985
1.56000	2191
1.56367	2254
1.56733	2150
1.57100	1891
1.57467	1533
1.57833	1154
1.58200	814
1.58567	542
1.58933	340
1.59300	200
1.59667	109
1.60033	53
1.60400	21
1.60767	2
1.61133	-13
1.61500	-25
1.61867	-33
1.62233	-37
1.62600	-40
1.62967	-46
1.63333	-51
1.63700	-53
1.64067	-53
1.64433	-54
1.64800	-60
1.65167	-66
1.65533	-69
1.65900	-67
1.66267	-66
1.66633	-67
1.67000	-67
1.67367	-65
1.67733	-64
1.68100	-63
1.68467	-62
1.68833	-63
1.69200	-64
1.69567	-63
1.69933	-61
1.70300	-60
1.70667	-64
1.71033	-70
1.71400	-73
1.71767	-73
1.72133	-73
1.72500	-70
1.72867	-63
1.73233	-54
1.73600	-46
1.73967	-43
1.74333	-48
1.74700	-60
1.75067	-68
1.75433	-74
1.75800	-77
1.76167	-77
1.76533	-71
1.76900	-64
1.77267	-60
1.77633	-64
1.78000	-72
1.78367	-80
1.78733	-87
1.79100	-90
1.79467	-88
1.79833	-85
1.80200	-83
1.80567	-81
1.80933	-82
1.81300	-83
1.81667	-83
1.82033	-81
1.82400	-78
1.82767	-77
1.83133	-77
1.83500	-75
1.83867	-70
1.84233	-62
1.84600	-55
1.84967	-46
1.85333	-39
1.85700	-37
1.86067	-38
1.86433	-40
1.86800	-45
1.87167	-51
1.87533	-54
1.87900	-54
1.88267	-54
1.88633	-59
1.89000	-63
1.89367	-64
1.89733	-66
1.90100	-68
1.90467	-67
1.90833	-66
1.91200	-61
1.91567	-55
1.91933	-45
1.92300	-38
1.92667	-37
1.93033	-36
1.93400	-32
1.93767	-33
1.94133	-35
1.94500	-23
1.94867	126
1.95233	1175
1.95600	6632
1.95967	27891
1.96333	90662
1.96700	230876
1.97067	469291
1.97433	784508
1.97800	1119517
1.98167	1412608
1.98533	1617121
1.98900	1707879
1.99267	1679368
1.99633	1544572
2.00000	1333852
2.00367	1086785
2.00733	841345
2.01100	624617
2.01467	449429
2.01833	316812
2.02200	221046
2.02567	154089
2.02933	108226
2.03300	77168
2.03667	56212
2.04033	42024
2.04400	32327
2.04767	25604
2.05133	20849
2.05500	17408
2.05867	14855
2.06233	12913
2.06600	11395
2.06967	10180
2.07333	9192
2.07700	8366
2.08067	7667
2.08433	7071
2.08800	6558
2.09167	6110
2.09533	5716
2.09900	5367
2.10267	5060
2.10633	4785
2.11000	4532
2.11367	4301
2.11733	4090
2.12100	3895
2.12467	3709
2.12833	3531
2.13200	3366
2.13567	3217
2.13933	3083
2.14300	2959
2.14667	2846
2.15033	2741
2.15400	2645
2.15767	2556
2.16133	2472
2.16500	2388
2.16867	2307
2.17233	2229
2.17600	2156
2.17967	2089
2.18333	2031
2.18700	1975
2.19067	1921
2.19433	1868
2.19800	1817
2.20167	1768
2.20533	1722
2.20900	1682
2.21267	1649
2.21633	1619
2.22000	1585
2.22367	1546
2.22733	1502
2.23100	1459
2.23467	1418
2.23833	1381
2.24200	1346
2.24567	1316
2.24933	1286
2.25300	1254
2.25667	1224
2.26033	1198
2.26400	1177
2.26767	1160
2.27133	1140
2.27500	1117
2.27867	1092
2.28233	1072
2.28600	1058
2.28967	1045
2.29333	1032
2.29700	1019
2.30067	1004
2.30433	987
2.30800	968
2.31167	948
2.31533	927
2.31900	908
2.32267	891
2.32633	875
2.33000	867
2.33367	864
2.33733	862
2.34100	857
2.34467	846
2.34833	830
2.35200	809
2.35567	786
2.35933	768
2.36300	758
2.36667	751
2.37033	745
2.37400	741
2.37767	738
2.38133	735
2.38500	730
2.38867	726
2.39233	721
2.39600	714
2.39967	703
2.40333	693
2.40700	683
2.41067	675
2.41433	667
2.41800	660
2.42167	651
2.42533	644
2.42900	639
2.43267	636
2.43633	635
2.44000	635
2.44367	635
2.44733	633
2.45100	625
2.45467	614
2.45833	602
2.46200	591
2.46567	588
2.46933	587
2.47300	584
2.47667	578
2.48033	570
2.48400	564
2.48767	557
2.49133	551
2.49500	546
2.49867	542
2.50233	541
2.50600	543
2.50967	542
2.51333	538
2.51700	533
2.52067	529
2.52433	527
2.52800	524
2.53167	521
2.53533	517
2.53900	511
2.54267	508
2.54633	509
2.55000	512
2.55367	515
2.55733	516
2.56100	516
2.56467	514
2.56833	511
2.57200	506
2.57567	502
2.57933	496
2.58300	489
2.58667	479
2.59033	467
2.59400	458
2.59767	456
2.60133	461
2.60500	471
2.60867	478
2.61233	479
2.61600	477
2.61967	474
2.62333	476
2.62700	480
2.63067	477
2.63433	470
2.63800	462
2.64167	454
2.64533	444
2.64900	436
2.65267	434
2.65633	439
2.66000	449
2.66367	460
2.66733	467
2.67100	469
2.67467	464
2.67833	453
2.68200	444
2.68567	433
2.68933	418
2.69300	410
2.69667	410
2.70033	416
2.70400	425
2.70767	433
2.71133	436
2.71500	438
2.71867	438
2.72233	440
2.72600	443
2.72967	443
2.73333	444
2.73700	449
2.74067	449
2.74433	442
2.74800	434
2.75167	431
2.75533	432
2.75900	435
2.76267	438
2.76633	441
2.77000	443
2.77367	444
2.77733	445
2.78100	445
2.78467	445
2.78833	446
2.79200	443
2.79567	436
2.79933	434
2.80300	433
2.80667	432
2.81033	430
2.81400	427
2.81767	425
2.82133	427
2.82500	430
2.82867	429
2.83233	426
2.83600	427
2.83967	429
2.84333	430
2.84700	430
2.85067	429
2.85433	430
2.85800	433
2.86167	437
2.86533	437
2.86900	434
2.87267	430
2.87633	426
2.88000	420
2.88367	417
2.88733	417
2.89100	419
2.89467	424
2.89833	427
2.90200	427
2.90567	425
2.90933	422
2.91300	422
2.91667	426
2.92033	431
2.92400	434
2.92767	435
2.93133	435
2.93500	436
2.93867	434
2.94233	436
2.94600	443
2.94967	446
2.95333	447
2.95700	444
2.96067	443
2.96433	447
2.96800	454
2.97167	461
2.97533	468
2.97900	471
2.98267	466
2.98633	458
2.99000	454
2.99367	454
2.99733	456
3.00100	460
3.00467	463
3.00833	465
3.01200	469
3.01567	472
3.01933	471
3.02300	469
3.02667	462
3.03033	453
3.03400	446
3.03767	440
3.04133	435
3.04500	434
3.04867	431
3.05233	429
3.05600	432
3.05967	434
3.06333	430
3.06700	426
3.07067	423
3.07433	421
3.07800	422
3.08167	425
3.08533	428
3.08900	427
3.09267	428
3.09633	435
3.10000	444
3.10367	448
3.10733	448
3.11100	446
3.11467	449
3.11833	453
3.12200	455
3.12567	454
3.12933	449
3.13300	447
3.13667	449
3.14033	450
3.14400	450
3.14767	449
3.15133	453
3.15500	459
3.15867	462
3.16233	460
3.16600	457
3.16967	458
3.17333	459
3.17700	456
3.18067	451
3.18433	445
3.18800	440
3.19167	440
3.19533	438
3.19900	435
3.20267	431
3.20633	428
3.21000	422
3.21367	420
3.21733	422
3.22100	427
3.22467	434
3.22833	441
3.23200	447
3.23567	452
3.23933	454
3.24300	456
3.24667	459
3.25033	464
3.25400	470
3.25767	473
3.26133	471
3.26500	467
3.26867	462
3.27233	457
3.27600	450
3.27967	447
3.28333	450
3.28700	457
3.29067	460
3.29433	459
3.29800	453
3.30167	445
3.30533	434
3.30900	424
3.31267	415
3.31633	408
3.32000	406
3.32367	411
3.32733	418
3.33100	425
3.33467	430
3.33833	435
3.34200	440
3.34567	446
3.34933	454
3.35300	461
3.35667	461
3.36033	456
3.36400	451
3.36767	445
3.37133	435
3.37500	427
3.37867	422
3.38233	422
3.38600	427
3.38967	438
3.39333	446
3.39700	451
3.40067	452
3.40433	450
3.40800	452
3.41167	452
3.41533	453
3.41900	454
3.42267	452
3.42633	450
3.43000	447
3.43367	446
3.43733	448
3.44100	444
3.44467	435
3.44833	432
3.45200	431
3.45567	432
3.45933	430
3.46300	428
3.46667	428
3.47033	430
3.47400	434
3.47767	437
3.48133	436
3.48500	432
3.48867	426
3.49233	419
3.49600	414
3.49967	409
3.50333	401
3.50700	397
3.51067	402
3.51433	411
3.51800	418
3.52167	420
3.52533	419
3.52900	418
3.53267	416
3.53633	416
3.54000	418
3.54367	421
3.54733	425
3.55100	427
3.55467	423
3.55833	416
3.56200	410
3.56567	403
3.56933	400
3.57300	402
3.57667	406
3.58033	410
3.58400	413
3.58767	416
3.59133	417
3.59500	414
3.59867	410
3.60233	409
3.60600	408
3.60967	403
3.61333	398
3.61700	398
3.62067	400
3.62433	404
3.62800	410
3.63167	416
3.63533	422
3.63900	427
3.64267	430
3.64633	427
3.65000	423
3.65367	420
3.65733	417
3.66100	413
3.66467	412
3.66833	413
3.67200	412
3.67567	408
3.67933	402
3.68300	395
3.68667	389
3.69033	387
3.69400	388
3.69767	389
3.70133	391
3.70500	393
3.70867	394
3.71233	395
3.71600	395
3.71967	396
3.72333	398
3.72700	404
3.73067	411
3.73433	413
3.73800	413
3.74167	413
3.74533	412
3.74900	407
3.75267	403
3.75633	400
3.76000	397
3.76367	394
3.76733	393
3.77100	393
3.77467	390
3.77833	387
3.78200	387
3.78567	389
3.78933	388
3.79300	385
3.79667	378
3.80033	373
3.80400	374
3.80767	380
3.81133	385
3.81500	387
3.81867	386
3.82233	387
3.82600	391
3.82967	396
3.83333	397
3.83700	394
3.84067	387
3.84433	381
3.84800	379
3.85167	380
3.85533	385
3.85900	392
3.86267	390
3.86633	380
3.87000	365
3.87367	356
3.87733	355
3.88100	357
3.88467	356
3.88833	358
3.89200	364
3.89567	368
3.89933	368
3.90300	365
3.90667	364
3.91033	366
3.91400	368
3.91767	372
3.92133	376
3.92500	378
3.92867	377
3.93233	375
3.93600	372
3.93967	369
3.94333	369
3.94700	370
3.95067	369
3.95433	366
3.95800	360
3.96167	350
3.96533	344
3.96900	338
3.97267	336
3.97633	336
3.98000	337
3.98367	337
3.98733	336
3.99100	334
3.99467	334
3.99833	339

[Chromatogram (Ch2)]
Interval(msec)	220
# of Points	1091
Start Time(min)	0.002
End Time(min)	3.998
R.Time (min)	Intensity
0.00167	1
0.00533	1
0.00900	2
0.01267	2
0.01633	2
0.02000	2
0.02367	2
0.02733	2
0.03100	2
0.03467	3
0.03833	3
0.04200	3
0.04567	4
0.04933	4
0.05300	5
0.05667	5
0.06033	5
0.06400	6
0.06767	6
0.07133	6
0.07500	6
0.07867	5
0.08233	5
0.08600	5
0.08967	5
0.09333	5
0.09700	5
0.10067	5
0.10433	5
0.10800	5
0.11167	5
0.11533	5
0.11900	4
0.12267	4
0.12633	4
0.13000	4
0.13367	4
0.13733	4
0.14100	4
0.14467	4
0.14833	5
0.15200	5
0.15567	6
0.15933	6
0.16300	6
0.16667	6
0.17033	5
0.17400	5
0.17767	4
0.18133	4
0.18500	4
0.18867	3
0.19233	3
0.19600	3
0.19967	3
0.20333	3
0.20700	3
0.21067	2
0.21433	2
0.21800	2
0.22167	2
0.22533	1
0.22900	1
0.23267	1
0.23633	0
0.24000	0
0.24367	0
0.24733	-0
0.25100	-0
0.25467	-0
0.25833	-0
0.26200	-0
0.26567	-1
0.26933	-1
0.27300	-1
0.27667	-0
0.28033	-0
0.28400	-0
0.28767	-1
0.29133	-1
0.29500	-1
0.29867	-0
0.30233	-0
0.30600	-0
0.30967	-0
0.31333	-0
0.31700	-0
0.32067	-1
0.32433	-1
0.32800	-1
0.33167	-1
0.33533	-1
0.33900	-1
0.34267	-1
0.34633	-1
0.35000	-0
0.35367	-0
0.35733	0
0.36100	0
0.36467	1
0.36833	1
0.37200	1
0.37567	1
0.37933	1
0.38300	1
0.38667	1
0.39033	1
0.39400	1
0.39767	1
0.40133	1
0.40500	1
0.40867	1
0.41233	1
0.41600	2
0.41967	2
0.42333	2
0.42700	2
0.43067	2
0.43433	2
0.43800	2
0.44167	3
0.44533	3
0.44900	3
0.45267	3
0.45633	3
0.46000	4
0.46367	3
0.46733	3
0.47100	3
0.47467	3
0.47833	3
0.48200	3
0.48567	2
0.48933	2
0.49300	2
0.49667	2
0.50033	2
0.50400	2
0.50767	2
0.51133	2
0.51500	2
0.51867	2
0.52233	2
0.52600	2
0.52967	2
0.53333	2
0.53700	2
0.54067	2
0.54433	1
0.54800	1
0.55167	1
0.55533	1
0.55900	1
0.56267	1
0.56633	1
0.57000	2
0.57367	2
0.57733	2
0.58100	2
0.58467	2
0.58833	2
0.59200	2
0.59567	2
0.59933	2
0.60300	2
0.60667	2
0.61033	3
0.61400	3
0.61767	3
0.62133	3
0.62500	3
0.62867	2
0.63233	2
0.63600	2
0.63967	1
0.64333	1
0.64700	1
0.65067	0
0.65433	0
0.65800	1
0.66167	1
0.66533	1
0.66900	1
0.67267	0
0.67633	0
0.68000	0
0.68367	0
0.68733	0
0.69100	0
0.69467	-0
0.69833	0
0.70200	0
0.70567	0
0.70933	0
0.71300	0
0.71667	0
0.72033	0
0.72400	-0
0.72767	-0
0.73133	-1
0.73500	-1
0.73867	-1
0.74233	-1
0.74600	-2
0.74967	-2
0.75333	-2
0.75700	-2
0.76067	-2
0.76433	-3
0.76800	-3
0.77167	-3
0.77533	-3
0.77900	-4
0.78267	-4
0.78633	-4
0.79000	-4
0.79367	-4
0.79733	-3
0.80100	-3
0.80467	-3
0.80833	-2
0.81200	-1
0.81567	-1
0.81933	-1
0.82300	-0
0.82667	-0
0.83033	0
0.83400	1
0.83767	1
0.84133	1
0.84500	1
0.84867	1
0.85233	1
0.85600	1
0.85967	1
0.86333	1
0.86700	1
0.87067	2
0.87433	2
0.87800	2
0.88167	3
0.88533	3
0.88900	3
0.89267	2
0.89633	2
0.90000	2
0.90367	2
0.90733	1
0.91100	1
0.91467	1
0.91833	1
0.92200	1
0.92567	1
0.92933	1
0.93300	1
0.93667	1
0.94033	0
0.94400	0
0.94767	0
0.95133	0
0.95500	0
0.95867	-0
0.96233	-0
0.96600	-1
0.96967	-1
0.97333	-1
0.97700	-2
0.98067	-2
0.98433	-2
0.98800	-1
0.99167	-1
0.99533	-1
0.99900	-1
1.00267	-1
1.00633	-1
1.01000	-1
1.01367	-1
1.01733	-1
1.02100	-1
1.02467	-1
1.02833	-1
1.03200	-1
1.03567	-0
1.03933	-0
1.04300	0
1.04667	0
1.05033	0
1.05400	1
1.05767	1
1.06133	1
1.06500	1
1.06867	1
1.07233	1
1.07600	1
1.07967	1
1.08333	1
1.08700	0
1.09067	0
1.09433	0
1.09800	0
1.10167	-0
1.10533	-0
1.10900	-1
1.11267	-1
1.11633	-1
1.12000	-1
1.12367	-1
1.12733	-0
1.13100	-0
1.13467	-0
1.13833	-0
1.14200	-0
1.14567	-0
1.14933	-0
1.15300	-0
1.15667	-0
1.16033	-0
1.16400	-1
1.16767	-0
1.17133	-0
1.17500	-0
1.17867	-0
1.18233	-1
1.18600	-1
1.18967	-1
1.19333	-1
1.19700	-1
1.20067	-1
1.20433	-1
1.20800	-1
1.21167	-1
1.21533	-1
1.21900	-1
1.22267	-2
1.22633	-2
1.23000	-2
1.23367	-2
1.23733	-2
1.24100	-2
1.24467	-2
1.24833	-2
1.25200	-2
1.25567	-2
1.25933	-2
1.26300	-1
1.26667	-1
1.27033	-1
1.27400	-0
1.27767	-0
1.28133	-0
1.28500	0
1.28867	0
1.29233	0
1.29600	0
1.29967	0
1.30333	0
1.30700	0
1.31067	0
1.31433	1
1.31800	1
1.32167	1
1.32533	1
1.32900	1
1.33267	1
1.33633	1
1.34000	0
1.34367	0
1.34733	0
1.35100	0
1.35467	0
1.35833	-0
1.36200	-0
1.36567	-1
1.36933	-1
1.37300	-1
1.37667	-1
1.38033	-1
1.38400	-1
1.38767	-1
1.39133	-2
1.39500	-2
1.39867	-2
1.40233	-2
1.40600	-2
1.40967	-3
1.41333	-3
1.41700	-3
1.42067	-3
1.42433	-3
1.42800	-3
1.43167	-2
1.43533	-2
1.43900	-2
1.44267	-2
1.44633	-2
1.45000	-2
1.45367	-2
1.45733	-2
1.46100	-2
1.46467	-1
1.46833	-1
1.47200	-1
1.47567	-1
1.47933	-1
1.48300	-1
1.48667	-1
1.49033	-1
1.49400	-1
1.49767	-1
1.50133	-1
1.50500	-2
1.50867	-2
1.51233	-2
1.51600	-2
1.51967	-2
1.52333	-2
1.52700	-3
1.53067	-3
1.53433	-3
1.53800	-3
1.54167	-4
1.54533	-4
1.54900	-4
1.55267	-5
1.55633	-5
1.56000	-5
1.56367	-5
1.56733	-4
1.57100	-4
1.57467	-4
1.57833	-4
1.58200	-4
1.58567	-4
1.58933	-5
1.59300	-5
1.59667	-5
1.60033	-6
1.60400	-7
1.60767	-9
1.61133	-10
1.61500	-12
1.61867	-14
1.62233	-17
1.62600	-19
1.62967	-22
1.63333	-25
1.63700	-28
1.64067	-31
1.64433	-34
1.64800	-37
1.65167	-41
1.65533	-44
1.65900	-47
1.66267	-51
1.66633	-55
1.67000	-59
1.67367	-63
1.67733	-67
1.68100	-72
1.68467	-76
1.68833	-80
1.69200	-84
1.69567	-87
1.69933	-90
1.70300	-92
1.70667	-94
1.71033	-95
1.71400	-96
1.71767	-97
1.72133	-98
1.72500	-99
1.72867	-100
1.73233	-101
1.73600	-102
1.73967	-102
1.74333	-103
1.74700	-103
1.75067	-103
1.75433	-103
1.75800	-102
1.76167	-101
1.76533	-101
1.76900	-100
1.77267	-100
1.77633	-99
1.78000	-98
1.78367	-98
1.78733	-98
1.79100	-99
1.79467	-99
1.79833	-100
1.80200	-101
1.80567	-102
1.80933	-103
1.81300	-103
1.81667	-104
1.82033	-104
1.82400	-104
1.82767	-104
1.83133	-104
1.83500	-104
1.83867	-105
1.84233	-105
1.84600	-106
1.84967	-106
1.85333	-107
1.85700	-107
1.86067	-107
1.86433	-106
1.86800	-106
1.87167	-106
1.87533	-106
1.87900	-105
1.88267	-105
1.88633	-104
1.89000	-104
1.89367	-104
1.89733	-104
1.90100	-103
1.90467	-103
1.90833	-102
1.91200	-101
1.91567	-101
1.91933	-101
1.92300	-101
1.92667	-101
1.93033	-101
1.93400	-101
1.93767	-102
1.94133	-102
1.94500	-101
1.94867	-101
1.95233	-101
1.95600	-101
1.95967	-100
1.96333	-100
1.96700	-100
1.97067	-99
1.97433	-99
1.97800	-99
1.98167	-98
1.98533	-98
1.98900	-98
1.99267	-98
1.99633	-98
2.00000	-98
2.00367	-98
2.00733	-98
2.01100	-98
2.01467	-98
2.01833	-98
2.02200	-98
2.02567	-98
2.02933	-97
2.03300	-97
2.03667	-97
2.04033	-96
2.04400	-96
2.04767	-97
2.05133	-96
2.05500	-96
2.05867	-96
2.06233	-95
2.06600	-94
2.06967	-93
2.07333	-93
2.07700	-92
2.08067	-92
2.08433	-91
2.08800	-91
2.09167	-90
2.09533	-90
2.09900	-89
2.10267	-88
2.10633	-88
2.11000	-88
2.11367	-87
2.11733	-88
2.12100	-88
2.12467	-87
2.12833	-87
2.13200	-87
2.13567	-87
2.13933	-87
2.14300	-87
2.14667	-87
2.15033	-87
2.15400	-86
2.15767	-86
2.16133	-86
2.16500	-86
2.16867	-85
2.17233	-85
2.17600	-84
2.17967	-84
2.18333	-84
2.18700	-83
2.19067	-82
2.19433	-82
2.19800	-82
2.20167	-81
2.20533	-81
2.20900	-82
2.21267	-82
2.21633	-82
2.22000	-82
2.22367	-82
2.22733	-81
2.23100	-80
2.23467	-79
2.23833	-78
2.24200	-78
2.24567	-78
2.24933	-77
2.25300	-77
2.25667	-77
2.26033	-77
2.26400	-77
2.26767	-77
2.27133	-77
2.27500	-77
2.27867	-77
2.28233	-77
2.28600	-76
2.28967	-76
2.29333	-76
2.29700	-76
2.30067	-76
2.30433	-76
2.30800	-75
2.31167	-75
2.31533	-74
2.31900	-73
2.32267	-73
2.32633	-73
2.33000	-73
2.33367	-73
2.33733	-72
2.34100	-72
2.34467	-71
2.34833	-69
2.35200	-68
2.35567	-67
2.35933	-65
2.36300	-64
2.36667	-63
2.37033	-61
2.37400	-59
2.37767	-56
2.38133	-53
2.38500	-50
2.38867	-46
2.39233	-42
2.39600	-39
2.39967	-35
2.40333	-31
2.40700	-27
2.41067	-23
2.41433	-20
2.41800	-16
2.42167	-13
2.42533	-10
2.42900	-7
2.43267	-5
2.43633	-3
2.44000	-1
2.44367	1
2.44733	2
2.45100	4
2.45467	5
2.45833	6
2.46200	7
2.46567	8
2.46933	9
2.47300	9
2.47667	10
2.48033	11
2.48400	11
2.48767	12
2.49133	13
2.49500	14
2.49867	14
2.50233	14
2.50600	14
2.50967	14
2.51333	15
2.51700	15
2.52067	15
2.52433	14
2.52800	14
2.53167	13
2.53533	12
2.53900	12
2.54267	12
2.54633	12
2.55000	12
2.55367	12
2.55733	13
2.56100	14
2.56467	15
2.56833	15
2.57200	16
2.57567	16
2.57933	16
2.58300	17
2.58667	17
2.59033	18
2.59400	18
2.59767	19
2.60133	19
2.60500	20
2.60867	20
2.61233	19
2.61600	19
2.61967	19
2.62333	19
2.62700	19
2.63067	20
2.63433	20
2.63800	21
2.64167	21
2.64533	22
2.64900	22
2.65267	22
2.65633	22
2.66000	22
2.66367	23
2.66733	23
2.67100	24
2.67467	24
2.67833	25
2.68200	25
2.68567	25
2.68933	25
2.69300	25
2.69667	25
2.70033	25
2.70400	25
2.70767	25
2.71133	25
2.71500	25
2.71867	25
2.72233	25
2.72600	26
2.72967	26
2.73333	26
2.73700	27
2.74067	27
2.74433	28
2.74800	28
2.75167	29
2.75533	29
2.75900	30
2.76267	30
2.76633	31
2.77000	31
2.77367	31
2.77733	31
2.78100	30
2.78467	30
2.78833	30
2.79200	29
2.79567	29
2.79933	29
2.80300	29
2.80667	29
2.81033	29
2.81400	29
2.81767	29
2.82133	29
2.82500	29
2.82867	29
2.83233	29
2.83600	29
2.83967	29
2.84333	29
2.84700	29
2.85067	29
2.85433	30
2.85800	30
2.86167	29
2.86533	27
2.86900	24
2.87267	18
2.87633	9
2.88000	-4
2.88367	-21
2.88733	-43
2.89100	-70
2.89467	-103
2.89833	-140
2.90200	-182
2.90567	-229
2.90933	-280
2.91300	-335
2.91667	-392
2.92033	-451
2.92400	-512
2.92767	-573
2.93133	-635
2.93500	-696
2.93867	-754
2.94233	-810
2.94600	-863
2.94967	-914
2.95333	-968
2.95700	-1023
2.96067	-1071
2.96433	-1101
2.96800	-1107
2.97167	-1089
2.97533	-1047
2.97900	-987
2.98267	-916
2.98633	-838
2.99000	-757
2.99367	-677
2.99733	-600
3.00100	-528
3.00467	-461
3.00833	-401
3.01200	-346
3.01567	-298
3.01933	-255
3.02300	-217
3.02667	-185
3.03033	-156
3.03400	-132
3.03767	-111
3.04133	-92
3.04500	-77
3.04867	-63
3.05233	-52
3.05600	-42
3.05967	-33
3.06333	-26
3.06700	-19
3.07067	-14
3.07433	-10
3.07800	-6
3.08167	-3
3.08533	0
3.08900	3
3.09267	5
3.09633	7
3.10000	8
3.10367	10
3.10733	11
3.11100	12
3.11467	13
3.11833	14
3.12200	14
3.12567	15
3.12933	15
3.13300	16
3.13667	16
3.14033	17
3.14400	17
3.14767	18
3.15133	18
3.15500	19
3.15867	19
3.16233	20
3.16600	20
3.16967	20
3.17333	21
3.17700	21
3.18067	21
3.18433	21
3.18800	21
3.19167	22
3.19533	22
3.19900	22
3.20267	22
3.20633	22
3.21000	23
3.21367	23
3.21733	23
3.22100	23
3.22467	23
3.22833	23
3.23200	23
3.23567	23
3.23933	23
3.24300	23
3.24667	23
3.25033	23
3.25400	23
3.25767	23
3.26133	23
3.26500	23
3.26867	24
3.27233	24
3.27600	24
3.27967	25
3.28333	25
3.28700	25
3.29067	25
3.29433	26
3.29800	26
3.30167	26
3.30533	26
3.30900	26
3.31267	26
3.31633	26
3.32000	26
3.32367	26
3.32733	26
3.33100	26
3.33467	27
3.33833	27
3.34200	27
3.34567	27
3.34933	28
3.35300	28
3.35667	28
3.36033	29
3.36400	29
3.36767	29
3.37133	29
3.37500	29
3.37867	29
3.38233	29
3.38600	29
3.38967	29
3.39333	28
3.39700	28
3.40067	29
3.40433	29
3.40800	29
3.41167	29
3.41533	29
3.41900	29
3.42267	29
3.42633	28
3.43000	28
3.43367	28
3.43733	28
3.44100	28
3.44467	28
3.44833	28
3.45200	28
3.45567	29
3.45933	29
3.46300	29
3.46667	29
3.47033	30
3.47400	30
3.47767	29
3.48133	29
3.48500	29
3.48867	29
3.49233	29
3.49600	29
3.49967	29
3.50333	30
3.50700	30
3.51067	30
3.51433	30
3.51800	30
3.52167	31
3.52533	31
3.52900	31
3.53267	31
3.53633	31
3.54000	30
3.54367	30
3.54733	30
3.55100	30
3.55467	30
3.55833	30
3.56200	30
3.56567	30
3.56933	30
3.57300	31
3.57667	31
3.58033	31
3.58400	31
3.58767	31
3.59133	31
3.59500	31
3.59867	31
3.60233	31
3.60600	31
3.60967	31
3.61333	31
3.61700	31
3.62067	31
3.62433	31
3.62800	31
3.63167	31
3.63533	31
3.63900	31
3.64267	30
3.64633	30
3.65000	30
3.65367	30
3.65733	29
3.66100	29
3.66467	29
3.66833	29
3.67200	29
3.67567	29
3.67933	29
3.68300	29
3.68667	29
3.69033	29
3.69400	29
3.69767	29
3.70133	29
3.70500	29
3.70867	29
3.71233	29
3.71600	29
3.71967	29
3.72333	30
3.72700	30
3.73067	30
3.73433	30
3.73800	30
3.74167	30
3.74533	30
3.74900	31
3.75267	31
3.75633	31
3.76000	31
3.76367	31
3.76733	31
3.77100	31
3.77467	31
3.77833	31
3.78200	32
3.78567	32
3.78933	32
3.79300	32
3.79667	32
3.80033	32
3.80400	33
3.80767	33
3.81133	33
3.81500	33
3.81867	33
3.82233	33
3.82600	33
3.82967	32
3.83333	32
3.83700	32
3.84067	32
3.84433	32
3.84800	32
3.85167	32
3.85533	32
3.85900	32
3.86267	32
3.86633	32
3.87000	31
3.87367	31
3.87733	31
3.88100	31
3.88467	31
3.88833	31
3.89200	31
3.89567	31
3.89933	31
3.90300	31
3.90667	31
3.91033	31
3.91400	30
3.91767	30
3.92133	30
3.92500	31
3.92867	31
3.93233	30
3.93600	30
3.93967	30
3.94333	30
3.94700	30
3.95067	30
3.95433	30
3.95800	30
3.96167	30
3.96533	30
3.96900	30
3.97267	30
3.97633	30
3.98000	30
3.98367	29
3.98733	29
3.99100	29
3.99467	29
3.99833	29

[Chromatogram (Ch3)]
Interval(msec)	220
# of Points	1091
Start Time(min)	0.002
End Time(min)	3.998
R.Time (min)	Intensity
0.00167	0
0.00533	2
0.00900	3
0.01267	3
0.01633	2
0.02000	1
0.02367	0
0.02733	-1
0.03100	-0
0.03467	0
0.03833	2
0.04200	3
0.04567	1
0.04933	-0
0.05300	-1
0.05667	-1
0.06033	0
0.06400	2
0.06767	4
0.07133	5
0.07500	6
0.07867	7
0.08233	6
0.08600	4
0.08967	2
0.09333	2
0.09700	1
0.10067	-1
0.10433	-2
0.10800	-2
0.11167	-2
0.11533	-2
0.11900	-1
0.12267	1
0.12633	4
0.13000	4
0.13367	6
0.13733	7
0.14100	7
0.14467	6
0.14833	6
0.15200	4
0.15567	3
0.15933	2
0.16300	2
0.16667	2
0.17033	2
0.17400	2
0.17767	2
0.18133	2
0.18500	2
0.18867	1
0.19233	-0
0.19600	-1
0.19967	1
0.20333	2
0.20700	3
0.21067	4
0.21433	4
0.21800	5
0.22167	6
0.22533	9
0.22900	10
0.23267	10
0.23633	11
0.24000	11
0.24367	9
0.24733	6
0.25100	6
0.25467	7
0.25833	4
0.26200	1
0.26567	2
0.26933	5
0.27300	9
0.27667	13
0.28033	13
0.28400	14
0.28767	13
0.29133	12
0.29500	11
0.29867	10
0.30233	9
0.30600	6
0.30967	4
0.31333	6
0.31700	7
0.32067	10
0.32433	11
0.32800	11
0.33167	11
0.33533	12
0.33900	11
0.34267	8
0.34633	7
0.35000	7
0.35367	9
0.35733	9
0.36100	6
0.36467	6
0.36833	7
0.37200	5
0.37567	3
0.37933	3
0.38300	4
0.38667	4
0.39033	4
0.39400	2
0.39767	2
0.40133	4
0.40500	7
0.40867	8
0.41233	10
0.41600	13
0.41967	11
0.42333	10
0.42700	10
0.43067	8
0.43433	6
0.43800	5
0.44167	5
0.44533	4
0.44900	5
0.45267	5
0.45633	7
0.46000	5
0.46367	4
0.46733	2
0.47100	2
0.47467	4
0.47833	7
0.48200	8
0.48567	8
0.48933	7
0.49300	8
0.49667	10
0.50033	10
0.50400	10
0.50767	10
0.51133	9
0.51500	5
0.51867	2
0.52233	1
0.52600	3
0.52967	5
0.53333	5
0.53700	5
0.54067	5
0.54433	7
0.54800	10
0.55167	13
0.55533	12
0.55900	10
0.56267	7
0.56633	5
0.57000	5
0.57367	8
0.57733	9
0.58100	10
0.58467	10
0.58833	10
0.59200	12
0.59567	10
0.59933	8
0.60300	8
0.60667	5
0.61033	6
0.61400	7
0.61767	9
0.62133	10
0.62500	11
0.62867	9
0.63233	7
0.63600	5
0.63967	5
0.64333	6
0.64700	8
0.65067	12
0.65433	12
0.65800	11
0.66167	13
0.66533	11
0.66900	9
0.67267	7
0.67633	9
0.68000	11
0.68367	11
0.68733	10
0.69100	9
0.69467	10
0.69833	11
0.70200	12
0.70567	12
0.70933	12
0.71300	12
0.71667	11
0.72033	10
0.72400	7
0.72767	5
0.73133	5
0.73500	6
0.73867	7
0.74233	9
0.74600	11
0.74967	10
0.75333	10
0.75700	10
0.76067	11
0.76433	12
0.76800	12
0.77167	13
0.77533	14
0.77900	14
0.78267	15
0.78633	15
0.79000	13
0.79367	13
0.79733	15
0.80100	17
0.80467	17
0.80833	16
0.81200	15
0.81567	13
0.81933	12
0.82300	11
0.82667	12
0.83033	13
0.83400	13
0.83767	15
0.84133	16
0.84500	16
0.84867	16
0.85233	16
0.85600	16
0.85967	17
0.86333	16
0.86700	13
0.87067	12
0.87433	12
0.87800	12
0.88167	12
0.88533	13
0.88900	14
0.89267	14
0.89633	15
0.90000	17
0.90367	19
0.90733	20
0.91100	18
0.91467	16
0.91833	15
0.92200	15
0.92567	16
0.92933	16
0.93300	14
0.93667	13
0.94033	15
0.94400	17
0.94767	17
0.95133	15
0.95500	15
0.95867	16
0.96233	16
0.96600	17
0.96967	16
0.97333	14
0.97700	15
0.98067	18
0.98433	20
0.98800	20
0.99167	19
0.99533	18
0.99900	16
1.00267	14
1.00633	12
1.01000	13
1.01367	13
1.01733	12
1.02100	11
1.02467	13
1.02833	16
1.03200	17
1.03567	17
1.03933	17
1.04300	17
1.04667	18
1.05033	18
1.05400	18
1.05767	19
1.06133	20
1.06500	20
1.06867	20
1.07233	19
1.07600	19
1.07967	19
1.08333	19
1.08700	18
1.09067	18
1.09433	18
1.09800	18
1.10167	18
1.10533	17
1.10900	16
1.11267	16
1.11633	17
1.12000	19
1.12367	20
1.12733	21
1.13100	20
1.13467	19
1.13833	18
1.14200	16
1.14567	16
1.14933	18
1.15300	19
1.15667	20
1.16033	20
1.16400	20
1.16767	20
1.17133	20
1.17500	18
1.17867	13
1.18233	13
1.18600	14
1.18967	14
1.19333	13
1.19700	15
1.20067	19
1.20433	21
1.20800	21
1.21167	23
1.21533	23
1.21900	22
1.22267	22
1.22633	22
1.23000	21
1.23367	21
1.23733	21
1.24100	22
1.24467	23
1.24833	26
1.25200	27
1.25567	27
1.25933	28
1.26300	26
1.26667	25
1.27033	25
1.27400	26
1.27767	26
1.28133	24
1.28500	21
1.28867	19
1.29233	18
1.29600	18
1.29967	21
1.30333	22
1.30700	21
1.31067	20
1.31433	20
1.31800	21
1.32167	21
1.32533	21
1.32900	22
1.33267	25
1.33633	26
1.34000	25
1.34367	22
1.34733	20
1.35100	19
1.35467	18
1.35833	18
1.36200	18
1.36567	18
1.36933	19
1.37300	20
1.37667	22
1.38033	25
1.38400	26
1.38767	27
1.39133	28
1.39500	26
1.39867	23
1.40233	20
1.40600	18
1.40967	19
1.41333	19
1.41700	20
1.42067	21
1.42433	21
1.42800	19
1.43167	20
1.43533	22
1.43900	21
1.44267	20
1.44633	17
1.45000	17
1.45367	19
1.45733	20
1.46100	22
1.46467	25
1.46833	27
1.47200	26
1.47567	24
1.47933	24
1.48300	24
1.48667	25
1.49033	24
1.49400	24
1.49767	24
1.50133	23
1.50500	22
1.50867	21
1.51233	23
1.51600	23
1.51967	24
1.52333	23
1.52700	22
1.53067	22
1.53433	22
1.53800	23
1.54167	25
1.54533	26
1.54900	25
1.55267	25
1.55633	24
1.56000	23
1.56367	23
1.56733	25
1.57100	26
1.57467	26
1.57833	26
1.58200	24
1.58567	22
1.58933	23
1.59300	24
1.59667	24
1.60033	23
1.60400	22
1.60767	21
1.61133	21
1.61500	22
1.61867	23
1.62233	25
1.62600	25
1.62967	24
1.63333	23
1.63700	23
1.64067	24
1.64433	24
1.64800	25
1.65167	26
1.65533	27
1.65900	27
1.66267	28
1.66633	30
1.67000	31
1.67367	31
1.67733	30
1.68100	28
1.68467	28
1.68833	30
1.69200	31
1.69567	32
1.69933	32
1.70300	35
1.70667	35
1.71033	36
1.71400	37
1.71767	37
1.72133	37
1.72500	36
1.72867	34
1.73233	35
1.73600	37
1.73967	38
1.74333	39
1.74700	39
1.75067	40
1.75433	40
1.75800	40
1.76167	39
1.76533	38
1.76900	39
1.77267	40
1.77633	41
1.78000	41
1.78367	42
1.78733	43
1.79100	44
1.79467	46
1.79833	48
1.80200	47
1.80567	47
1.80933	48
1.81300	49
1.81667	48
1.82033	50
1.82400	50
1.82767	49
1.83133	49
1.83500	48
1.83867	47
1.84233	47
1.84600	47
1.84967	47
1.85333	48
1.85700	50
1.86067	53
1.86433	53
1.86800	53
1.87167	55
1.87533	56
1.87900	57
1.88267	58
1.88633	61
1.89000	61
1.89367	60
1.89733	60
1.90100	62
1.90467	62
1.90833	63
1.91200	64
1.91567	63
1.91933	64
1.92300	64
1.92667	65
1.93033	66
1.93400	66
1.93767	65
1.94133	67
1.94500	70
1.94867	72
1.95233	74
1.95600	75
1.95967	76
1.96333	77
1.96700	76
1.97067	77
1.97433	77
1.97800	79
1.98167	80
1.98533	81
1.98900	81
1.99267	80
1.99633	80
2.00000	84
2.00367	87
2.00733	88
2.01100	90
2.01467	93
2.01833	93
2.02200	93
2.02567	92
2.02933	94
2.03300	94
2.03667	95
2.04033	97
2.04400	99
2.04767	101
2.05133	101
2.05500	100
2.05867	99
2.06233	99
2.06600	101
2.06967	104
2.07333	106
2.07700	108
2.08067	108
2.08433	109
2.08800	109
2.09167	108
2.09533	107
2.09900	107
2.10267	109
2.10633	111
2.11000	111
2.11367	113
2.11733	116
2.12100	117
2.12467	117
2.12833	120
2.13200	122
2.13567	121
2.13933	121
2.14300	122
2.14667	121
2.15033	121
2.15400	121
2.15767	123
2.16133	125
2.16500	124
2.16867	124
2.17233	124
2.17600	126
2.17967	130
2.18333	133
2.18700	136
2.19067	136
2.19433	134
2.19800	133
2.20167	135
2.20533	136
2.20900	135
2.21267	134
2.21633	134
2.22000	134
2.22367	133
2.22733	135
2.23100	138
2.23467	139
2.23833	139
2.24200	138
2.24567	138
2.24933	139
2.25300	140
2.25667	141
2.26033	141
2.26400	141
2.26767	142
2.27133	142
2.27500	142
2.27867	141
2.28233	141
2.28600	143
2.28967	143
2.29333	144
2.29700	147
2.30067	148
2.30433	150
2.30800	150
2.31167	150
2.31533	151
2.31900	151
2.32267	151
2.32633	151
2.33000	149
2.33367	147
2.33733	146
2.34100	148
2.34467	150
2.34833	152
2.35200	150
2.35567	147
2.35933	146
2.36300	147
2.36667	148
2.37033	149
2.37400	148
2.37767	148
2.38133	148
2.38500	144
2.38867	140
2.39233	140
2.39600	141
2.39967	144
2.40333	148
2.40700	151
2.41067	151
2.41433	152
2.41800	155
2.42167	157
2.42533	158
2.42900	158
2.43267	157
2.43633	155
2.44000	160
2.44367	204
2.44733	294
2.45100	382
2.45467	450
2.45833	483
2.46200	481
2.46567	460
2.46933	437
2.47300	418
2.47667	403
2.48033	385
2.48400	363
2.48767	336
2.49133	307
2.49500	283
2.49867	262
2.50233	248
2.50600	239
2.50967	235
2.51333	238
2.51700	240
2.52067	243
2.52433	247
2.52800	248
2.53167	245
2.53533	237
2.53900	226
2.54267	212
2.54633	195
2.55000	180
2.55367	166
2.55733	153
2.56100	146
2.56467	141
2.56833	137
2.57200	135
2.57567	134
2.57933	134
2.58300	137
2.58667	141
2.59033	142
2.59400	144
2.59767	147
2.60133	150
2.60500	156
2.60867	161
2.61233	165
2.61600	168
2.61967	171
2.62333	172
2.62700	171
2.63067	167
2.63433	160
2.63800	151
2.64167	140
2.64533	130
2.64900	120
2.65267	111
2.65633	106
2.66000	99
2.66367	91
2.66733	82
2.67100	72
2.67467	65
2.67833	61
2.68200	61
2.68567	63
2.68933	63
2.69300	61
2.69667	59
2.70033	60
2.70400	58
2.70767	56
2.71133	55
2.71500	55
2.71867	56
2.72233	58
2.72600	61
2.72967	63
2.73333	64
2.73700	64
2.74067	65
2.74433	66
2.74800	67
2.75167	69
2.75533	73
2.75900	76
2.76267	77
2.76633	78
2.77000	79
2.77367	80
2.77733	81
2.78100	83
2.78467	86
2.78833	88
2.79200	90
2.79567	94
2.79933	96
2.80300	95
2.80667	97
2.81033	98
2.81400	100
2.81767	105
2.82133	109
2.82500	113
2.82867	117
2.83233	124
2.83600	138
2.83967	168
2.84333	226
2.84700	331
2.85067	505
2.85433	770
2.85800	1139
2.86167	1611
2.86533	2163
2.86900	2759
2.87267	3353
2.87633	3894
2.88000	4337
2.88367	4652
2.88733	4823
2.89100	4852
2.89467	4754
2.89833	4553
2.90200	4280
2.90567	3961
2.90933	3616
2.91300	3267
2.91667	2929
2.92033	2610
2.92400	2315
2.92767	2047
2.93133	1806
2.93500	1590
2.93867	1398
2.94233	1228
2.94600	1078
2.94967	945
2.95333	828
2.95700	726
2.96067	639
2.96433	566
2.96800	503
2.97167	447
2.97533	398
2.97900	358
2.98267	322
2.98633	291
2.99000	266
2.99367	242
2.99733	223
3.00100	203
3.00467	187
3.00833	175
3.01200	165
3.01567	157
3.01933	150
3.02300	142
3.02667	135
3.03033	129
3.03400	123
3.03767	120
3.04133	116
3.04500	111
3.04867	109
3.05233	109
3.05600	107
3.05967	105
3.06333	105
3.06700	102
3.07067	101
3.07433	99
3.07800	98
3.08167	97
3.08533	97
3.08900	97
3.09267	96
3.09633	95
3.10000	94
3.10367	94
3.10733	93
3.11100	93
3.11467	93
3.11833	94
3.12200	95
3.12567	96
3.12933	95
3.13300	92
3.13667	89
3.14033	91
3.14400	93
3.14767	94
3.15133	95
3.15500	94
3.15867	94
3.16233	95
3.16600	97
3.16967	97
3.17333	96
3.17700	90
3.18067	59
3.18433	22
3.18800	-2
3.19167	-13
3.19533	-14
3.19900	-5
3.20267	12
3.20633	37
3.21000	64
3.21367	87
3.21733	106
3.22100	122
3.22467	137
3.22833	149
3.23200	162
3.23567	178
3.23933	196
3.24300	213
3.24667	230
3.25033	250
3.25400	270
3.25767	291
3.26133	310
3.26500	328
3.26867	341
3.27233	350
3.27600	359
3.27967	370
3.28333	380
3.28700	388
3.29067	397
3.29433	403
3.29800	407
3.30167	411
3.30533	418
3.30900	424
3.31267	428
3.31633	433
3.32000	437
3.32367	436
3.32733	438
3.33100	440
3.33467	443
3.33833	444
3.34200	445
3.34567	446
3.34933	447
3.35300	448
3.35667	450
3.36033	452
3.36400	451
3.36767	449
3.37133	447
3.37500	447
3.37867	447
3.38233	447
3.38600	447
3.38967	445
3.39333	444
3.39700	443
3.40067	442
3.40433	444
3.40800	447
3.41167	446
3.41533	445
3.41900	446
3.42267	446
3.42633	445
3.43000	445
3.43367	445
3.43733	445
3.44100	445
3.44467	442
3.44833	440
3.45200	439
3.45567	438
3.45933	437
3.46300	436
3.46667	435
3.47033	435
3.47400	434
3.47767	432
3.48133	433
3.48500	433
3.48867	433
3.49233	432
3.49600	431
3.49967	429
3.50333	427
3.50700	426
3.51067	426
3.51433	427
3.51800	427
3.52167	427
3.52533	426
3.52900	426
3.53267	425
3.53633	425
3.54000	426
3.54367	423
3.54733	420
3.55100	419
3.55467	418
3.55833	420
3.56200	419
3.56567	418
3.56933	419
3.57300	418
3.57667	416
3.58033	414
3.58400	415
3.58767	416
3.59133	418
3.59500	418
3.59867	416
3.60233	413
3.60600	412
3.60967	411
3.61333	410
3.61700	409
3.62067	406
3.62433	404
3.62800	402
3.63167	403
3.63533	405
3.63900	408
3.64267	411
3.64633	412
3.65000	412
3.65367	412
3.65733	410
3.66100	410
3.66467	410
3.66833	411
3.67200	411
3.67567	411
3.67933	410
3.68300	410
3.68667	408
3.69033	405
3.69400	406
3.69767	406
3.70133	407
3.70500	407
3.70867	406
3.71233	405
3.71600	404
3.71967	402
3.72333	401
3.72700	398
3.73067	398
3.73433	400
3.73800	401
3.74167	403
3.74533	404
3.74900	403
3.75267	398
3.75633	395
3.76000	394
3.76367	393
3.76733	392
3.77100	393
3.77467	395
3.77833	395
3.78200	396
3.78567	395
3.78933	394
3.79300	393
3.79667	391
3.80033	389
3.80400	389
3.80767	389
3.81133	385
3.81500	382
3.81867	381
3.82233	381
3.82600	381
3.82967	381
3.83333	378
3.83700	376
3.84067	375
3.84433	375
3.84800	375
3.85167	375
3.85533	374
3.85900	374
3.86267	372
3.86633	369
3.87000	368
3.87367	368
3.87733	368
3.88100	366
3.88467	365
3.88833	364
3.89200	361
3.89567	359
3.89933	360
3.90300	362
3.90667	362
3.91033	362
3.91400	362
3.91767	360
3.92133	358
3.92500	357
3.92867	356
3.93233	355
3.93600	356
3.93967	357
3.94333	357
3.94700	355
3.95067	354
3.95433	354
3.95800	353
3.96167	351
3.96533	350
3.96900	350
3.97267	350
3.97633	350
3.98000	351
3.98367	351
3.98733	350
3.99100	348
3.99467	346
3.99833	343

[Status Trace (Column Oven Temperature)]
Interval(msec)	1000
# of Points	239
Start Time(min)	0.017
End Time(min)	3.983
Intensity Units	
Intensity Multiplier	1
R.Time (min)	Intensity
0.01653	35.08
0.03320	35.08
0.04987	35.05
0.06653	35.04
0.08320	35.03
0.09987	35.03
0.11653	35.03
0.13320	35.02
0.14987	35.02
0.16653	35.02
0.18320	35.01
0.19987	35.02
0.21653	35.03
0.23320	35.04
0.24987	35.05
0.26653	35.05
0.28320	35.04
0.29987	35.04
0.31653	35.04
0.33320	35.05
0.34987	35.04
0.36653	35.04
0.38320	35.04
0.39987	35.04
0.41653	35.04
0.43320	35.03
0.44987	35.03
0.46653	35.02
0.48320	35.01
0.49987	35.02
0.51653	35.01
0.53320	35.01
0.54987	35.00
0.56653	35.00
0.58320	34.99
0.59987	34.98
0.61653	34.97
0.63320	34.97
0.64987	34.97
0.66653	34.97
0.68320	34.99
0.69987	35.00
0.71653	35.00
0.73320	35.01
0.74987	35.03
0.76653	35.03
0.78320	35.05
0.79987	35.05
0.81653	35.05
0.83320	35.03
0.84987	35.02
0.86653	35.01
0.88320	35.00
0.89987	34.99
0.91653	34.98
0.93320	34.99
0.94987	34.99
0.96653	35.01
0.98320	35.03
0.99987	35.03
1.01653	35.02
1.03320	35.00
1.04987	35.00
1.06653	34.99
1.08320	34.99
1.09987	35.00
1.11653	35.00
1.13320	34.99
1.14987	34.99
1.16653	35.00
1.18320	35.00
1.19987	35.01
1.21653	35.01
1.23320	35.01
1.24987	35.01
1.26653	35.00
1.28320	35.00
1.29987	34.99
1.31653	34.98
1.33320	34.98
1.34987	34.98
1.36653	34.97
1.38320	34.98
1.39987	34.98
1.41653	34.98
1.43320	34.98
1.44987	34.98
1.46653	34.98
1.48320	34.98
1.49987	34.98
1.51653	34.99
1.53320	34.99
1.54987	35.00
1.56653	35.01
1.58320	35.01
1.59987	35.05
1.61653	35.14
1.63320	35.29
1.64987	35.50
1.66653	35.78
1.68320	36.14
1.69987	36.51
1.71653	36.85
1.73320	37.21
1.74987	37.55
1.76653	37.85
1.78320	38.14
1.79987	38.48
1.81653	38.81
1.83320	39.15
1.84987	39.49
1.86653	39.82
1.88320	40.15
1.89987	40.47
1.91653	40.79
1.93320	41.12
1.94987	41.45
1.96653	41.77
1.98320	42.09
1.99987	42.42
2.01653	42.75
2.03320	43.06
2.04987	43.40
2.06653	43.72
2.08320	44.07
2.09987	44.38
2.11653	44.70
2.13320	45.02
2.14987	45.36
2.16653	45.69
2.18320	46.01
2.19987	46.33
2.21653	46.67
2.23320	46.98
2.24987	47.31
2.26653	47.65
2.28320	47.97
2.29987	48.33
2.31653	48.64
2.33320	49.00
2.34987	49.28
2.36653	49.56
2.38320	49.70
2.39987	49.72
2.41653	49.72
2.43320	49.73
2.44987	49.73
2.46653	49.74
2.48320	49.75
2.49987	49.76
2.51653	49.76
2.53320	49.78
2.54987	49.80
2.56653	49.79
2.58320	49.80
2.59987	49.80
2.61653	49.82
2.63320	49.82
2.64987	49.84
2.66653	49.84
2.68320	49.85
2.69987	49.85
2.71653	49.86
2.73320	49.86
2.74987	49.86
2.76653	49.84
2.78320	49.86
2.79987	49.86
2.81653	49.86
2.83320	49.87
2.84987	49.87
2.86653	49.87
2.88320	49.88
2.89987	49.88
2.91653	49.88
2.93320	49.89
2.94987	49.90
2.96653	49.92
2.98320	49.94
2.99987	49.95
3.01653	49.95
3.03320	49.97
3.04987	49.98
3.06653	49.98
3.08320	50.00
3.09987	50.00
3.11653	50.00
3.13320	50.01
3.14987	50.02
3.16653	50.02
3.18320	50.03
3.19987	50.04
3.21653	50.04
3.23320	50.06
3.24987	50.08
3.26653	50.09
3.28320	50.09
3.29987	50.09
3.31653	50.10
3.33320	50.10
3.34987	50.09
3.36653	50.08
3.38320	50.08
3.39987	50.08
3.41653	50.08
3.43320	50.08
3.44987	50.09
3.46653	50.09
3.48320	50.09
3.49987	50.09
3.51653	50.08
3.53320	50.08
3.54987	50.08
3.56653	50.07
3.58320	50.08
3.59987	50.07
3.61653	50.08
3.63320	50.07
3.64987	50.08
3.66653	50.09
3.68320	50.09
3.69987	50.10
3.71653	50.10
3.73320	50.10
3.74987	50.08
3.76653	50.08
3.78320	50.07
3.79987	50.06
3.81653	50.05
3.83320	50.04
3.84987	50.04
3.86653	50.04
3.88320	50.03
3.89987	50.03
3.91653	50.02
3.93320	50.02
3.94987	50.02
3.96653	50.02
3.98320	50.03

[Status Trace (Injection Unit Temperature)]
Interval(msec)	1000
# of Points	239
Start Time(min)	0.017
End Time(min)	3.983
Intensity Units	
Intensity Multiplier	1
R.Time (min)	Intensity
0.01653	99.98
0.03320	99.99
0.04987	99.99
0.06653	99.98
0.08320	99.99
0.09987	99.99
0.11653	99.97
0.13320	99.99
0.14987	99.98
0.16653	99.99
0.18320	99.98
0.19987	99.98
0.21653	99.99
0.23320	99.99
0.24987	99.99
0.26653	99.99
0.28320	99.98
0.29987	99.99
0.31653	99.99
0.33320	99.99
0.34987	99.99
0.36653	99.99
0.38320	99.99
0.39987	99.99
0.41653	99.99
0.43320	99.99
0.44987	99.99
0.46653	99.99
0.48320	99.99
0.49987	99.99
0.51653	99.99
0.53320	99.99
0.54987	99.98
0.56653	99.99
0.58320	99.99
0.59987	99.99
0.61653	99.98
0.63320	99.99
0.64987	99.99
0.66653	99.98
0.68320	99.99
0.69987	99.99
0.71653	99.98
0.73320	99.98
0.74987	99.98
0.76653	99.98
0.78320	99.98
0.79987	99.98
0.81653	99.98
0.83320	99.98
0.84987	99.97
0.86653	99.98
0.88320	99.98
0.89987	99.98
0.91653	99.98
0.93320	99.98
0.94987	99.98
0.96653	99.98
0.98320	99.98
0.99987	99.98
1.01653	99.98
1.03320	99.98
1.04987	99.98
1.06653	99.98
1.08320	99.98
1.09987	99.98
1.11653	99.98
1.13320	99.99
1.14987	99.98
1.16653	99.98
1.18320	99.98
1.19987	99.98
1.21653	99.98
1.23320	99.98
1.24987	99.98
1.26653	99.98
1.28320	99.98
1.29987	99.98
1.31653	99.98
1.33320	99.98
1.34987	99.98
1.36653	99.98
1.38320	99.99
1.39987	99.98
1.41653	99.99
1.43320	99.99
1.44987	99.99
1.46653	99.99
1.48320	99.99
1.49987	99.99
1.51653	99.99
1.53320	99.99
1.54987	99.99
1.56653	99.99
1.58320	99.98
1.59987	99.99
1.61653	99.99
1.63320	99.99
1.64987	99.99
1.66653	99.99
1.68320	99.99
1.69987	99.99
1.71653	99.99
1.73320	99.99
1.74987	99.99
1.76653	99.99
1.78320	99.99
1.79987	99.99
1.81653	99.99
1.83320	99.99
1.84987	99.98
1.86653	99.98
1.88320	99.99
1.89987	99.98
1.91653	99.98
1.93320	99.98
1.94987	99.98
1.96653	99.98
1.98320	99.98
1.99987	99.98
2.01653	99.98
2.03320	99.98
2.04987	99.98
2.06653	99.97
2.08320	99.98
2.09987	99.97
2.11653	99.97
2.13320	99.97
2.14987	99.97
2.16653	99.97
2.18320	99.97
2.19987	99.97
2.21653	99.97
2.23320	99.97
2.24987	99.97
2.26653	99.97
2.28320	99.97
2.29987	99.97
2.31653	99.97
2.33320	99.96
2.34987	99.97
2.36653	99.97
2.38320	99.97
2.39987	99.96
2.41653	99.96
2.43320	99.97
2.44987	99.97
2.46653	99.96
2.48320	99.96
2.49987	99.96
2.51653	99.97
2.53320	99.97
2.54987	99.97
2.56653	99.97
2.58320	99.97
2.59987	99.98
2.61653	99.97
2.63320	99.98
2.64987	99.97
2.66653	99.97
2.68320	99.98
2.69987	99.98
2.71653	99.98
2.73320	99.98
2.74987	99.98
2.76653	99.99
2.78320	99.99
2.79987	100.00
2.81653	99.99
2.83320	100.00
2.84987	100.00
2.86653	100.00
2.88320	100.00
2.89987	100.00
2.91653	100.00
2.93320	100.01
2.94987	100.01
2.96653	100.01
2.98320	100.01
2.99987	100.01
3.01653	100.02
3.03320	100.02
3.04987	100.02
3.06653	100.02
3.08320	100.02
3.09987	100.02
3.11653	100.03
3.13320	100.02
3.14987	100.02
3.16653	100.02
3.18320	100.03
3.19987	100.03
3.21653	100.03
3.23320	100.03
3.24987	100.03
3.26653	100.03
3.28320	100.03
3.29987	100.03
3.31653	100.03
3.33320	100.03
3.34987	100.03
3.36653	100.04
3.38320	100.03
3.39987	100.04
3.41653	100.04
3.43320	100.04
3.44987	100.04
3.46653	100.04
3.48320	100.04
3.49987	100.04
3.51653	100.04
3.53320	100.05
3.54987	100.05
3.56653	100.05
3.58320	100.05
3.59987	100.05
3.61653	100.05
3.63320	100.05
3.64987	100.05
3.66653	100.05
3.68320	100.05
3.69987	100.05
3.71653	100.05
3.73320	100.05
3.74987	100.05
3.76653	100.06
3.78320	100.05
3.79987	100.05
3.81653	100.05
3.83320	100.05
3.84987	100.05
3.86653	100.06
3.88320	100.05
3.89987	100.05
3.91653	100.05
3.93320	100.05
3.94987	100.05
3.96653	100.05
3.98320	100.05

[Status Trace (Carrier Gas Pressure)]
Interval(msec)	1000
# of Points	239
Start Time(min)	0.017
End Time(min)	3.983
Intensity Units	
Intensity Multiplier	1
R.Time (min)	Intensity
0.01653	56.74
0.03320	55.88
0.04987	58.32
0.06653	59.88
0.08320	58.43
0.09987	57.97
0.11653	58.00
0.13320	58.01
0.14987	58.01
0.16653	58.00
0.18320	58.00
0.19987	58.00
0.21653	58.00
0.23320	58.00
0.24987	58.00
0.26653	58.00
0.28320	58.00
0.29987	58.00
0.31653	58.00
0.33320	58.00
0.34987	58.00
0.36653	58.00
0.38320	58.00
0.39987	58.00
0.41653	58.00
0.43320	58.00
0.44987	58.00
0.46653	58.00
0.48320	58.00
0.49987	58.00
0.51653	58.00
0.53320	58.00
0.54987	58.00
0.56653	58.00
0.58320	58.00
0.59987	58.00
0.61653	58.00
0.63320	58.00
0.64987	58.00
0.66653	58.00
0.68320	58.00
0.69987	58.00
0.71653	58.00
0.73320	58.00
0.74987	58.00
0.76653	58.00
0.78320	58.00
0.79987	58.00
0.81653	58.00
0.83320	58.00
0.84987	58.00
0.86653	58.00
0.88320	58.00
0.89987	58.00
0.91653	58.00
0.93320	58.00
0.94987	58.00
0.96653	58.00
0.98320	58.00
0.99987	58.00
1.01653	58.00
1.03320	58.00
1.04987	58.00
1.06653	58.00
1.08320	58.00
1.09987	58.00
1.11653	58.00
1.13320	58.00
1.14987	58.00
1.16653	58.00
1.18320	58.00
1.19987	58.00
1.21653	58.00
1.23320	58.00
1.24987	58.00
1.26653	58.00
1.28320	58.00
1.29987	58.00
1.31653	58.00
1.33320	58.00
1.34987	58.00
1.36653	58.00
1.38320	58.00
1.39987	58.00
1.41653	58.00
1.43320	58.00
1.44987	58.00
1.46653	58.00
1.48320	58.00
1.49987	58.00
1.51653	58.00
1.53320	58.00
1.54987	58.00
1.56653	58.00
1.58320	58.00
1.59987	58.00
1.61653	58.00
1.63320	58.00
1.64987	58.00
1.66653	58.01
1.68320	58.01
1.69987	58.00
1.71653	58.00
1.73320	58.00
1.74987	58.00
1.76653	58.00
1.78320	58.00
1.79987	58.00
1.81653	58.00
1.83320	58.00
1.84987	58.00
1.86653	58.00
1.88320	58.00
1.89987	58.00
1.91653	58.00
1.93320	58.00
1.94987	58.00
1.96653	58.00
1.98320	58.00
1.99987	58.00
2.01653	58.00
2.03320	58.00
2.04987	58.00
2.06653	58.00
2.08320	58.00
2.09987	58.00
2.11653	58.00
2.13320	58.00
2.14987	58.00
2.16653	58.00
2.18320	58.00
2.19987	58.00
2.21653	58.00
2.23320	58.00
2.24987	58.00
2.26653	58.00
2.28320	58.00
2.29987	58.00
2.31653	58.00
2.33320	58.00
2.34987	58.00
2.36653	58.00
2.38320	57.99
2.39987	57.99
2.41653	58.00
2.43320	58.00
2.44987	58.00
2.46653	58.00
2.48320	58.00
2.49987	58.00
2.51653	57.99
2.53320	57.99
2.54987	58.00
2.56653	58.00
2.58320	58.00
2.59987	58.00
2.61653	58.00
2.63320	58.00
2.64987	58.00
2.66653	58.00
2.68320	58.00
2.69987	58.00
2.71653	58.00
2.73320	58.00
2.74987	58.00
2.76653	58.00
2.78320	58.00
2.79987	58.00
2.81653	58.00
2.83320	58.00
2.84987	58.00
2.86653	58.00
2.88320	58.00
2.89987	58.00
2.91653	58.00
2.93320	58.00
2.94987	58.00
2.96653	58.00
2.98320	58.00
2.99987	58.00
3.01653	58.00
3.03320	58.00
3.04987	58.00
3.06653	58.00
3.08320	58.00
3.09987	58.00
3.11653	58.00
3.13320	58.00
3.14987	58.00
3.16653	58.00
3.18320	58.00
3.19987	58.00
3.21653	58.00
3.23320	58.00
3.24987	58.00
3.26653	58.00
3.28320	58.00
3.29987	58.00
3.31653	58.00
3.33320	58.00
3.34987	58.00
3.36653	58.00
3.38320	58.00
3.39987	58.00
3.41653	58.00
3.43320	58.00
3.44987	58.00
3.46653	58.00
3.48320	58.00
3.49987	58.00
3.51653	58.00
3.53320	58.00
3.54987	58.00
3.56653	58.00
3.58320	58.00
3.59987	58.00
3.61653	58.00
3.63320	58.00
3.64987	58.00
3.66653	58.00
3.68320	58.00
3.69987	58.00
3.71653	58.00
3.73320	58.00
3.74987	58.00
3.76653	58.00
3.78320	58.00
3.79987	58.00
3.81653	58.00
3.83320	58.00
3.84987	58.00
3.86653	58.00
3.88320	58.00
3.89987	58.00
3.91653	58.00
3.93320	58.00
3.94987	58.00
3.96653	58.00
3.98320	58.00

[Status Trace (Carrier Gas Flow)]
Interval(msec)	1000
# of Points	239
Start Time(min)	0.017
End Time(min)	3.983
Intensity Units	
Intensity Multiplier	1
R.Time (min)	Intensity
0.01653	33.76
0.03320	34.53
0.04987	34.54
0.06653	34.50
0.08320	34.51
0.09987	34.52
0.11653	34.52
0.13320	34.52
0.14987	34.52
0.16653	34.52
0.18320	34.52
0.19987	34.51
0.21653	34.52
0.23320	34.52
0.24987	34.52
0.26653	34.51
0.28320	34.52
0.29987	34.52
0.31653	34.52
0.33320	34.52
0.34987	34.52
0.36653	34.52
0.38320	34.52
0.39987	34.52
0.41653	34.52
0.43320	34.52
0.44987	34.52
0.46653	34.52
0.48320	34.52
0.49987	34.52
0.51653	34.52
0.53320	34.52
0.54987	34.52
0.56653	34.52
0.58320	34.52
0.59987	34.52
0.61653	34.52
0.63320	34.52
0.64987	34.52
0.66653	34.52
0.68320	34.52
0.69987	34.52
0.71653	34.52
0.73320	34.51
0.74987	34.52
0.76653	34.52
0.78320	34.52
0.79987	34.52
0.81653	34.52
0.83320	34.52
0.84987	34.52
0.86653	34.52
0.88320	34.52
0.89987	34.52
0.91653	34.52
0.93320	34.52
0.94987	34.53
0.96653	34.51
0.98320	34.51
0.99987	34.52
1.01653	34.52
1.03320	34.51
1.04987	34.52
1.06653	34.52
1.08320	34.52
1.09987	34.51
1.11653	34.52
1.13320	34.52
1.14987	34.52
1.16653	34.52
1.18320	34.52
1.19987	34.52
1.21653	34.51
1.23320	34.52
1.24987	34.51
1.26653	34.51
1.28320	34.53
1.29987	34.52
1.31653	34.52
1.33320	34.52
1.34987	34.53
1.36653	34.52
1.38320	34.52
1.39987	34.52
1.41653	34.51
1.43320	34.52
1.44987	34.52
1.46653	34.52
1.48320	34.52
1.49987	34.52
1.51653	34.51
1.53320	34.53
1.54987	34.52
1.56653	34.52
1.58320	34.52
1.59987	34.53
1.61653	34.52
1.63320	34.51
1.64987	34.52
1.66653	34.52
1.68320	34.53
1.69987	34.52
1.71653	34.52
1.73320	34.51
1.74987	34.51
1.76653	34.52
1.78320	34.52
1.79987	34.52
1.81653	34.52
1.83320	34.53
1.84987	34.53
1.86653	34.51
1.88320	34.52
1.89987	34.52
1.91653	34.52
1.93320	34.51
1.94987	34.52
1.96653	34.52
1.98320	34.51
1.99987	34.52
2.01653	34.52
2.03320	34.52
2.04987	34.51
2.06653	34.51
2.08320	34.52
2.09987	34.52
2.11653	34.51
2.13320	34.51
2.14987	34.52
2.16653	34.52
2.18320	34.52
2.19987	34.52
2.21653	34.52
2.23320	34.51
2.24987	34.52
2.26653	34.52
2.28320	34.51
2.29987	34.52
2.31653	34.52
2.33320	34.51
2.34987	34.51
2.36653	34.52
2.38320	34.51
2.39987	34.51
2.41653	34.51
2.43320	34.52
2.44987	34.53
2.46653	34.52
2.48320	34.52
2.49987	34.52
2.51653	34.52
2.53320	34.52
2.54987	34.52
2.56653	34.52
2.58320	34.52
2.59987	34.52
2.61653	34.52
2.63320	34.52
2.64987	34.52
2.66653	34.52
2.68320	34.52
2.69987	34.52
2.71653	34.51
2.73320	34.52
2.74987	34.52
2.76653	34.52
2.78320	34.52
2.79987	34.52
2.81653	34.51
2.83320	34.52
2.84987	34.52
2.86653	34.51
2.88320	34.52
2.89987	34.52
2.91653	34.52
2.93320	34.52
2.94987	34.52
2.96653	34.52
2.98320	34.52
2.99987	34.52
3.01653	34.52
3.03320	34.52
3.04987	34.52
3.06653	34.52
3.08320	34.53
3.09987	34.52
3.11653	34.51
3.13320	34.52
3.14987	34.52
3.16653	34.52
3.18320	34.51
3.19987	34.52
3.21653	34.52
3.23320	34.52
3.24987	34.52
3.26653	34.52
3.28320	34.52
3.29987	34.52
3.31653	34.52
3.33320	34.52
3.34987	34.52
3.36653	34.52
3.38320	34.52
3.39987	34.52
3.41653	34.52
3.43320	34.52
3.44987	34.52
3.46653	34.52
3.48320	34.52
3.49987	34.52
3.51653	34.52
3.53320	34.52
3.54987	34.52
3.56653	34.52
3.58320	34.51
3.59987	34.51
3.61653	34.52
3.63320	34.52
3.64987	34.52
3.66653	34.52
3.68320	34.52
3.69987	34.52
3.71653	34.52
3.73320	34.52
3.74987	34.52
3.76653	34.52
3.78320	34.52
3.79987	34.52
3.81653	34.52
3.83320	34.52
3.84987	34.52
3.86653	34.52
3.88320	34.52
3.89987	34.52
3.91653	34.52
3.93320	34.52
3.94987	34.52
3.96653	34.52
3.98320	34.52

[Status Trace (Column Flow)]
Interval(msec)	1000
# of Points	239
Start Time(min)	0.017
End Time(min)	3.983
Intensity Units	
Intensity Multiplier	1
R.Time (min)	Intensity
0.01653	5.39
0.03320	5.29
0.04987	5.57
0.06653	5.76
0.08320	5.59
0.09987	5.53
0.11653	5.54
0.13320	5.54
0.14987	5.54
0.16653	5.54
0.18320	5.54
0.19987	5.54
0.21653	5.54
0.23320	5.54
0.24987	5.54
0.26653	5.54
0.28320	5.54
0.29987	5.54
0.31653	5.54
0.33320	5.54
0.34987	5.54
0.36653	5.54
0.38320	5.54
0.39987	5.54
0.41653	5.54
0.43320	5.54
0.44987	5.54
0.46653	5.54
0.48320	5.54
0.49987	5.54
0.51653	5.54
0.53320	5.54
0.54987	5.54
0.56653	5.54
0.58320	5.54
0.59987	5.54
0.61653	5.54
0.63320	5.54
0.64987	5.54
0.66653	5.54
0.68320	5.54
0.69987	5.54
0.71653	5.54
0.73320	5.54
0.74987	5.54
0.76653	5.54
0.78320	5.53
0.79987	5.53
0.81653	5.53
0.83320	5.53
0.84987	5.54
0.86653	5.54
0.88320	5.54
0.89987	5.54
0.91653	5.54
0.93320	5.54
0.94987	5.54
0.96653	5.54
0.98320	5.54
0.99987	5.54
1.01653	5.54
1.03320	5.54
1.04987	5.54
1.06653	5.54
1.08320	5.54
1.09987	5.54
1.11653	5.54
1.13320	5.54
1.14987	5.54
1.16653	5.54
1.18320	5.54
1.19987	5.54
1.21653	5.54
1.23320	5.54
1.24987	5.54
1.26653	5.54
1.28320	5.54
1.29987	5.54
1.31653	5.54
1.33320	5.54
1.34987	5.54
1.36653	5.54
1.38320	5.54
1.39987	5.54
1.41653	5.54
1.43320	5.54
1.44987	5.54
1.46653	5.54
1.48320	5.54
1.49987	5.54
1.51653	5.54
1.53320	5.54
1.54987	5.54
1.56653	5.54
1.58320	5.54
1.59987	5.53
1.61653	5.53
1.63320	5.53
1.64987	5.52
1.66653	5.51
1.68320	5.50
1.69987	5.49
1.71653	5.48
1.73320	5.47
1.74987	5.46
1.76653	5.45
1.78320	5.44
1.79987	5.43
1.81653	5.42
1.83320	5.41
1.84987	5.40
1.86653	5.39
1.88320	5.38
1.89987	5.37
1.91653	5.36
1.93320	5.35
1.94987	5.34
1.96653	5.33
1.98320	5.32
1.99987	5.31
2.01653	5.30
2.03320	5.29
2.04987	5.28
2.06653	5.27
2.08320	5.26
2.09987	5.25
2.11653	5.24
2.13320	5.23
2.14987	5.22
2.16653	5.21
2.18320	5.20
2.19987	5.20
2.21653	5.19
2.23320	5.18
2.24987	5.17
2.26653	5.16
2.28320	5.15
2.29987	5.14
2.31653	5.13
2.33320	5.12
2.34987	5.11
2.36653	5.10
2.38320	5.10
2.39987	5.10
2.41653	5.10
2.43320	5.10
2.44987	5.10
2.46653	5.10
2.48320	5.10
2.49987	5.10
2.51653	5.10
2.53320	5.10
2.54987	5.10
2.56653	5.10
2.58320	5.10
2.59987	5.10
2.61653	5.10
2.63320	5.10
2.64987	5.10
2.66653	5.10
2.68320	5.10
2.69987	5.10
2.71653	5.10
2.73320	5.10
2.74987	5.10
2.76653	5.10
2.78320	5.10
2.79987	5.10
2.81653	5.10
2.83320	5.10
2.84987	5.10
2.86653	5.10
2.88320	5.10
2.89987	5.10
2.91653	5.10
2.93320	5.10
2.94987	5.09
2.96653	5.09
2.98320	5.09
2.99987	5.09
3.01653	5.09
3.03320	5.09
3.04987	5.09
3.06653	5.09
3.08320	5.09
3.09987	5.09
3.11653	5.09
3.13320	5.09
3.14987	5.09
3.16653	5.09
3.18320	5.09
3.19987	5.09
3.21653	5.09
3.23320	5.09
3.24987	5.09
3.26653	5.09
3.28320	5.09
3.29987	5.09
3.31653	5.09
3.33320	5.09
3.34987	5.09
3.36653	5.09
3.38320	5.09
3.39987	5.09
3.41653	5.09
3.43320	5.09
3.44987	5.09
3.46653	5.09
3.48320	5.09
3.49987	5.09
3.51653	5.09
3.53320	5.09
3.54987	5.09
3.56653	5.09
3.58320	5.09
3.59987	5.09
3.61653	5.09
3.63320	5.09
3.64987	5.09
3.66653	5.09
3.68320	5.09
3.69987	5.09
3.71653	5.09
3.73320	5.09
3.74987	5.09
3.76653	5.09
3.78320	5.09
3.79987	5.09
3.81653	5.09
3.83320	5.09
3.84987	5.09
3.86653	5.09
3.88320	5.09
3.89987	5.09
3.91653	5.09
3.93320	5.09
3.94987	5.09
3.96653	5.09
3.98320	5.09

[Status Trace (Linear Velocity)]
Interval(msec)	1000
# of Points	239
Start Time(min)	0.017
End Time(min)	3.983
Intensity Units	
Intensity Multiplier	1
R.Time (min)	Intensity
0.01653	38.18
0.03320	37.62
0.04987	39.22
0.06653	40.25
0.08320	39.30
0.09987	39.00
0.11653	39.02
0.13320	39.02
0.14987	39.02
0.16653	39.02
0.18320	39.02
0.19987	39.02
0.21653	39.02
0.23320	39.02
0.24987	39.02
0.26653	39.02
0.28320	39.02
0.29987	39.02
0.31653	39.02
0.33320	39.02
0.34987	39.01
0.36653	39.02
0.38320	39.02
0.39987	39.02
0.41653	39.02
0.43320	39.02
0.44987	39.02
0.46653	39.02
0.48320	39.02
0.49987	39.02
0.51653	39.02
0.53320	39.02
0.54987	39.02
0.56653	39.02
0.58320	39.02
0.59987	39.02
0.61653	39.02
0.63320	39.02
0.64987	39.02
0.66653	39.02
0.68320	39.02
0.69987	39.02
0.71653	39.02
0.73320	39.02
0.74987	39.02
0.76653	39.02
0.78320	39.02
0.79987	39.01
0.81653	39.01
0.83320	39.02
0.84987	39.02
0.86653	39.02
0.88320	39.02
0.89987	39.02
0.91653	39.02
0.93320	39.02
0.94987	39.02
0.96653	39.02
0.98320	39.02
0.99987	39.02
1.01653	39.02
1.03320	39.02
1.04987	39.02
1.06653	39.02
1.08320	39.02
1.09987	39.02
1.11653	39.02
1.13320	39.02
1.14987	39.02
1.16653	39.02
1.18320	39.02
1.19987	39.02
1.21653	39.02
1.23320	39.02
1.24987	39.02
1.26653	39.02
1.28320	39.02
1.29987	39.02
1.31653	39.02
1.33320	39.02
1.34987	39.02
1.36653	39.02
1.38320	39.02
1.39987	39.02
1.41653	39.02
1.43320	39.02
1.44987	39.02
1.46653	39.02
1.48320	39.02
1.49987	39.02
1.51653	39.02
1.53320	39.02
1.54987	39.02
1.56653	39.02
1.58320	39.02
1.59987	39.02
1.61653	39.01
1.63320	38.99
1.64987	38.97
1.66653	38.95
1.68320	38.91
1.69987	38.88
1.71653	38.84
1.73320	38.81
1.74987	38.78
1.76653	38.75
1.78320	38.72
1.79987	38.69
1.81653	38.66
1.83320	38.63
1.84987	38.59
1.86653	38.56
1.88320	38.53
1.89987	38.50
1.91653	38.47
1.93320	38.44
1.94987	38.41
1.96653	38.38
1.98320	38.35
1.99987	38.32
2.01653	38.29
2.03320	38.26
2.04987	38.23
2.06653	38.20
2.08320	38.17
2.09987	38.14
2.11653	38.11
2.13320	38.08
2.14987	38.05
2.16653	38.02
2.18320	37.99
2.19987	37.96
2.21653	37.93
2.23320	37.90
2.24987	37.88
2.26653	37.85
2.28320	37.82
2.29987	37.78
2.31653	37.76
2.33320	37.73
2.34987	37.70
2.36653	37.67
2.38320	37.66
2.39987	37.66
2.41653	37.66
2.43320	37.66
2.44987	37.66
2.46653	37.66
2.48320	37.66
2.49987	37.66
2.51653	37.65
2.53320	37.65
2.54987	37.65
2.56653	37.65
2.58320	37.65
2.59987	37.65
2.61653	37.65
2.63320	37.65
2.64987	37.65
2.66653	37.65
2.68320	37.65
2.69987	37.65
2.71653	37.65
2.73320	37.65
2.74987	37.65
2.76653	37.65
2.78320	37.65
2.79987	37.65
2.81653	37.65
2.83320	37.65
2.84987	37.65
2.86653	37.65
2.88320	37.65
2.89987	37.65
2.91653	37.65
2.93320	37.65
2.94987	37.64
2.96653	37.64
2.98320	37.64
2.99987	37.64
3.01653	37.64
3.03320	37.64
3.04987	37.64
3.06653	37.64
3.08320	37.64
3.09987	37.64
3.11653	37.64
3.13320	37.64
3.14987	37.63
3.16653	37.63
3.18320	37.63
3.19987	37.63
3.21653	37.63
3.23320	37.63
3.24987	37.63
3.26653	37.63
3.28320	37.63
3.29987	37.63
3.31653	37.63
3.33320	37.63
3.34987	37.63
3.36653	37.63
3.38320	37.63
3.39987	37.63
3.41653	37.63
3.43320	37.63
3.44987	37.63
3.46653	37.63
3.48320	37.63
3.49987	37.63
3.51653	37.63
3.53320	37.63
3.54987	37.63
3.56653	37.63
3.58320	37.63
3.59987	37.63
3.61653	37.63
3.63320	37.63
3.64987	37.63
3.66653	37.63
3.68320	37.63
3.69987	37.63
3.71653	37.63
3.73320	37.63
3.74987	37.63
3.76653	37.63
3.78320	37.63
3.79987	37.63
3.81653	37.63
3.83320	37.63
3.84987	37.63
3.86653	37.63
3.88320	37.63
3.89987	37.63
3.91653	37.63
3.93320	37.63
3.94987	37.63
3.96653	37.63
3.98320	37.63

