[Header]
Application Name	LabSolutions
Version	5.110
Data File Name	C:\Users\User\Desktop\Junior\UIC Prairie Sampling\5.18.23\05182023_070.gcd
Output Date	6/5/2023
Output Time	2:17:29 PM

[File Information]
Type	Data File
Generated	5/24/2023 8:08:40 PM
Generated by	System Administrator
Modified	5/24/2023 8:16:04 PM
Modified by	System Administrator

[Sample Information]
Operator Name	System Administrator
Acquired	5/24/2023 8:12:02 PM
Sample Type	0:Unknown
Level	0
Sample Name	070
Sample ID	070
ISTD Amount1	1
ISTD Amount2	1
ISTD Amount3	1
ISTD Amount4	1
ISTD Amount5	1
ISTD Amount6	1
ISTD Amount7	1
ISTD Amount8	1
ISTD Amount9	1
ISTD Amount10	1
ISTD Amount11	1
ISTD Amount12	1
ISTD Amount13	1
ISTD Amount14	1
ISTD Amount15	1
ISTD Amount16	1
ISTD Amount17	1
ISTD Amount18	1
ISTD Amount19	1
ISTD Amount20	1
ISTD Amount21	1
ISTD Amount22	1
ISTD Amount23	1
ISTD Amount24	1
ISTD Amount25	1
ISTD Amount26	1
ISTD Amount27	1
ISTD Amount28	1
ISTD Amount29	1
ISTD Amount30	1
ISTD Amount31	1
ISTD Amount32	1
Sample Amount	1
Dilution Factor	1
Vial#	69
Injection Volume	1
Injection Count	1
Bar Code	

[Original Files]
Data File	C:\Users\User\Desktop\Junior\UIC Prairie Sampling\5.18.23\05182023_070.gcd
Method File	C:\LabSolutions\Data\GHG_4min_2022\ghg3_togas_w_acet_4 min_new_int.gcm
Batch File	C:\LabSolutions\Data\AutoSamplerTesting\05182023.gcb
Report Format File	c:\LabSolutions\System\DEFAULT.lsr

[File Description]


[Configuration]
Instrument Name	C0B7VH3-Instrument1
Instrument #	1
Line #	1
# of Detectors	3
Detector ID	DET#1	DET#2	DET#3
Detector Name	FID	PTCD	ECD
# of Channels	1	1	1

[Peak Table(Ch1)]
# of Peaks	3
Peak#	R.Time	I.Time	F.Time	Area	Height	A/H	Conc.	Mark	ID#	Name	k'	Plate #	Plate Ht.	Tailing	Resolution	Sep.Factor	Area Ratio	Height Ratio	Conc. %	Norm Conc.
1	1.472	1.435	1.523	2972	1482	2.005	0.000	   	1	CO	0.000	9668	15.516	1.206	0.000	0.000	0	0	0.000	0.000
2	1.564	1.531	1.611	4466	2300	1.942	21.773	   	2	CH4	0.062	11583	12.950	1.149	1.554	0.000	0	0	3.933	3.933
3	1.989	1.941	2.480	2759722	1319822	2.091	531.849	   	3	CO2	0.351	17265	8.688	1.311	7.169	5.640	0	0	96.067	96.067

[Peak Table(Ch2)]
# of Peaks	0

[Peak Table(Ch3)]
# of Peaks	5
Peak#	R.Time	I.Time	F.Time	Area	Height	A/H	Conc.	Mark	ID#	Name	k'	Plate #	Plate Ht.	Tailing	Resolution	Sep.Factor	Area Ratio	Height Ratio	Conc. %	Norm Conc.
1	2.458	2.352	2.513	1046	359	2.914	0.000	   			0.000	13542	11.077	0.000	0.000	0.000	0	0	0.000	0.000
2	2.528	2.513	2.579	334	134	2.498	0.000	 V 			0.028	4272	35.115	0.000	0.582	0.000	0	0	0.000	0.000
3	2.627	2.579	2.682	315	90	3.476	0.000	 V 			0.069	9952	15.072	0.000	0.761	2.421	0	0	0.000	0.000
4	2.891	2.704	3.030	18511	4788	3.866	0.274	   	1	N2O	0.176	13346	11.239	1.577	2.570	2.565	0	0	100.000	100.000
5	3.298	3.038	3.995	13453	386	34.814	0.000	   			0.342	241	621.741	1.789	0.857	1.941	0	0	0.000	0.000

[Compound Results(Ch1)]
# of IDs	6
ID#	Name	R.Time	Area	Height	Conc.	Curve	3rd	2nd	1st	Constant	Area Ratio	Height Ratio	Conc. %	Norm Conc.
1	CO	1.472	2972	1482	0.000	Linear	0.000000e+00	0.000000e+00	0.000000e+00	0.000000e+00	0	0	0.000	0.000
2	CH4	1.564	4466	2300	21.773	Linear	0.000000e+00	0.000000e+00	2.051179e+002	0.000000e+00	0	0	3.933	3.933
3	CO2	1.989	2759722	1319822	531.849	Linear	0.000000e+00	0.000000e+00	5.188919e+003	0.000000e+00	0	0	96.067	96.067
4	Ethylene	0.000	0	0	0.000	Linear	0.000000e+00	0.000000e+00	0.000000e+00	0.000000e+00	0	0	0.000	0.000
5	Acetylene	0.000	0	0	0.000	Linear	0.000000e+00	0.000000e+00	0.000000e+00	0.000000e+00	0	0	0.000	0.000
6	Ethane	0.000	0	0	0.000	Linear	0.000000e+00	0.000000e+00	0.000000e+00	0.000000e+00	0	0	0.000	0.000

[Compound Results(Ch2)]
# of IDs	5
ID#	Name	R.Time	Area	Height	Conc.	Curve	3rd	2nd	1st	Constant	Area Ratio	Height Ratio	Conc. %	Norm Conc.
1	Hydrogen	0.000	0	0	0.000	Linear	0.000000e+00	0.000000e+00	0.000000e+00	0.000000e+00	0	0	0.000	0.000
2	Oxygen	0.000	0	0	0.000	Linear	0.000000e+00	0.000000e+00	0.000000e+00	0.000000e+00	0	0	0.000	0.000
3	Nitrogen	0.000	0	0	0.000	Linear	0.000000e+00	0.000000e+00	0.000000e+00	0.000000e+00	0	0	0.000	0.000
4	Methane	0.000	0	0	0.000	Linear	0.000000e+00	0.000000e+00	0.000000e+00	0.000000e+00	0	0	0.000	0.000
5	Carbon Monoxide	0.000	0	0	0.000	Linear	0.000000e+00	0.000000e+00	0.000000e+00	0.000000e+00	0	0	0.000	0.000

[Compound Results(Ch3)]
# of IDs	2
ID#	Name	R.Time	Area	Height	Conc.	Curve	3rd	2nd	1st	Constant	Area Ratio	Height Ratio	Conc. %	Norm Conc.
1	N2O	2.891	18511	4788	0.274	Linear	0.000000e+00	0.000000e+00	6.759880e+004	0.000000e+00	0	0	100.000	100.000
2	SF6	0.000	0	0	0.000	Linear	0.000000e+00	0.000000e+00	0.000000e+00	0.000000e+00	0	0	0.000	0.000

[Group Results(Ch1)]
# of Groups	0

[Group Results(Ch2)]
# of Groups	0

[Group Results(Ch3)]
# of Groups	0

[Chromatogram (Ch1)]
Interval(msec)	220
# of Points	1091
Start Time(min)	0.002
End Time(min)	3.998
R.Time (min)	Intensity
0.00167	-22
0.00533	-21
0.00900	-26
0.01267	-29
0.01633	-28
0.02000	-24
0.02367	-19
0.02733	-19
0.03100	-19
0.03467	-16
0.03833	-11
0.04200	-7
0.04567	-8
0.04933	-12
0.05300	-19
0.05667	-26
0.06033	-30
0.06400	-32
0.06767	-34
0.07133	-34
0.07500	-32
0.07867	-31
0.08233	-31
0.08600	-30
0.08967	-25
0.09333	-17
0.09700	-12
0.10067	-15
0.10433	-23
0.10800	-27
0.11167	-23
0.11533	-16
0.11900	-6
0.12267	1
0.12633	-0
0.13000	-10
0.13367	-22
0.13733	-34
0.14100	-43
0.14467	-49
0.14833	-48
0.15200	-43
0.15567	-34
0.15933	-24
0.16300	-19
0.16667	-18
0.17033	-20
0.17400	-20
0.17767	-22
0.18133	-22
0.18500	-24
0.18867	-28
0.19233	-28
0.19600	-23
0.19967	-19
0.20333	-17
0.20700	-19
0.21067	-19
0.21433	-19
0.21800	-23
0.22167	-28
0.22533	-30
0.22900	-31
0.23267	-29
0.23633	-26
0.24000	-25
0.24367	-22
0.24733	-18
0.25100	-19
0.25467	-25
0.25833	-34
0.26200	-41
0.26567	-45
0.26933	-48
0.27300	-46
0.27667	-38
0.28033	-28
0.28400	-17
0.28767	-10
0.29133	-7
0.29500	-6
0.29867	-9
0.30233	-13
0.30600	-16
0.30967	-24
0.31333	-35
0.31700	-42
0.32067	-44
0.32433	-43
0.32800	-40
0.33167	-37
0.33533	-31
0.33900	-28
0.34267	-25
0.34633	-22
0.35000	-23
0.35367	-26
0.35733	-32
0.36100	-39
0.36467	-40
0.36833	-37
0.37200	-36
0.37567	-40
0.37933	-48
0.38300	-56
0.38667	-60
0.39033	-59
0.39400	-56
0.39767	-50
0.40133	-42
0.40500	-33
0.40867	-28
0.41233	-29
0.41600	-35
0.41967	-41
0.42333	-45
0.42700	-46
0.43067	-45
0.43433	-46
0.43800	-47
0.44167	-49
0.44533	-52
0.44900	-52
0.45267	-53
0.45633	-53
0.46000	-52
0.46367	-52
0.46733	-50
0.47100	-49
0.47467	-47
0.47833	-42
0.48200	-33
0.48567	-21
0.48933	-12
0.49300	-9
0.49667	-11
0.50033	-18
0.50400	-27
0.50767	-34
0.51133	-36
0.51500	-36
0.51867	-40
0.52233	-46
0.52600	-48
0.52967	-46
0.53333	-43
0.53700	-42
0.54067	-40
0.54433	-36
0.54800	-29
0.55167	-24
0.55533	-20
0.55900	-20
0.56267	-21
0.56633	-20
0.57000	-20
0.57367	-26
0.57733	-39
0.58100	-53
0.58467	-64
0.58833	-68
0.59200	-65
0.59567	-57
0.59933	-48
0.60300	-45
0.60667	-49
0.61033	-54
0.61400	-60
0.61767	-62
0.62133	-57
0.62500	-53
0.62867	-50
0.63233	-49
0.63600	-48
0.63967	-49
0.64333	-51
0.64700	-51
0.65067	-48
0.65433	-43
0.65800	-39
0.66167	-38
0.66533	-41
0.66900	-46
0.67267	-50
0.67633	-52
0.68000	-49
0.68367	-41
0.68733	-33
0.69100	-26
0.69467	-25
0.69833	-30
0.70200	-37
0.70567	-41
0.70933	-40
0.71300	-38
0.71667	-37
0.72033	-39
0.72400	-46
0.72767	-51
0.73133	-53
0.73500	-55
0.73867	-58
0.74233	-57
0.74600	-55
0.74967	-52
0.75333	-48
0.75700	-47
0.76067	-49
0.76433	-56
0.76800	-63
0.77167	-65
0.77533	-61
0.77900	-54
0.78267	-45
0.78633	-39
0.79000	-37
0.79367	-38
0.79733	-44
0.80100	-48
0.80467	-50
0.80833	-52
0.81200	-56
0.81567	-61
0.81933	-62
0.82300	-58
0.82667	-55
0.83033	-53
0.83400	-52
0.83767	-52
0.84133	-53
0.84500	-53
0.84867	-51
0.85233	-42
0.85600	-33
0.85967	-32
0.86333	-37
0.86700	-45
0.87067	-53
0.87433	-54
0.87800	-55
0.88167	-57
0.88533	-56
0.88900	-53
0.89267	-52
0.89633	-53
0.90000	-53
0.90367	-55
0.90733	-57
0.91100	-57
0.91467	-57
0.91833	-55
0.92200	-54
0.92567	-56
0.92933	-63
0.93300	-69
0.93667	-73
0.94033	-69
0.94400	-60
0.94767	-54
0.95133	-50
0.95500	-47
0.95867	-44
0.96233	-44
0.96600	-46
0.96967	-49
0.97333	-50
0.97700	-52
0.98067	-54
0.98433	-56
0.98800	-59
0.99167	-58
0.99533	-55
0.99900	-50
1.00267	-43
1.00633	-36
1.01000	-33
1.01367	-34
1.01733	-35
1.02100	-34
1.02467	-35
1.02833	-44
1.03200	-53
1.03567	-59
1.03933	-59
1.04300	-56
1.04667	-56
1.05033	-59
1.05400	-63
1.05767	-67
1.06133	-70
1.06500	-72
1.06867	-71
1.07233	-70
1.07600	-71
1.07967	-74
1.08333	-75
1.08700	-72
1.09067	-70
1.09433	-69
1.09800	-70
1.10167	-71
1.10533	-69
1.10900	-67
1.11267	-69
1.11633	-68
1.12000	-65
1.12367	-66
1.12733	-66
1.13100	-65
1.13467	-65
1.13833	-70
1.14200	-72
1.14567	-74
1.14933	-75
1.15300	-73
1.15667	-71
1.16033	-71
1.16400	-72
1.16767	-74
1.17133	-76
1.17500	-76
1.17867	-78
1.18233	-81
1.18600	-82
1.18967	-82
1.19333	-82
1.19700	-80
1.20067	-76
1.20433	-73
1.20800	-71
1.21167	-69
1.21533	-66
1.21900	-64
1.22267	-64
1.22633	-63
1.23000	-61
1.23367	-61
1.23733	-63
1.24100	-65
1.24467	-62
1.24833	-53
1.25200	-48
1.25567	-52
1.25933	-61
1.26300	-69
1.26667	-80
1.27033	-86
1.27400	-87
1.27767	-85
1.28133	-77
1.28500	-67
1.28867	-57
1.29233	-54
1.29600	-58
1.29967	-68
1.30333	-79
1.30700	-87
1.31067	-86
1.31433	-78
1.31800	-70
1.32167	-66
1.32533	-65
1.32900	-68
1.33267	-72
1.33633	-77
1.34000	-81
1.34367	-85
1.34733	-89
1.35100	-90
1.35467	-89
1.35833	-87
1.36200	-85
1.36567	-84
1.36933	-82
1.37300	-81
1.37667	-76
1.38033	-70
1.38400	-64
1.38767	-60
1.39133	-59
1.39500	-63
1.39867	-68
1.40233	-65
1.40600	-62
1.40967	-63
1.41333	-66
1.41700	-69
1.42067	-73
1.42433	-78
1.42800	-81
1.43167	-81
1.43533	-73
1.43900	-48
1.44267	-24
1.44633	15
1.45000	143
1.45367	377
1.45733	656
1.46100	920
1.46467	1142
1.46833	1313
1.47200	1408
1.47567	1399
1.47933	1276
1.48300	1067
1.48667	825
1.49033	597
1.49400	405
1.49767	254
1.50133	140
1.50500	63
1.50867	12
1.51233	-24
1.51600	-48
1.51967	-65
1.52333	-76
1.52700	-81
1.53067	-77
1.53433	-37
1.53800	95
1.54167	372
1.54533	779
1.54900	1232
1.55267	1643
1.55633	1962
1.56000	2164
1.56367	2219
1.56733	2101
1.57100	1826
1.57467	1458
1.57833	1083
1.58200	755
1.58567	497
1.58933	308
1.59300	173
1.59667	77
1.60033	7
1.60400	-42
1.60767	-71
1.61133	-85
1.61500	-92
1.61867	-95
1.62233	-92
1.62600	-86
1.62967	-83
1.63333	-83
1.63700	-86
1.64067	-89
1.64433	-92
1.64800	-94
1.65167	-95
1.65533	-97
1.65900	-98
1.66267	-97
1.66633	-98
1.67000	-99
1.67367	-102
1.67733	-106
1.68100	-111
1.68467	-116
1.68833	-117
1.69200	-117
1.69567	-118
1.69933	-119
1.70300	-112
1.70667	-102
1.71033	-94
1.71400	-87
1.71767	-82
1.72133	-81
1.72500	-84
1.72867	-91
1.73233	-94
1.73600	-93
1.73967	-90
1.74333	-86
1.74700	-85
1.75067	-87
1.75433	-91
1.75800	-93
1.76167	-97
1.76533	-103
1.76900	-108
1.77267	-111
1.77633	-115
1.78000	-116
1.78367	-113
1.78733	-109
1.79100	-105
1.79467	-101
1.79833	-98
1.80200	-100
1.80567	-106
1.80933	-110
1.81300	-110
1.81667	-109
1.82033	-110
1.82400	-108
1.82767	-106
1.83133	-112
1.83500	-119
1.83867	-122
1.84233	-122
1.84600	-118
1.84967	-110
1.85333	-99
1.85700	-91
1.86067	-88
1.86433	-84
1.86800	-81
1.87167	-80
1.87533	-81
1.87900	-82
1.88267	-85
1.88633	-91
1.89000	-98
1.89367	-106
1.89733	-112
1.90100	-115
1.90467	-117
1.90833	-114
1.91200	-103
1.91567	-94
1.91933	-90
1.92300	-89
1.92667	-88
1.93033	-94
1.93400	-102
1.93767	-107
1.94133	-103
1.94500	-76
1.94867	81
1.95233	1054
1.95600	5881
1.95967	23817
1.96333	74624
1.96700	184667
1.97067	368511
1.97433	610210
1.97800	867117
1.98167	1092420
1.98533	1250285
1.98900	1319764
1.99267	1295474
1.99633	1187412
2.00000	1020196
2.00367	826255
2.00733	635814
2.01100	469525
2.01467	336424
2.01833	236466
2.02200	164720
2.02567	114778
2.02933	80674
2.03300	57623
2.03667	42083
2.04033	31560
2.04400	24360
2.04767	19352
2.05133	15804
2.05500	13230
2.05867	11313
2.06233	9847
2.06600	8697
2.06967	7777
2.07333	7025
2.07700	6401
2.08067	5873
2.08433	5422
2.08800	5030
2.09167	4684
2.09533	4377
2.09900	4106
2.10267	3861
2.10633	3641
2.11000	3442
2.11367	3260
2.11733	3095
2.12100	2943
2.12467	2803
2.12833	2674
2.13200	2554
2.13567	2445
2.13933	2344
2.14300	2251
2.14667	2166
2.15033	2092
2.15400	2025
2.15767	1961
2.16133	1897
2.16500	1831
2.16867	1768
2.17233	1709
2.17600	1654
2.17967	1606
2.18333	1555
2.18700	1503
2.19067	1456
2.19433	1409
2.19800	1365
2.20167	1328
2.20533	1297
2.20900	1269
2.21267	1238
2.21633	1206
2.22000	1173
2.22367	1141
2.22733	1111
2.23100	1086
2.23467	1065
2.23833	1047
2.24200	1030
2.24567	1010
2.24933	984
2.25300	955
2.25667	929
2.26033	906
2.26400	886
2.26767	871
2.27133	860
2.27500	848
2.27867	836
2.28233	824
2.28600	811
2.28967	796
2.29333	776
2.29700	756
2.30067	740
2.30433	728
2.30800	717
2.31167	708
2.31533	699
2.31900	688
2.32267	676
2.32633	664
2.33000	652
2.33367	641
2.33733	633
2.34100	628
2.34467	625
2.34833	622
2.35200	619
2.35567	613
2.35933	606
2.36300	595
2.36667	586
2.37033	580
2.37400	571
2.37767	562
2.38133	554
2.38500	548
2.38867	545
2.39233	538
2.39600	525
2.39967	508
2.40333	491
2.40700	480
2.41067	473
2.41433	469
2.41800	466
2.42167	468
2.42533	474
2.42900	477
2.43267	479
2.43633	481
2.44000	478
2.44367	470
2.44733	455
2.45100	438
2.45467	421
2.45833	409
2.46200	401
2.46567	397
2.46933	395
2.47300	396
2.47667	397
2.48033	399
2.48400	402
2.48767	407
2.49133	412
2.49500	412
2.49867	412
2.50233	411
2.50600	408
2.50967	404
2.51333	401
2.51700	397
2.52067	394
2.52433	394
2.52800	395
2.53167	397
2.53533	397
2.53900	393
2.54267	385
2.54633	380
2.55000	376
2.55367	373
2.55733	373
2.56100	378
2.56467	386
2.56833	395
2.57200	397
2.57567	386
2.57933	366
2.58300	347
2.58667	337
2.59033	335
2.59400	336
2.59767	337
2.60133	341
2.60500	339
2.60867	332
2.61233	328
2.61600	329
2.61967	328
2.62333	324
2.62700	318
2.63067	313
2.63433	308
2.63800	308
2.64167	313
2.64533	321
2.64900	331
2.65267	340
2.65633	347
2.66000	348
2.66367	344
2.66733	340
2.67100	336
2.67467	333
2.67833	330
2.68200	328
2.68567	326
2.68933	326
2.69300	331
2.69667	337
2.70033	340
2.70400	340
2.70767	337
2.71133	334
2.71500	330
2.71867	325
2.72233	318
2.72600	311
2.72967	305
2.73333	305
2.73700	308
2.74067	311
2.74433	313
2.74800	319
2.75167	324
2.75533	326
2.75900	326
2.76267	327
2.76633	330
2.77000	334
2.77367	334
2.77733	333
2.78100	328
2.78467	320
2.78833	314
2.79200	313
2.79567	316
2.79933	320
2.80300	322
2.80667	326
2.81033	332
2.81400	340
2.81767	344
2.82133	342
2.82500	332
2.82867	321
2.83233	314
2.83600	312
2.83967	314
2.84333	314
2.84700	314
2.85067	318
2.85433	323
2.85800	328
2.86167	331
2.86533	334
2.86900	342
2.87267	357
2.87633	365
2.88000	364
2.88367	359
2.88733	351
2.89100	340
2.89467	326
2.89833	316
2.90200	312
2.90567	309
2.90933	305
2.91300	302
2.91667	298
2.92033	294
2.92400	290
2.92767	294
2.93133	301
2.93500	309
2.93867	320
2.94233	335
2.94600	350
2.94967	356
2.95333	351
2.95700	337
2.96067	321
2.96433	312
2.96800	311
2.97167	315
2.97533	321
2.97900	327
2.98267	331
2.98633	337
2.99000	342
2.99367	346
2.99733	347
3.00100	346
3.00467	344
3.00833	344
3.01200	345
3.01567	344
3.01933	342
3.02300	342
3.02667	345
3.03033	348
3.03400	351
3.03767	352
3.04133	353
3.04500	350
3.04867	344
3.05233	341
3.05600	341
3.05967	342
3.06333	344
3.06700	342
3.07067	340
3.07433	341
3.07800	346
3.08167	349
3.08533	347
3.08900	343
3.09267	338
3.09633	334
3.10000	332
3.10367	332
3.10733	331
3.11100	329
3.11467	329
3.11833	330
3.12200	332
3.12567	334
3.12933	336
3.13300	338
3.13667	337
3.14033	333
3.14400	327
3.14767	318
3.15133	312
3.15500	308
3.15867	305
3.16233	304
3.16600	305
3.16967	310
3.17333	317
3.17700	322
3.18067	323
3.18433	324
3.18800	325
3.19167	327
3.19533	329
3.19900	335
3.20267	340
3.20633	345
3.21000	348
3.21367	346
3.21733	341
3.22100	331
3.22467	323
3.22833	316
3.23200	313
3.23567	315
3.23933	318
3.24300	321
3.24667	327
3.25033	332
3.25400	334
3.25767	333
3.26133	330
3.26500	328
3.26867	327
3.27233	328
3.27600	332
3.27967	335
3.28333	334
3.28700	330
3.29067	326
3.29433	324
3.29800	323
3.30167	321
3.30533	319
3.30900	321
3.31267	324
3.31633	325
3.32000	326
3.32367	329
3.32733	337
3.33100	347
3.33467	351
3.33833	351
3.34200	345
3.34567	343
3.34933	341
3.35300	335
3.35667	327
3.36033	322
3.36400	317
3.36767	315
3.37133	314
3.37500	314
3.37867	316
3.38233	319
3.38600	325
3.38967	332
3.39333	335
3.39700	334
3.40067	331
3.40433	329
3.40800	331
3.41167	335
3.41533	340
3.41900	342
3.42267	338
3.42633	333
3.43000	326
3.43367	317
3.43733	307
3.44100	303
3.44467	302
3.44833	305
3.45200	309
3.45567	311
3.45933	308
3.46300	304
3.46667	304
3.47033	306
3.47400	308
3.47767	309
3.48133	311
3.48500	312
3.48867	316
3.49233	321
3.49600	324
3.49967	321
3.50333	314
3.50700	305
3.51067	294
3.51433	287
3.51800	286
3.52167	288
3.52533	289
3.52900	290
3.53267	294
3.53633	300
3.54000	302
3.54367	301
3.54733	298
3.55100	298
3.55467	297
3.55833	297
3.56200	297
3.56567	298
3.56933	299
3.57300	302
3.57667	305
3.58033	311
3.58400	318
3.58767	319
3.59133	317
3.59500	312
3.59867	305
3.60233	299
3.60600	292
3.60967	285
3.61333	279
3.61700	279
3.62067	280
3.62433	279
3.62800	277
3.63167	277
3.63533	281
3.63900	287
3.64267	293
3.64633	295
3.65000	295
3.65367	292
3.65733	287
3.66100	285
3.66467	280
3.66833	275
3.67200	277
3.67567	285
3.67933	292
3.68300	293
3.68667	289
3.69033	287
3.69400	279
3.69767	272
3.70133	267
3.70500	267
3.70867	273
3.71233	279
3.71600	281
3.71967	283
3.72333	284
3.72700	288
3.73067	290
3.73433	287
3.73800	281
3.74167	277
3.74533	277
3.74900	275
3.75267	269
3.75633	268
3.76000	271
3.76367	273
3.76733	272
3.77100	269
3.77467	268
3.77833	271
3.78200	276
3.78567	279
3.78933	279
3.79300	275
3.79667	266
3.80033	260
3.80400	259
3.80767	257
3.81133	256
3.81500	256
3.81867	258
3.82233	261
3.82600	264
3.82967	265
3.83333	265
3.83700	264
3.84067	261
3.84433	260
3.84800	264
3.85167	267
3.85533	265
3.85900	260
3.86267	255
3.86633	255
3.87000	259
3.87367	263
3.87733	267
3.88100	270
3.88467	271
3.88833	271
3.89200	269
3.89567	267
3.89933	266
3.90300	267
3.90667	266
3.91033	264
3.91400	262
3.91767	262
3.92133	266
3.92500	272
3.92867	276
3.93233	278
3.93600	277
3.93967	275
3.94333	271
3.94700	266
3.95067	261
3.95433	255
3.95800	250
3.96167	248
3.96533	246
3.96900	243
3.97267	241
3.97633	242
3.98000	250
3.98367	257
3.98733	259
3.99100	258
3.99467	256
3.99833	258

[Chromatogram (Ch2)]
Interval(msec)	220
# of Points	1091
Start Time(min)	0.002
End Time(min)	3.998
R.Time (min)	Intensity
0.00167	-0
0.00533	-0
0.00900	-1
0.01267	-1
0.01633	-1
0.02000	-0
0.02367	-0
0.02733	-0
0.03100	-0
0.03467	-0
0.03833	-0
0.04200	-1
0.04567	-0
0.04933	-0
0.05300	-0
0.05667	-0
0.06033	-0
0.06400	-0
0.06767	-0
0.07133	0
0.07500	0
0.07867	1
0.08233	1
0.08600	1
0.08967	1
0.09333	1
0.09700	1
0.10067	1
0.10433	1
0.10800	1
0.11167	1
0.11533	1
0.11900	1
0.12267	1
0.12633	1
0.13000	1
0.13367	1
0.13733	0
0.14100	0
0.14467	-0
0.14833	-0
0.15200	-0
0.15567	-1
0.15933	-1
0.16300	-1
0.16667	-1
0.17033	-1
0.17400	-1
0.17767	-0
0.18133	-0
0.18500	-0
0.18867	0
0.19233	0
0.19600	0
0.19967	1
0.20333	1
0.20700	0
0.21067	0
0.21433	-0
0.21800	-1
0.22167	-1
0.22533	-1
0.22900	-1
0.23267	-1
0.23633	-1
0.24000	-1
0.24367	-1
0.24733	-1
0.25100	-1
0.25467	-1
0.25833	-1
0.26200	-1
0.26567	-1
0.26933	-1
0.27300	-1
0.27667	-1
0.28033	-1
0.28400	-1
0.28767	-1
0.29133	-0
0.29500	-0
0.29867	-0
0.30233	-0
0.30600	-0
0.30967	-1
0.31333	-1
0.31700	-1
0.32067	-1
0.32433	-1
0.32800	-1
0.33167	-1
0.33533	-1
0.33900	-1
0.34267	-1
0.34633	-0
0.35000	0
0.35367	0
0.35733	0
0.36100	1
0.36467	0
0.36833	0
0.37200	0
0.37567	1
0.37933	1
0.38300	1
0.38667	1
0.39033	0
0.39400	0
0.39767	0
0.40133	0
0.40500	-0
0.40867	-0
0.41233	-1
0.41600	-0
0.41967	-0
0.42333	-0
0.42700	-0
0.43067	-0
0.43433	-0
0.43800	-0
0.44167	-0
0.44533	-0
0.44900	-0
0.45267	-0
0.45633	-0
0.46000	-0
0.46367	-0
0.46733	-0
0.47100	-0
0.47467	-0
0.47833	-0
0.48200	-0
0.48567	-0
0.48933	-0
0.49300	-0
0.49667	-0
0.50033	-0
0.50400	-0
0.50767	-0
0.51133	-0
0.51500	-0
0.51867	-0
0.52233	-1
0.52600	-1
0.52967	-1
0.53333	-1
0.53700	-1
0.54067	-2
0.54433	-2
0.54800	-2
0.55167	-3
0.55533	-3
0.55900	-3
0.56267	-3
0.56633	-3
0.57000	-3
0.57367	-2
0.57733	-2
0.58100	-2
0.58467	-2
0.58833	-1
0.59200	-1
0.59567	-1
0.59933	-1
0.60300	-1
0.60667	-1
0.61033	-1
0.61400	-1
0.61767	-1
0.62133	-1
0.62500	-1
0.62867	-1
0.63233	-1
0.63600	-1
0.63967	-1
0.64333	-1
0.64700	-1
0.65067	-1
0.65433	-1
0.65800	-1
0.66167	-1
0.66533	-1
0.66900	-1
0.67267	-1
0.67633	-1
0.68000	-1
0.68367	-1
0.68733	-1
0.69100	-1
0.69467	-0
0.69833	-0
0.70200	-0
0.70567	-0
0.70933	-0
0.71300	-0
0.71667	-0
0.72033	-0
0.72400	-0
0.72767	-1
0.73133	-1
0.73500	-1
0.73867	-1
0.74233	-1
0.74600	-2
0.74967	-2
0.75333	-3
0.75700	-3
0.76067	-3
0.76433	-4
0.76800	-4
0.77167	-4
0.77533	-5
0.77900	-5
0.78267	-5
0.78633	-5
0.79000	-5
0.79367	-5
0.79733	-5
0.80100	-5
0.80467	-5
0.80833	-5
0.81200	-5
0.81567	-5
0.81933	-5
0.82300	-6
0.82667	-6
0.83033	-6
0.83400	-5
0.83767	-5
0.84133	-5
0.84500	-4
0.84867	-4
0.85233	-3
0.85600	-3
0.85967	-3
0.86333	-2
0.86700	-2
0.87067	-2
0.87433	-2
0.87800	-2
0.88167	-2
0.88533	-2
0.88900	-1
0.89267	-1
0.89633	-2
0.90000	-2
0.90367	-1
0.90733	-1
0.91100	-1
0.91467	-1
0.91833	-1
0.92200	-1
0.92567	-1
0.92933	-1
0.93300	-1
0.93667	-1
0.94033	-1
0.94400	-1
0.94767	-1
0.95133	-1
0.95500	-1
0.95867	-1
0.96233	-0
0.96600	-0
0.96967	0
0.97333	1
0.97700	1
0.98067	1
0.98433	1
0.98800	1
0.99167	1
0.99533	1
0.99900	0
1.00267	-0
1.00633	-1
1.01000	-1
1.01367	-1
1.01733	-1
1.02100	-1
1.02467	-1
1.02833	-1
1.03200	-1
1.03567	-1
1.03933	-2
1.04300	-2
1.04667	-2
1.05033	-1
1.05400	-1
1.05767	-1
1.06133	-0
1.06500	-0
1.06867	0
1.07233	0
1.07600	0
1.07967	0
1.08333	0
1.08700	-0
1.09067	-1
1.09433	-1
1.09800	-2
1.10167	-2
1.10533	-3
1.10900	-3
1.11267	-3
1.11633	-3
1.12000	-4
1.12367	-4
1.12733	-4
1.13100	-4
1.13467	-5
1.13833	-5
1.14200	-5
1.14567	-5
1.14933	-6
1.15300	-5
1.15667	-5
1.16033	-5
1.16400	-5
1.16767	-5
1.17133	-5
1.17500	-5
1.17867	-5
1.18233	-5
1.18600	-6
1.18967	-6
1.19333	-6
1.19700	-5
1.20067	-5
1.20433	-5
1.20800	-5
1.21167	-4
1.21533	-4
1.21900	-4
1.22267	-3
1.22633	-3
1.23000	-2
1.23367	-2
1.23733	-2
1.24100	-2
1.24467	-2
1.24833	-2
1.25200	-2
1.25567	-1
1.25933	-1
1.26300	-1
1.26667	-1
1.27033	-1
1.27400	-1
1.27767	-1
1.28133	-1
1.28500	-1
1.28867	-0
1.29233	-0
1.29600	-0
1.29967	-0
1.30333	-0
1.30700	-0
1.31067	-0
1.31433	0
1.31800	0
1.32167	1
1.32533	1
1.32900	1
1.33267	0
1.33633	0
1.34000	-0
1.34367	-1
1.34733	-1
1.35100	-1
1.35467	-1
1.35833	-1
1.36200	-1
1.36567	-2
1.36933	-2
1.37300	-2
1.37667	-2
1.38033	-2
1.38400	-3
1.38767	-3
1.39133	-3
1.39500	-3
1.39867	-3
1.40233	-3
1.40600	-3
1.40967	-3
1.41333	-3
1.41700	-3
1.42067	-3
1.42433	-3
1.42800	-3
1.43167	-3
1.43533	-3
1.43900	-4
1.44267	-4
1.44633	-4
1.45000	-4
1.45367	-4
1.45733	-5
1.46100	-5
1.46467	-5
1.46833	-5
1.47200	-5
1.47567	-5
1.47933	-5
1.48300	-5
1.48667	-4
1.49033	-4
1.49400	-4
1.49767	-4
1.50133	-4
1.50500	-4
1.50867	-4
1.51233	-4
1.51600	-5
1.51967	-5
1.52333	-5
1.52700	-5
1.53067	-5
1.53433	-5
1.53800	-4
1.54167	-4
1.54533	-4
1.54900	-4
1.55267	-4
1.55633	-4
1.56000	-3
1.56367	-3
1.56733	-3
1.57100	-3
1.57467	-3
1.57833	-3
1.58200	-3
1.58567	-3
1.58933	-3
1.59300	-4
1.59667	-4
1.60033	-4
1.60400	-5
1.60767	-7
1.61133	-9
1.61500	-11
1.61867	-13
1.62233	-15
1.62600	-18
1.62967	-21
1.63333	-24
1.63700	-28
1.64067	-31
1.64433	-34
1.64800	-37
1.65167	-41
1.65533	-44
1.65900	-47
1.66267	-51
1.66633	-56
1.67000	-60
1.67367	-65
1.67733	-70
1.68100	-75
1.68467	-79
1.68833	-83
1.69200	-87
1.69567	-90
1.69933	-92
1.70300	-95
1.70667	-96
1.71033	-98
1.71400	-98
1.71767	-99
1.72133	-100
1.72500	-101
1.72867	-102
1.73233	-102
1.73600	-103
1.73967	-103
1.74333	-104
1.74700	-104
1.75067	-104
1.75433	-104
1.75800	-105
1.76167	-105
1.76533	-105
1.76900	-105
1.77267	-105
1.77633	-105
1.78000	-104
1.78367	-104
1.78733	-103
1.79100	-103
1.79467	-103
1.79833	-103
1.80200	-104
1.80567	-104
1.80933	-105
1.81300	-105
1.81667	-106
1.82033	-105
1.82400	-105
1.82767	-105
1.83133	-105
1.83500	-105
1.83867	-104
1.84233	-104
1.84600	-105
1.84967	-105
1.85333	-105
1.85700	-105
1.86067	-105
1.86433	-105
1.86800	-105
1.87167	-105
1.87533	-105
1.87900	-105
1.88267	-105
1.88633	-105
1.89000	-105
1.89367	-104
1.89733	-104
1.90100	-105
1.90467	-105
1.90833	-104
1.91200	-104
1.91567	-104
1.91933	-104
1.92300	-104
1.92667	-104
1.93033	-103
1.93400	-103
1.93767	-103
1.94133	-103
1.94500	-103
1.94867	-103
1.95233	-104
1.95600	-104
1.95967	-104
1.96333	-104
1.96700	-103
1.97067	-102
1.97433	-101
1.97800	-100
1.98167	-99
1.98533	-99
1.98900	-98
1.99267	-98
1.99633	-98
2.00000	-98
2.00367	-98
2.00733	-97
2.01100	-97
2.01467	-96
2.01833	-96
2.02200	-95
2.02567	-95
2.02933	-94
2.03300	-94
2.03667	-94
2.04033	-94
2.04400	-94
2.04767	-94
2.05133	-94
2.05500	-94
2.05867	-94
2.06233	-94
2.06600	-94
2.06967	-94
2.07333	-94
2.07700	-93
2.08067	-93
2.08433	-92
2.08800	-92
2.09167	-92
2.09533	-92
2.09900	-92
2.10267	-92
2.10633	-92
2.11000	-91
2.11367	-91
2.11733	-90
2.12100	-90
2.12467	-89
2.12833	-89
2.13200	-88
2.13567	-88
2.13933	-87
2.14300	-87
2.14667	-87
2.15033	-86
2.15400	-86
2.15767	-85
2.16133	-85
2.16500	-85
2.16867	-85
2.17233	-85
2.17600	-85
2.17967	-85
2.18333	-85
2.18700	-85
2.19067	-85
2.19433	-86
2.19800	-86
2.20167	-85
2.20533	-85
2.20900	-85
2.21267	-84
2.21633	-84
2.22000	-83
2.22367	-83
2.22733	-82
2.23100	-82
2.23467	-81
2.23833	-81
2.24200	-80
2.24567	-80
2.24933	-79
2.25300	-79
2.25667	-79
2.26033	-79
2.26400	-79
2.26767	-79
2.27133	-79
2.27500	-79
2.27867	-79
2.28233	-78
2.28600	-78
2.28967	-78
2.29333	-78
2.29700	-78
2.30067	-79
2.30433	-78
2.30800	-78
2.31167	-77
2.31533	-76
2.31900	-75
2.32267	-74
2.32633	-73
2.33000	-73
2.33367	-73
2.33733	-73
2.34100	-73
2.34467	-73
2.34833	-72
2.35200	-71
2.35567	-70
2.35933	-69
2.36300	-67
2.36667	-65
2.37033	-63
2.37400	-60
2.37767	-56
2.38133	-53
2.38500	-49
2.38867	-45
2.39233	-40
2.39600	-36
2.39967	-32
2.40333	-28
2.40700	-24
2.41067	-20
2.41433	-17
2.41800	-14
2.42167	-11
2.42533	-9
2.42900	-6
2.43267	-4
2.43633	-3
2.44000	-1
2.44367	1
2.44733	2
2.45100	3
2.45467	4
2.45833	5
2.46200	6
2.46567	7
2.46933	8
2.47300	9
2.47667	10
2.48033	11
2.48400	11
2.48767	12
2.49133	13
2.49500	13
2.49867	14
2.50233	14
2.50600	14
2.50967	14
2.51333	13
2.51700	12
2.52067	11
2.52433	10
2.52800	9
2.53167	9
2.53533	8
2.53900	8
2.54267	9
2.54633	9
2.55000	10
2.55367	11
2.55733	12
2.56100	12
2.56467	13
2.56833	13
2.57200	14
2.57567	14
2.57933	14
2.58300	15
2.58667	15
2.59033	15
2.59400	16
2.59767	16
2.60133	16
2.60500	16
2.60867	16
2.61233	16
2.61600	17
2.61967	17
2.62333	17
2.62700	18
2.63067	18
2.63433	18
2.63800	19
2.64167	19
2.64533	19
2.64900	19
2.65267	19
2.65633	19
2.66000	20
2.66367	20
2.66733	20
2.67100	21
2.67467	21
2.67833	22
2.68200	22
2.68567	22
2.68933	22
2.69300	22
2.69667	22
2.70033	23
2.70400	23
2.70767	24
2.71133	24
2.71500	25
2.71867	25
2.72233	26
2.72600	26
2.72967	26
2.73333	26
2.73700	26
2.74067	26
2.74433	26
2.74800	26
2.75167	26
2.75533	27
2.75900	27
2.76267	28
2.76633	28
2.77000	28
2.77367	29
2.77733	29
2.78100	29
2.78467	29
2.78833	29
2.79200	29
2.79567	28
2.79933	27
2.80300	27
2.80667	26
2.81033	26
2.81400	25
2.81767	25
2.82133	25
2.82500	26
2.82867	26
2.83233	26
2.83600	26
2.83967	26
2.84333	27
2.84700	27
2.85067	27
2.85433	27
2.85800	27
2.86167	26
2.86533	25
2.86900	21
2.87267	15
2.87633	6
2.88000	-6
2.88367	-23
2.88733	-46
2.89100	-73
2.89467	-105
2.89833	-143
2.90200	-185
2.90567	-232
2.90933	-283
2.91300	-337
2.91667	-394
2.92033	-453
2.92400	-513
2.92767	-574
2.93133	-635
2.93500	-696
2.93867	-755
2.94233	-811
2.94600	-863
2.94967	-915
2.95333	-969
2.95700	-1024
2.96067	-1073
2.96433	-1104
2.96800	-1112
2.97167	-1094
2.97533	-1054
2.97900	-995
2.98267	-924
2.98633	-846
2.99000	-765
2.99367	-685
2.99733	-608
3.00100	-536
3.00467	-469
3.00833	-408
3.01200	-354
3.01567	-305
3.01933	-262
3.02300	-224
3.02667	-191
3.03033	-162
3.03400	-137
3.03767	-116
3.04133	-97
3.04500	-81
3.04867	-67
3.05233	-55
3.05600	-45
3.05967	-37
3.06333	-29
3.06700	-23
3.07067	-17
3.07433	-13
3.07800	-8
3.08167	-5
3.08533	-2
3.08900	0
3.09267	3
3.09633	4
3.10000	6
3.10367	7
3.10733	9
3.11100	10
3.11467	11
3.11833	12
3.12200	13
3.12567	14
3.12933	15
3.13300	15
3.13667	16
3.14033	17
3.14400	17
3.14767	18
3.15133	18
3.15500	19
3.15867	19
3.16233	19
3.16600	19
3.16967	19
3.17333	20
3.17700	20
3.18067	20
3.18433	21
3.18800	21
3.19167	22
3.19533	22
3.19900	22
3.20267	23
3.20633	23
3.21000	23
3.21367	23
3.21733	24
3.22100	24
3.22467	24
3.22833	24
3.23200	24
3.23567	25
3.23933	25
3.24300	25
3.24667	25
3.25033	24
3.25400	24
3.25767	24
3.26133	24
3.26500	24
3.26867	24
3.27233	24
3.27600	24
3.27967	24
3.28333	24
3.28700	25
3.29067	25
3.29433	25
3.29800	25
3.30167	25
3.30533	25
3.30900	25
3.31267	24
3.31633	24
3.32000	24
3.32367	24
3.32733	24
3.33100	24
3.33467	24
3.33833	24
3.34200	24
3.34567	24
3.34933	24
3.35300	24
3.35667	25
3.36033	25
3.36400	25
3.36767	25
3.37133	25
3.37500	26
3.37867	26
3.38233	26
3.38600	26
3.38967	27
3.39333	27
3.39700	27
3.40067	27
3.40433	27
3.40800	27
3.41167	27
3.41533	27
3.41900	27
3.42267	27
3.42633	27
3.43000	27
3.43367	27
3.43733	27
3.44100	27
3.44467	27
3.44833	27
3.45200	27
3.45567	27
3.45933	27
3.46300	27
3.46667	27
3.47033	27
3.47400	27
3.47767	27
3.48133	27
3.48500	27
3.48867	28
3.49233	28
3.49600	28
3.49967	28
3.50333	28
3.50700	28
3.51067	28
3.51433	28
3.51800	28
3.52167	28
3.52533	28
3.52900	28
3.53267	28
3.53633	28
3.54000	28
3.54367	28
3.54733	28
3.55100	28
3.55467	28
3.55833	28
3.56200	28
3.56567	28
3.56933	27
3.57300	27
3.57667	27
3.58033	27
3.58400	27
3.58767	27
3.59133	27
3.59500	27
3.59867	27
3.60233	28
3.60600	28
3.60967	28
3.61333	29
3.61700	29
3.62067	29
3.62433	29
3.62800	29
3.63167	29
3.63533	30
3.63900	30
3.64267	30
3.64633	30
3.65000	30
3.65367	30
3.65733	31
3.66100	31
3.66467	31
3.66833	30
3.67200	30
3.67567	30
3.67933	30
3.68300	30
3.68667	30
3.69033	30
3.69400	30
3.69767	29
3.70133	29
3.70500	29
3.70867	29
3.71233	29
3.71600	29
3.71967	29
3.72333	29
3.72700	29
3.73067	29
3.73433	29
3.73800	28
3.74167	28
3.74533	28
3.74900	28
3.75267	28
3.75633	28
3.76000	28
3.76367	28
3.76733	27
3.77100	27
3.77467	27
3.77833	27
3.78200	27
3.78567	27
3.78933	27
3.79300	27
3.79667	27
3.80033	27
3.80400	27
3.80767	27
3.81133	27
3.81500	27
3.81867	27
3.82233	28
3.82600	28
3.82967	28
3.83333	28
3.83700	27
3.84067	28
3.84433	28
3.84800	28
3.85167	28
3.85533	28
3.85900	28
3.86267	28
3.86633	28
3.87000	29
3.87367	28
3.87733	28
3.88100	28
3.88467	28
3.88833	28
3.89200	28
3.89567	28
3.89933	28
3.90300	28
3.90667	29
3.91033	29
3.91400	28
3.91767	28
3.92133	28
3.92500	28
3.92867	28
3.93233	28
3.93600	28
3.93967	28
3.94333	28
3.94700	28
3.95067	28
3.95433	28
3.95800	28
3.96167	28
3.96533	28
3.96900	28
3.97267	28
3.97633	28
3.98000	28
3.98367	28
3.98733	28
3.99100	28
3.99467	28
3.99833	28

[Chromatogram (Ch3)]
Interval(msec)	220
# of Points	1091
Start Time(min)	0.002
End Time(min)	3.998
R.Time (min)	Intensity
0.00167	-0
0.00533	-2
0.00900	-4
0.01267	-3
0.01633	-2
0.02000	-1
0.02367	2
0.02733	2
0.03100	1
0.03467	-0
0.03833	-3
0.04200	-6
0.04567	-7
0.04933	-8
0.05300	-8
0.05667	-6
0.06033	-4
0.06400	-4
0.06767	-4
0.07133	-4
0.07500	-3
0.07867	-2
0.08233	-0
0.08600	1
0.08967	3
0.09333	3
0.09700	3
0.10067	4
0.10433	3
0.10800	1
0.11167	-2
0.11533	-4
0.11900	-4
0.12267	-3
0.12633	-2
0.13000	-0
0.13367	1
0.13733	2
0.14100	2
0.14467	1
0.14833	0
0.15200	-0
0.15567	1
0.15933	2
0.16300	3
0.16667	4
0.17033	3
0.17400	2
0.17767	2
0.18133	1
0.18500	2
0.18867	2
0.19233	3
0.19600	6
0.19967	7
0.20333	7
0.20700	7
0.21067	8
0.21433	9
0.21800	8
0.22167	7
0.22533	6
0.22900	4
0.23267	2
0.23633	3
0.24000	2
0.24367	1
0.24733	-1
0.25100	-2
0.25467	-2
0.25833	-1
0.26200	2
0.26567	5
0.26933	6
0.27300	5
0.27667	3
0.28033	1
0.28400	2
0.28767	4
0.29133	6
0.29500	5
0.29867	2
0.30233	1
0.30600	1
0.30967	3
0.31333	4
0.31700	5
0.32067	5
0.32433	5
0.32800	4
0.33167	3
0.33533	1
0.33900	-1
0.34267	-2
0.34633	-0
0.35000	2
0.35367	4
0.35733	3
0.36100	4
0.36467	4
0.36833	5
0.37200	5
0.37567	7
0.37933	7
0.38300	8
0.38667	9
0.39033	8
0.39400	7
0.39767	7
0.40133	8
0.40500	9
0.40867	10
0.41233	11
0.41600	11
0.41967	10
0.42333	11
0.42700	11
0.43067	11
0.43433	11
0.43800	12
0.44167	12
0.44533	12
0.44900	11
0.45267	9
0.45633	10
0.46000	10
0.46367	8
0.46733	9
0.47100	10
0.47467	11
0.47833	13
0.48200	14
0.48567	14
0.48933	12
0.49300	11
0.49667	11
0.50033	11
0.50400	10
0.50767	11
0.51133	13
0.51500	16
0.51867	18
0.52233	19
0.52600	20
0.52967	19
0.53333	18
0.53700	17
0.54067	15
0.54433	12
0.54800	10
0.55167	9
0.55533	9
0.55900	10
0.56267	10
0.56633	12
0.57000	13
0.57367	14
0.57733	14
0.58100	14
0.58467	13
0.58833	13
0.59200	11
0.59567	8
0.59933	7
0.60300	8
0.60667	8
0.61033	10
0.61400	10
0.61767	11
0.62133	12
0.62500	13
0.62867	13
0.63233	12
0.63600	12
0.63967	11
0.64333	10
0.64700	12
0.65067	12
0.65433	12
0.65800	12
0.66167	11
0.66533	11
0.66900	11
0.67267	12
0.67633	14
0.68000	15
0.68367	15
0.68733	16
0.69100	16
0.69467	16
0.69833	15
0.70200	16
0.70567	15
0.70933	15
0.71300	13
0.71667	12
0.72033	13
0.72400	15
0.72767	17
0.73133	16
0.73500	14
0.73867	12
0.74233	12
0.74600	12
0.74967	11
0.75333	11
0.75700	10
0.76067	10
0.76433	13
0.76800	14
0.77167	13
0.77533	15
0.77900	17
0.78267	16
0.78633	17
0.79000	18
0.79367	19
0.79733	18
0.80100	16
0.80467	15
0.80833	14
0.81200	14
0.81567	12
0.81933	13
0.82300	12
0.82667	12
0.83033	13
0.83400	13
0.83767	15
0.84133	17
0.84500	17
0.84867	16
0.85233	15
0.85600	14
0.85967	16
0.86333	21
0.86700	23
0.87067	24
0.87433	23
0.87800	21
0.88167	19
0.88533	19
0.88900	18
0.89267	16
0.89633	15
0.90000	14
0.90367	15
0.90733	16
0.91100	18
0.91467	20
0.91833	23
0.92200	24
0.92567	24
0.92933	23
0.93300	22
0.93667	18
0.94033	16
0.94400	17
0.94767	17
0.95133	17
0.95500	16
0.95867	16
0.96233	18
0.96600	19
0.96967	17
0.97333	15
0.97700	15
0.98067	18
0.98433	19
0.98800	17
0.99167	18
0.99533	20
0.99900	21
1.00267	21
1.00633	21
1.01000	21
1.01367	23
1.01733	22
1.02100	20
1.02467	18
1.02833	18
1.03200	18
1.03567	16
1.03933	15
1.04300	16
1.04667	16
1.05033	19
1.05400	20
1.05767	20
1.06133	19
1.06500	18
1.06867	17
1.07233	17
1.07600	18
1.07967	20
1.08333	19
1.08700	18
1.09067	15
1.09433	14
1.09800	16
1.10167	19
1.10533	21
1.10900	19
1.11267	17
1.11633	15
1.12000	15
1.12367	15
1.12733	16
1.13100	18
1.13467	20
1.13833	21
1.14200	19
1.14567	19
1.14933	19
1.15300	20
1.15667	20
1.16033	19
1.16400	17
1.16767	16
1.17133	16
1.17500	17
1.17867	19
1.18233	20
1.18600	19
1.18967	17
1.19333	14
1.19700	12
1.20067	12
1.20433	14
1.20800	17
1.21167	17
1.21533	18
1.21900	18
1.22267	19
1.22633	20
1.23000	19
1.23367	21
1.23733	23
1.24100	25
1.24467	25
1.24833	25
1.25200	26
1.25567	27
1.25933	27
1.26300	26
1.26667	23
1.27033	22
1.27400	24
1.27767	24
1.28133	24
1.28500	25
1.28867	26
1.29233	28
1.29600	26
1.29967	24
1.30333	23
1.30700	23
1.31067	23
1.31433	22
1.31800	21
1.32167	22
1.32533	21
1.32900	22
1.33267	22
1.33633	23
1.34000	23
1.34367	22
1.34733	20
1.35100	21
1.35467	23
1.35833	22
1.36200	20
1.36567	20
1.36933	20
1.37300	20
1.37667	21
1.38033	21
1.38400	20
1.38767	19
1.39133	18
1.39500	17
1.39867	17
1.40233	16
1.40600	17
1.40967	19
1.41333	21
1.41700	21
1.42067	22
1.42433	22
1.42800	22
1.43167	25
1.43533	26
1.43900	26
1.44267	25
1.44633	25
1.45000	23
1.45367	21
1.45733	19
1.46100	19
1.46467	18
1.46833	16
1.47200	16
1.47567	15
1.47933	14
1.48300	17
1.48667	19
1.49033	21
1.49400	22
1.49767	22
1.50133	21
1.50500	20
1.50867	17
1.51233	16
1.51600	16
1.51967	16
1.52333	15
1.52700	16
1.53067	19
1.53433	21
1.53800	23
1.54167	22
1.54533	20
1.54900	21
1.55267	23
1.55633	23
1.56000	22
1.56367	22
1.56733	23
1.57100	24
1.57467	23
1.57833	21
1.58200	21
1.58567	20
1.58933	19
1.59300	20
1.59667	20
1.60033	22
1.60400	22
1.60767	23
1.61133	24
1.61500	25
1.61867	24
1.62233	24
1.62600	25
1.62967	27
1.63333	28
1.63700	28
1.64067	28
1.64433	29
1.64800	29
1.65167	29
1.65533	28
1.65900	27
1.66267	29
1.66633	29
1.67000	29
1.67367	30
1.67733	30
1.68100	29
1.68467	29
1.68833	29
1.69200	29
1.69567	29
1.69933	29
1.70300	31
1.70667	33
1.71033	34
1.71400	35
1.71767	35
1.72133	35
1.72500	35
1.72867	34
1.73233	35
1.73600	37
1.73967	39
1.74333	41
1.74700	41
1.75067	43
1.75433	43
1.75800	42
1.76167	42
1.76533	42
1.76900	41
1.77267	40
1.77633	38
1.78000	37
1.78367	38
1.78733	39
1.79100	41
1.79467	43
1.79833	45
1.80200	45
1.80567	44
1.80933	44
1.81300	46
1.81667	49
1.82033	49
1.82400	50
1.82767	49
1.83133	51
1.83500	54
1.83867	54
1.84233	53
1.84600	53
1.84967	53
1.85333	55
1.85700	58
1.86067	60
1.86433	61
1.86800	59
1.87167	57
1.87533	57
1.87900	57
1.88267	60
1.88633	64
1.89000	68
1.89367	69
1.89733	67
1.90100	67
1.90467	67
1.90833	67
1.91200	66
1.91567	66
1.91933	67
1.92300	66
1.92667	66
1.93033	65
1.93400	63
1.93767	65
1.94133	68
1.94500	70
1.94867	69
1.95233	68
1.95600	67
1.95967	69
1.96333	70
1.96700	71
1.97067	72
1.97433	75
1.97800	78
1.98167	81
1.98533	84
1.98900	85
1.99267	84
1.99633	84
2.00000	83
2.00367	84
2.00733	85
2.01100	85
2.01467	85
2.01833	86
2.02200	86
2.02567	86
2.02933	86
2.03300	86
2.03667	87
2.04033	87
2.04400	89
2.04767	91
2.05133	94
2.05500	97
2.05867	99
2.06233	101
2.06600	101
2.06967	100
2.07333	101
2.07700	103
2.08067	103
2.08433	106
2.08800	108
2.09167	110
2.09533	112
2.09900	111
2.10267	112
2.10633	112
2.11000	110
2.11367	109
2.11733	110
2.12100	110
2.12467	109
2.12833	111
2.13200	114
2.13567	115
2.13933	116
2.14300	117
2.14667	115
2.15033	114
2.15400	114
2.15767	116
2.16133	116
2.16500	119
2.16867	123
2.17233	123
2.17600	124
2.17967	123
2.18333	123
2.18700	123
2.19067	124
2.19433	124
2.19800	127
2.20167	130
2.20533	132
2.20900	132
2.21267	131
2.21633	131
2.22000	132
2.22367	132
2.22733	134
2.23100	133
2.23467	130
2.23833	129
2.24200	129
2.24567	127
2.24933	129
2.25300	129
2.25667	130
2.26033	130
2.26400	132
2.26767	135
2.27133	136
2.27500	138
2.27867	136
2.28233	136
2.28600	136
2.28967	136
2.29333	136
2.29700	135
2.30067	135
2.30433	137
2.30800	140
2.31167	141
2.31533	141
2.31900	141
2.32267	141
2.32633	143
2.33000	146
2.33367	150
2.33733	150
2.34100	148
2.34467	146
2.34833	143
2.35200	142
2.35567	141
2.35933	140
2.36300	140
2.36667	139
2.37033	139
2.37400	140
2.37767	142
2.38133	143
2.38500	141
2.38867	137
2.39233	137
2.39600	138
2.39967	138
2.40333	140
2.40700	145
2.41067	148
2.41433	148
2.41800	148
2.42167	148
2.42533	147
2.42900	148
2.43267	148
2.43633	149
2.44000	152
2.44367	197
2.44733	289
2.45100	375
2.45467	437
2.45833	467
2.46200	464
2.46567	441
2.46933	415
2.47300	396
2.47667	378
2.48033	358
2.48400	333
2.48767	304
2.49133	276
2.49500	251
2.49867	232
2.50233	220
2.50600	214
2.50967	211
2.51333	210
2.51700	212
2.52067	217
2.52433	219
2.52800	220
2.53167	215
2.53533	206
2.53900	195
2.54267	180
2.54633	165
2.55000	151
2.55367	137
2.55733	129
2.56100	122
2.56467	115
2.56833	110
2.57200	107
2.57567	106
2.57933	105
2.58300	106
2.58667	107
2.59033	108
2.59400	113
2.59767	116
2.60133	119
2.60500	125
2.60867	131
2.61233	138
2.61600	142
2.61967	145
2.62333	146
2.62700	145
2.63067	142
2.63433	136
2.63800	127
2.64167	117
2.64533	108
2.64900	99
2.65267	89
2.65633	78
2.66000	68
2.66367	61
2.66733	55
2.67100	52
2.67467	48
2.67833	42
2.68200	38
2.68567	35
2.68933	34
2.69300	34
2.69667	34
2.70033	34
2.70400	34
2.70767	36
2.71133	37
2.71500	40
2.71867	40
2.72233	39
2.72600	40
2.72967	39
2.73333	39
2.73700	41
2.74067	44
2.74433	46
2.74800	47
2.75167	48
2.75533	52
2.75900	55
2.76267	56
2.76633	59
2.77000	61
2.77367	63
2.77733	63
2.78100	64
2.78467	66
2.78833	68
2.79200	69
2.79567	72
2.79933	76
2.80300	78
2.80667	81
2.81033	84
2.81400	91
2.81767	95
2.82133	97
2.82500	101
2.82867	105
2.83233	111
2.83600	125
2.83967	153
2.84333	210
2.84700	318
2.85067	493
2.85433	761
2.85800	1136
2.86167	1611
2.86533	2166
2.86900	2757
2.87267	3343
2.87633	3876
2.88000	4312
2.88367	4621
2.88733	4785
2.89100	4806
2.89467	4704
2.89833	4498
2.90200	4224
2.90567	3907
2.90933	3565
2.91300	3221
2.91667	2885
2.92033	2567
2.92400	2274
2.92767	2006
2.93133	1765
2.93500	1549
2.93867	1358
2.94233	1191
2.94600	1044
2.94967	916
2.95333	802
2.95700	702
2.96067	620
2.96433	547
2.96800	482
2.97167	427
2.97533	381
2.97900	341
2.98267	306
2.98633	276
2.99000	249
2.99367	225
2.99733	205
3.00100	188
3.00467	173
3.00833	162
3.01200	152
3.01567	138
3.01933	103
3.02300	58
3.02667	26
3.03033	6
3.03400	-1
3.03767	4
3.04133	21
3.04500	44
3.04867	69
3.05233	91
3.05600	108
3.05967	120
3.06333	130
3.06700	142
3.07067	155
3.07433	169
3.07800	184
3.08167	201
3.08533	222
3.08900	243
3.09267	262
3.09633	279
3.10000	294
3.10367	307
3.10733	317
3.11100	326
3.11467	336
3.11833	343
3.12200	352
3.12567	359
3.12933	364
3.13300	369
3.13667	372
3.14033	375
3.14400	377
3.14767	380
3.15133	385
3.15500	386
3.15867	388
3.16233	391
3.16600	393
3.16967	396
3.17333	399
3.17700	403
3.18067	407
3.18433	408
3.18800	408
3.19167	409
3.19533	411
3.19900	412
3.20267	412
3.20633	412
3.21000	411
3.21367	411
3.21733	414
3.22100	419
3.22467	423
3.22833	426
3.23200	427
3.23567	429
3.23933	431
3.24300	432
3.24667	432
3.25033	432
3.25400	434
3.25767	436
3.26133	441
3.26500	444
3.26867	446
3.27233	449
3.27600	451
3.27967	453
3.28333	454
3.28700	455
3.29067	456
3.29433	457
3.29800	458
3.30167	459
3.30533	459
3.30900	458
3.31267	458
3.31633	458
3.32000	459
3.32367	460
3.32733	461
3.33100	460
3.33467	458
3.33833	458
3.34200	458
3.34567	458
3.34933	457
3.35300	454
3.35667	454
3.36033	453
3.36400	452
3.36767	449
3.37133	446
3.37500	444
3.37867	442
3.38233	444
3.38600	445
3.38967	444
3.39333	443
3.39700	441
3.40067	439
3.40433	439
3.40800	438
3.41167	436
3.41533	434
3.41900	432
3.42267	430
3.42633	427
3.43000	425
3.43367	425
3.43733	424
3.44100	425
3.44467	424
3.44833	423
3.45200	423
3.45567	421
3.45933	420
3.46300	419
3.46667	419
3.47033	419
3.47400	416
3.47767	416
3.48133	415
3.48500	415
3.48867	415
3.49233	414
3.49600	413
3.49967	412
3.50333	411
3.50700	412
3.51067	414
3.51433	414
3.51800	412
3.52167	410
3.52533	410
3.52900	411
3.53267	408
3.53633	405
3.54000	403
3.54367	402
3.54733	402
3.55100	400
3.55467	398
3.55833	400
3.56200	403
3.56567	404
3.56933	404
3.57300	404
3.57667	403
3.58033	402
3.58400	400
3.58767	399
3.59133	397
3.59500	393
3.59867	390
3.60233	389
3.60600	387
3.60967	388
3.61333	389
3.61700	389
3.62067	388
3.62433	385
3.62800	385
3.63167	387
3.63533	386
3.63900	382
3.64267	378
3.64633	377
3.65000	377
3.65367	378
3.65733	380
3.66100	381
3.66467	380
3.66833	376
3.67200	372
3.67567	369
3.67933	369
3.68300	367
3.68667	365
3.69033	363
3.69400	363
3.69767	361
3.70133	360
3.70500	363
3.70867	365
3.71233	364
3.71600	363
3.71967	360
3.72333	357
3.72700	356
3.73067	356
3.73433	355
3.73800	354
3.74167	351
3.74533	348
3.74900	348
3.75267	348
3.75633	349
3.76000	348
3.76367	348
3.76733	346
3.77100	346
3.77467	343
3.77833	341
3.78200	339
3.78567	338
3.78933	338
3.79300	336
3.79667	335
3.80033	332
3.80400	331
3.80767	329
3.81133	328
3.81500	324
3.81867	321
3.82233	321
3.82600	320
3.82967	318
3.83333	319
3.83700	318
3.84067	315
3.84433	311
3.84800	306
3.85167	304
3.85533	304
3.85900	306
3.86267	307
3.86633	308
3.87000	305
3.87367	302
3.87733	298
3.88100	294
3.88467	292
3.88833	291
3.89200	290
3.89567	288
3.89933	286
3.90300	285
3.90667	283
3.91033	285
3.91400	287
3.91767	284
3.92133	282
3.92500	280
3.92867	279
3.93233	279
3.93600	276
3.93967	275
3.94333	273
3.94700	271
3.95067	267
3.95433	266
3.95800	265
3.96167	264
3.96533	265
3.96900	265
3.97267	263
3.97633	260
3.98000	257
3.98367	255
3.98733	255
3.99100	256
3.99467	255
3.99833	253

[Status Trace (Column Oven Temperature)]
Interval(msec)	1000
# of Points	240
Start Time(min)	0.013
End Time(min)	3.996
Intensity Units	
Intensity Multiplier	1
R.Time (min)	Intensity
0.01282	35.04
0.02948	35.04
0.04615	35.04
0.06282	35.03
0.07948	35.03
0.09615	35.01
0.11282	35.02
0.12948	35.02
0.14615	35.03
0.16282	35.03
0.17948	35.02
0.19615	35.02
0.21282	35.03
0.22948	35.03
0.24615	35.02
0.26282	35.03
0.27948	35.02
0.29615	35.03
0.31282	35.03
0.32948	35.03
0.34615	35.03
0.36282	35.02
0.37948	35.02
0.39615	35.02
0.41282	35.02
0.42948	35.02
0.44615	35.01
0.46282	35.02
0.47948	35.02
0.49615	35.02
0.51282	35.03
0.52948	35.03
0.54615	35.02
0.56282	35.02
0.57948	35.01
0.59615	35.01
0.61282	35.02
0.62948	35.02
0.64615	35.02
0.66282	35.00
0.67948	35.00
0.69615	34.99
0.71282	34.99
0.72948	34.99
0.74615	35.00
0.76282	35.01
0.77948	35.03
0.79615	35.05
0.81282	35.06
0.82948	35.06
0.84615	35.06
0.86282	35.06
0.87948	35.06
0.89615	35.05
0.91282	35.03
0.92948	35.03
0.94615	35.01
0.96282	35.01
0.97948	35.00
0.99615	35.00
1.01282	35.00
1.02948	35.00
1.04615	34.99
1.06282	34.98
1.07948	34.98
1.09615	35.00
1.11282	35.00
1.12948	35.01
1.14615	35.03
1.16282	35.04
1.17948	35.05
1.19615	35.06
1.21282	35.06
1.22948	35.05
1.24615	35.03
1.26282	35.02
1.27948	35.01
1.29615	35.00
1.31282	34.98
1.32948	34.97
1.34615	34.97
1.36282	34.97
1.37948	34.97
1.39615	34.97
1.41282	34.97
1.42948	34.97
1.44615	34.99
1.46282	35.00
1.47948	35.00
1.49615	34.99
1.51282	35.00
1.52948	35.01
1.54615	35.01
1.56282	35.00
1.57948	35.00
1.59615	35.02
1.61282	35.08
1.62948	35.22
1.64615	35.42
1.66282	35.69
1.67948	36.05
1.69615	36.42
1.71282	36.75
1.72948	37.09
1.74615	37.42
1.76282	37.77
1.77948	38.09
1.79615	38.42
1.81282	38.76
1.82948	39.08
1.84615	39.40
1.86282	39.73
1.87948	40.06
1.89615	40.39
1.91282	40.72
1.92948	41.05
1.94615	41.38
1.96282	41.70
1.97948	42.01
1.99615	42.35
2.01282	42.67
2.02948	42.99
2.04615	43.31
2.06282	43.64
2.07948	43.96
2.09615	44.29
2.11282	44.61
2.12948	44.94
2.14615	45.26
2.16282	45.59
2.17948	45.91
2.19615	46.25
2.21282	46.59
2.22948	46.91
2.24615	47.24
2.26282	47.57
2.27948	47.89
2.29615	48.26
2.31282	48.58
2.32948	48.90
2.34615	49.24
2.36282	49.51
2.37948	49.64
2.39615	49.67
2.41282	49.67
2.42948	49.67
2.44615	49.68
2.46282	49.69
2.47948	49.70
2.49615	49.69
2.51282	49.72
2.52948	49.73
2.54615	49.74
2.56282	49.76
2.57948	49.79
2.59615	49.80
2.61282	49.81
2.62948	49.82
2.64615	49.82
2.66282	49.84
2.67948	49.85
2.69615	49.85
2.71282	49.85
2.72948	49.86
2.74615	49.86
2.76282	49.85
2.77948	49.84
2.79615	49.87
2.81282	49.89
2.82948	49.90
2.84615	49.90
2.86282	49.89
2.87948	49.89
2.89615	49.88
2.91282	49.88
2.92948	49.89
2.94615	49.91
2.96282	49.93
2.97948	49.95
2.99615	49.96
3.01282	49.98
3.02948	49.99
3.04615	50.00
3.06282	50.01
3.07948	50.02
3.09615	50.03
3.11282	50.04
3.12948	50.03
3.14615	50.04
3.16282	50.05
3.17948	50.06
3.19615	50.06
3.21282	50.05
3.22948	50.05
3.24615	50.05
3.26282	50.05
3.27948	50.05
3.29615	50.06
3.31282	50.06
3.32948	50.06
3.34615	50.08
3.36282	50.09
3.37948	50.09
3.39615	50.09
3.41282	50.09
3.42948	50.10
3.44615	50.10
3.46282	50.10
3.47948	50.10
3.49615	50.09
3.51282	50.09
3.52948	50.08
3.54615	50.09
3.56282	50.10
3.57948	50.11
3.59615	50.11
3.61282	50.09
3.62948	50.07
3.64615	50.06
3.66282	50.04
3.67948	50.04
3.69615	50.03
3.71282	50.03
3.72948	50.04
3.74615	50.04
3.76282	50.04
3.77948	50.05
3.79615	50.05
3.81282	50.04
3.82948	50.04
3.84615	50.04
3.86282	50.03
3.87948	50.03
3.89615	50.03
3.91282	50.02
3.92948	50.02
3.94615	50.02
3.96282	50.02
3.97948	50.02
3.99615	50.01

[Status Trace (Injection Unit Temperature)]
Interval(msec)	1000
# of Points	240
Start Time(min)	0.013
End Time(min)	3.996
Intensity Units	
Intensity Multiplier	1
R.Time (min)	Intensity
0.01282	99.98
0.02948	99.98
0.04615	99.97
0.06282	99.98
0.07948	99.98
0.09615	99.97
0.11282	99.98
0.12948	99.98
0.14615	99.98
0.16282	99.98
0.17948	99.98
0.19615	99.98
0.21282	99.98
0.22948	99.98
0.24615	99.98
0.26282	99.98
0.27948	99.98
0.29615	99.98
0.31282	99.98
0.32948	99.98
0.34615	99.98
0.36282	99.98
0.37948	99.98
0.39615	99.99
0.41282	99.98
0.42948	99.98
0.44615	99.98
0.46282	99.98
0.47948	99.99
0.49615	99.98
0.51282	99.98
0.52948	99.98
0.54615	99.99
0.56282	99.99
0.57948	99.99
0.59615	99.99
0.61282	99.98
0.62948	99.99
0.64615	99.99
0.66282	99.99
0.67948	99.99
0.69615	99.98
0.71282	99.99
0.72948	99.99
0.74615	99.99
0.76282	99.99
0.77948	99.99
0.79615	99.99
0.81282	99.99
0.82948	99.99
0.84615	99.99
0.86282	99.99
0.87948	99.98
0.89615	99.99
0.91282	99.99
0.92948	99.99
0.94615	99.99
0.96282	99.99
0.97948	99.99
0.99615	99.99
1.01282	99.99
1.02948	99.99
1.04615	99.99
1.06282	99.99
1.07948	99.99
1.09615	99.99
1.11282	99.99
1.12948	99.99
1.14615	99.99
1.16282	99.99
1.17948	99.99
1.19615	99.99
1.21282	99.99
1.22948	99.99
1.24615	99.99
1.26282	99.99
1.27948	99.99
1.29615	99.99
1.31282	99.98
1.32948	99.99
1.34615	99.99
1.36282	99.99
1.37948	99.99
1.39615	99.99
1.41282	99.99
1.42948	99.99
1.44615	99.99
1.46282	99.99
1.47948	99.99
1.49615	99.99
1.51282	99.99
1.52948	99.99
1.54615	99.99
1.56282	99.99
1.57948	99.99
1.59615	99.99
1.61282	99.99
1.62948	99.98
1.64615	99.99
1.66282	99.99
1.67948	99.99
1.69615	99.98
1.71282	99.99
1.72948	99.99
1.74615	99.98
1.76282	99.98
1.77948	99.99
1.79615	99.99
1.81282	99.99
1.82948	99.99
1.84615	99.99
1.86282	99.99
1.87948	99.99
1.89615	99.98
1.91282	99.98
1.92948	99.98
1.94615	99.98
1.96282	99.98
1.97948	99.98
1.99615	99.98
2.01282	99.98
2.02948	99.97
2.04615	99.97
2.06282	99.97
2.07948	99.97
2.09615	99.97
2.11282	99.97
2.12948	99.97
2.14615	99.97
2.16282	99.97
2.17948	99.97
2.19615	99.97
2.21282	99.96
2.22948	99.97
2.24615	99.97
2.26282	99.97
2.27948	99.97
2.29615	99.97
2.31282	99.96
2.32948	99.96
2.34615	99.96
2.36282	99.96
2.37948	99.96
2.39615	99.96
2.41282	99.97
2.42948	99.96
2.44615	99.97
2.46282	99.96
2.47948	99.97
2.49615	99.97
2.51282	99.97
2.52948	99.97
2.54615	99.97
2.56282	99.97
2.57948	99.97
2.59615	99.97
2.61282	99.97
2.62948	99.97
2.64615	99.98
2.66282	99.98
2.67948	99.98
2.69615	99.98
2.71282	99.98
2.72948	99.98
2.74615	99.99
2.76282	99.99
2.77948	99.99
2.79615	99.99
2.81282	99.99
2.82948	99.99
2.84615	100.00
2.86282	100.00
2.87948	100.00
2.89615	100.00
2.91282	100.00
2.92948	100.01
2.94615	100.00
2.96282	100.01
2.97948	100.01
2.99615	100.01
3.01282	100.01
3.02948	100.02
3.04615	100.01
3.06282	100.02
3.07948	100.02
3.09615	100.02
3.11282	100.02
3.12948	100.02
3.14615	100.03
3.16282	100.03
3.17948	100.02
3.19615	100.03
3.21282	100.03
3.22948	100.03
3.24615	100.03
3.26282	100.03
3.27948	100.03
3.29615	100.04
3.31282	100.04
3.32948	100.03
3.34615	100.04
3.36282	100.03
3.37948	100.04
3.39615	100.04
3.41282	100.04
3.42948	100.04
3.44615	100.04
3.46282	100.04
3.47948	100.04
3.49615	100.05
3.51282	100.04
3.52948	100.04
3.54615	100.05
3.56282	100.05
3.57948	100.05
3.59615	100.04
3.61282	100.04
3.62948	100.05
3.64615	100.05
3.66282	100.05
3.67948	100.05
3.69615	100.05
3.71282	100.04
3.72948	100.05
3.74615	100.05
3.76282	100.05
3.77948	100.05
3.79615	100.05
3.81282	100.05
3.82948	100.05
3.84615	100.05
3.86282	100.05
3.87948	100.05
3.89615	100.05
3.91282	100.05
3.92948	100.05
3.94615	100.06
3.96282	100.05
3.97948	100.05
3.99615	100.05

[Status Trace (Carrier Gas Pressure)]
Interval(msec)	1000
# of Points	240
Start Time(min)	0.013
End Time(min)	3.996
Intensity Units	
Intensity Multiplier	1
R.Time (min)	Intensity
0.01282	57.96
0.02948	55.22
0.04615	57.79
0.06282	59.80
0.07948	58.69
0.09615	57.99
0.11282	58.00
0.12948	58.01
0.14615	58.01
0.16282	58.00
0.17948	58.00
0.19615	58.00
0.21282	58.00
0.22948	58.00
0.24615	58.00
0.26282	58.00
0.27948	58.00
0.29615	58.00
0.31282	58.00
0.32948	58.00
0.34615	58.00
0.36282	58.00
0.37948	58.00
0.39615	58.00
0.41282	58.00
0.42948	58.00
0.44615	58.00
0.46282	58.00
0.47948	58.00
0.49615	58.00
0.51282	58.00
0.52948	58.00
0.54615	58.00
0.56282	58.00
0.57948	58.00
0.59615	58.00
0.61282	58.00
0.62948	58.00
0.64615	58.00
0.66282	58.00
0.67948	58.00
0.69615	58.00
0.71282	58.00
0.72948	58.00
0.74615	58.00
0.76282	58.00
0.77948	58.00
0.79615	58.00
0.81282	58.00
0.82948	58.00
0.84615	58.00
0.86282	58.00
0.87948	58.00
0.89615	58.00
0.91282	58.00
0.92948	58.00
0.94615	58.00
0.96282	58.00
0.97948	58.00
0.99615	58.00
1.01282	58.00
1.02948	58.00
1.04615	58.00
1.06282	58.00
1.07948	58.00
1.09615	58.00
1.11282	58.00
1.12948	58.00
1.14615	58.00
1.16282	58.00
1.17948	58.00
1.19615	58.00
1.21282	58.00
1.22948	58.00
1.24615	58.00
1.26282	58.00
1.27948	58.00
1.29615	58.00
1.31282	58.00
1.32948	58.00
1.34615	58.00
1.36282	58.00
1.37948	58.00
1.39615	58.00
1.41282	58.00
1.42948	58.00
1.44615	58.00
1.46282	58.00
1.47948	58.00
1.49615	58.00
1.51282	58.00
1.52948	58.00
1.54615	58.00
1.56282	58.00
1.57948	58.00
1.59615	58.00
1.61282	58.00
1.62948	58.00
1.64615	58.00
1.66282	58.01
1.67948	58.01
1.69615	58.00
1.71282	58.00
1.72948	58.00
1.74615	58.00
1.76282	58.00
1.77948	58.00
1.79615	58.00
1.81282	58.00
1.82948	58.00
1.84615	58.00
1.86282	58.00
1.87948	58.00
1.89615	58.00
1.91282	58.00
1.92948	58.00
1.94615	58.00
1.96282	58.00
1.97948	58.00
1.99615	58.00
2.01282	58.00
2.02948	58.00
2.04615	58.00
2.06282	58.00
2.07948	58.00
2.09615	58.00
2.11282	58.00
2.12948	58.00
2.14615	58.00
2.16282	58.00
2.17948	58.00
2.19615	58.00
2.21282	58.00
2.22948	58.00
2.24615	58.00
2.26282	58.00
2.27948	58.00
2.29615	58.00
2.31282	58.00
2.32948	58.00
2.34615	58.00
2.36282	58.00
2.37948	57.99
2.39615	57.99
2.41282	58.00
2.42948	58.00
2.44615	58.00
2.46282	58.00
2.47948	58.00
2.49615	58.00
2.51282	57.99
2.52948	57.99
2.54615	58.00
2.56282	58.00
2.57948	58.00
2.59615	58.00
2.61282	58.00
2.62948	58.00
2.64615	58.00
2.66282	58.00
2.67948	58.00
2.69615	58.00
2.71282	58.00
2.72948	58.00
2.74615	58.00
2.76282	58.00
2.77948	58.00
2.79615	58.00
2.81282	58.00
2.82948	58.00
2.84615	58.00
2.86282	58.00
2.87948	58.00
2.89615	58.00
2.91282	58.00
2.92948	58.00
2.94615	58.00
2.96282	58.00
2.97948	58.00
2.99615	58.00
3.01282	58.00
3.02948	58.00
3.04615	58.00
3.06282	58.00
3.07948	58.00
3.09615	58.00
3.11282	58.00
3.12948	58.00
3.14615	58.00
3.16282	58.00
3.17948	58.00
3.19615	58.00
3.21282	58.00
3.22948	58.00
3.24615	58.00
3.26282	58.00
3.27948	58.00
3.29615	58.00
3.31282	58.00
3.32948	58.00
3.34615	58.00
3.36282	58.00
3.37948	58.00
3.39615	58.00
3.41282	58.00
3.42948	58.00
3.44615	58.00
3.46282	58.00
3.47948	58.00
3.49615	58.00
3.51282	58.00
3.52948	58.00
3.54615	58.00
3.56282	58.00
3.57948	58.00
3.59615	58.00
3.61282	58.00
3.62948	58.00
3.64615	58.00
3.66282	58.00
3.67948	58.00
3.69615	58.00
3.71282	58.00
3.72948	58.00
3.74615	58.00
3.76282	58.00
3.77948	58.00
3.79615	58.00
3.81282	58.00
3.82948	58.00
3.84615	58.00
3.86282	58.00
3.87948	58.00
3.89615	58.00
3.91282	58.00
3.92948	58.00
3.94615	58.00
3.96282	58.00
3.97948	58.00
3.99615	58.00

[Status Trace (Carrier Gas Flow)]
Interval(msec)	1000
# of Points	240
Start Time(min)	0.013
End Time(min)	3.996
Intensity Units	
Intensity Multiplier	1
R.Time (min)	Intensity
0.01282	34.66
0.02948	34.53
0.04615	34.55
0.06282	34.52
0.07948	34.51
0.09615	34.52
0.11282	34.52
0.12948	34.52
0.14615	34.52
0.16282	34.52
0.17948	34.52
0.19615	34.52
0.21282	34.52
0.22948	34.53
0.24615	34.52
0.26282	34.51
0.27948	34.52
0.29615	34.52
0.31282	34.52
0.32948	34.52
0.34615	34.52
0.36282	34.52
0.37948	34.52
0.39615	34.52
0.41282	34.52
0.42948	34.52
0.44615	34.52
0.46282	34.52
0.47948	34.53
0.49615	34.52
0.51282	34.52
0.52948	34.52
0.54615	34.52
0.56282	34.52
0.57948	34.52
0.59615	34.52
0.61282	34.52
0.62948	34.52
0.64615	34.53
0.66282	34.52
0.67948	34.52
0.69615	34.52
0.71282	34.52
0.72948	34.52
0.74615	34.51
0.76282	34.52
0.77948	34.53
0.79615	34.52
0.81282	34.52
0.82948	34.51
0.84615	34.52
0.86282	34.52
0.87948	34.52
0.89615	34.52
0.91282	34.52
0.92948	34.52
0.94615	34.52
0.96282	34.52
0.97948	34.52
0.99615	34.51
1.01282	34.52
1.02948	34.52
1.04615	34.52
1.06282	34.52
1.07948	34.52
1.09615	34.52
1.11282	34.52
1.12948	34.52
1.14615	34.52
1.16282	34.52
1.17948	34.52
1.19615	34.51
1.21282	34.52
1.22948	34.52
1.24615	34.52
1.26282	34.52
1.27948	34.52
1.29615	34.52
1.31282	34.51
1.32948	34.52
1.34615	34.52
1.36282	34.52
1.37948	34.52
1.39615	34.52
1.41282	34.52
1.42948	34.52
1.44615	34.52
1.46282	34.52
1.47948	34.52
1.49615	34.51
1.51282	34.52
1.52948	34.52
1.54615	34.51
1.56282	34.52
1.57948	34.52
1.59615	34.52
1.61282	34.52
1.62948	34.52
1.64615	34.52
1.66282	34.52
1.67948	34.51
1.69615	34.51
1.71282	34.52
1.72948	34.52
1.74615	34.51
1.76282	34.51
1.77948	34.52
1.79615	34.52
1.81282	34.52
1.82948	34.51
1.84615	34.52
1.86282	34.52
1.87948	34.51
1.89615	34.52
1.91282	34.52
1.92948	34.52
1.94615	34.52
1.96282	34.52
1.97948	34.52
1.99615	34.52
2.01282	34.51
2.02948	34.52
2.04615	34.52
2.06282	34.52
2.07948	34.51
2.09615	34.52
2.11282	34.53
2.12948	34.52
2.14615	34.52
2.16282	34.52
2.17948	34.52
2.19615	34.52
2.21282	34.52
2.22948	34.52
2.24615	34.51
2.26282	34.51
2.27948	34.52
2.29615	34.53
2.31282	34.52
2.32948	34.52
2.34615	34.52
2.36282	34.53
2.37948	34.51
2.39615	34.51
2.41282	34.52
2.42948	34.52
2.44615	34.51
2.46282	34.52
2.47948	34.52
2.49615	34.52
2.51282	34.52
2.52948	34.52
2.54615	34.52
2.56282	34.52
2.57948	34.51
2.59615	34.52
2.61282	34.52
2.62948	34.52
2.64615	34.52
2.66282	34.52
2.67948	34.52
2.69615	34.52
2.71282	34.52
2.72948	34.52
2.74615	34.52
2.76282	34.52
2.77948	34.52
2.79615	34.52
2.81282	34.52
2.82948	34.52
2.84615	34.52
2.86282	34.52
2.87948	34.52
2.89615	34.52
2.91282	34.53
2.92948	34.52
2.94615	34.52
2.96282	34.52
2.97948	34.52
2.99615	34.52
3.01282	34.52
3.02948	34.52
3.04615	34.52
3.06282	34.52
3.07948	34.52
3.09615	34.52
3.11282	34.51
3.12948	34.52
3.14615	34.52
3.16282	34.52
3.17948	34.52
3.19615	34.52
3.21282	34.52
3.22948	34.51
3.24615	34.52
3.26282	34.52
3.27948	34.52
3.29615	34.51
3.31282	34.52
3.32948	34.52
3.34615	34.52
3.36282	34.52
3.37948	34.52
3.39615	34.52
3.41282	34.52
3.42948	34.52
3.44615	34.52
3.46282	34.52
3.47948	34.52
3.49615	34.52
3.51282	34.52
3.52948	34.52
3.54615	34.52
3.56282	34.52
3.57948	34.52
3.59615	34.52
3.61282	34.52
3.62948	34.52
3.64615	34.52
3.66282	34.52
3.67948	34.52
3.69615	34.52
3.71282	34.52
3.72948	34.52
3.74615	34.52
3.76282	34.51
3.77948	34.52
3.79615	34.52
3.81282	34.52
3.82948	34.52
3.84615	34.52
3.86282	34.52
3.87948	34.52
3.89615	34.52
3.91282	34.52
3.92948	34.52
3.94615	34.52
3.96282	34.51
3.97948	34.52
3.99615	34.52

[Status Trace (Column Flow)]
Interval(msec)	1000
# of Points	240
Start Time(min)	0.013
End Time(min)	3.996
Intensity Units	
Intensity Multiplier	1
R.Time (min)	Intensity
0.01282	5.53
0.02948	5.21
0.04615	5.51
0.06282	5.74
0.07948	5.61
0.09615	5.53
0.11282	5.53
0.12948	5.53
0.14615	5.53
0.16282	5.53
0.17948	5.53
0.19615	5.53
0.21282	5.53
0.22948	5.53
0.24615	5.53
0.26282	5.53
0.27948	5.53
0.29615	5.53
0.31282	5.53
0.32948	5.53
0.34615	5.53
0.36282	5.53
0.37948	5.53
0.39615	5.53
0.41282	5.53
0.42948	5.53
0.44615	5.53
0.46282	5.53
0.47948	5.53
0.49615	5.53
0.51282	5.53
0.52948	5.53
0.54615	5.53
0.56282	5.53
0.57948	5.53
0.59615	5.53
0.61282	5.53
0.62948	5.53
0.64615	5.53
0.66282	5.53
0.67948	5.53
0.69615	5.53
0.71282	5.53
0.72948	5.53
0.74615	5.53
0.76282	5.53
0.77948	5.53
0.79615	5.53
0.81282	5.53
0.82948	5.53
0.84615	5.53
0.86282	5.53
0.87948	5.53
0.89615	5.53
0.91282	5.53
0.92948	5.53
0.94615	5.53
0.96282	5.53
0.97948	5.53
0.99615	5.53
1.01282	5.53
1.02948	5.53
1.04615	5.53
1.06282	5.53
1.07948	5.53
1.09615	5.53
1.11282	5.53
1.12948	5.53
1.14615	5.53
1.16282	5.53
1.17948	5.53
1.19615	5.53
1.21282	5.53
1.22948	5.53
1.24615	5.53
1.26282	5.53
1.27948	5.53
1.29615	5.53
1.31282	5.53
1.32948	5.53
1.34615	5.53
1.36282	5.53
1.37948	5.53
1.39615	5.53
1.41282	5.53
1.42948	5.53
1.44615	5.53
1.46282	5.53
1.47948	5.53
1.49615	5.53
1.51282	5.53
1.52948	5.53
1.54615	5.53
1.56282	5.53
1.57948	5.53
1.59615	5.53
1.61282	5.53
1.62948	5.52
1.64615	5.52
1.66282	5.51
1.67948	5.50
1.69615	5.49
1.71282	5.48
1.72948	5.47
1.74615	5.46
1.76282	5.44
1.77948	5.43
1.79615	5.42
1.81282	5.41
1.82948	5.40
1.84615	5.39
1.86282	5.38
1.87948	5.37
1.89615	5.36
1.91282	5.35
1.92948	5.34
1.94615	5.33
1.96282	5.33
1.97948	5.32
1.99615	5.31
2.01282	5.30
2.02948	5.29
2.04615	5.28
2.06282	5.27
2.07948	5.26
2.09615	5.25
2.11282	5.24
2.12948	5.23
2.14615	5.22
2.16282	5.21
2.17948	5.20
2.19615	5.19
2.21282	5.18
2.22948	5.17
2.24615	5.16
2.26282	5.16
2.27948	5.15
2.29615	5.14
2.31282	5.13
2.32948	5.12
2.34615	5.11
2.36282	5.10
2.37948	5.10
2.39615	5.10
2.41282	5.10
2.42948	5.10
2.44615	5.10
2.46282	5.10
2.47948	5.10
2.49615	5.10
2.51282	5.09
2.52948	5.09
2.54615	5.09
2.56282	5.09
2.57948	5.09
2.59615	5.09
2.61282	5.09
2.62948	5.09
2.64615	5.09
2.66282	5.09
2.67948	5.09
2.69615	5.09
2.71282	5.09
2.72948	5.09
2.74615	5.09
2.76282	5.09
2.77948	5.09
2.79615	5.09
2.81282	5.09
2.82948	5.09
2.84615	5.09
2.86282	5.09
2.87948	5.09
2.89615	5.09
2.91282	5.09
2.92948	5.09
2.94615	5.09
2.96282	5.09
2.97948	5.09
2.99615	5.09
3.01282	5.09
3.02948	5.09
3.04615	5.09
3.06282	5.09
3.07948	5.09
3.09615	5.09
3.11282	5.09
3.12948	5.09
3.14615	5.09
3.16282	5.09
3.17948	5.09
3.19615	5.09
3.21282	5.09
3.22948	5.09
3.24615	5.09
3.26282	5.09
3.27948	5.09
3.29615	5.09
3.31282	5.09
3.32948	5.09
3.34615	5.09
3.36282	5.08
3.37948	5.08
3.39615	5.08
3.41282	5.08
3.42948	5.08
3.44615	5.08
3.46282	5.08
3.47948	5.08
3.49615	5.08
3.51282	5.08
3.52948	5.08
3.54615	5.08
3.56282	5.08
3.57948	5.08
3.59615	5.08
3.61282	5.08
3.62948	5.08
3.64615	5.09
3.66282	5.09
3.67948	5.09
3.69615	5.09
3.71282	5.09
3.72948	5.09
3.74615	5.09
3.76282	5.09
3.77948	5.09
3.79615	5.09
3.81282	5.09
3.82948	5.09
3.84615	5.09
3.86282	5.09
3.87948	5.09
3.89615	5.09
3.91282	5.09
3.92948	5.09
3.94615	5.09
3.96282	5.09
3.97948	5.09
3.99615	5.09

[Status Trace (Linear Velocity)]
Interval(msec)	1000
# of Points	240
Start Time(min)	0.013
End Time(min)	3.996
Intensity Units	
Intensity Multiplier	1
R.Time (min)	Intensity
0.01282	38.99
0.02948	37.19
0.04615	38.88
0.06282	40.20
0.07948	39.47
0.09615	39.01
0.11282	39.01
0.12948	39.02
0.14615	39.02
0.16282	39.02
0.17948	39.02
0.19615	39.02
0.21282	39.02
0.22948	39.02
0.24615	39.02
0.26282	39.02
0.27948	39.02
0.29615	39.02
0.31282	39.02
0.32948	39.02
0.34615	39.02
0.36282	39.02
0.37948	39.02
0.39615	39.02
0.41282	39.02
0.42948	39.02
0.44615	39.02
0.46282	39.02
0.47948	39.02
0.49615	39.02
0.51282	39.02
0.52948	39.02
0.54615	39.02
0.56282	39.02
0.57948	39.02
0.59615	39.02
0.61282	39.02
0.62948	39.02
0.64615	39.02
0.66282	39.02
0.67948	39.02
0.69615	39.02
0.71282	39.02
0.72948	39.02
0.74615	39.02
0.76282	39.02
0.77948	39.02
0.79615	39.01
0.81282	39.01
0.82948	39.01
0.84615	39.01
0.86282	39.01
0.87948	39.01
0.89615	39.01
0.91282	39.02
0.92948	39.02
0.94615	39.02
0.96282	39.02
0.97948	39.02
0.99615	39.02
1.01282	39.02
1.02948	39.02
1.04615	39.02
1.06282	39.02
1.07948	39.02
1.09615	39.02
1.11282	39.02
1.12948	39.02
1.14615	39.02
1.16282	39.01
1.17948	39.01
1.19615	39.01
1.21282	39.01
1.22948	39.01
1.24615	39.02
1.26282	39.02
1.27948	39.02
1.29615	39.02
1.31282	39.02
1.32948	39.02
1.34615	39.02
1.36282	39.02
1.37948	39.02
1.39615	39.02
1.41282	39.02
1.42948	39.02
1.44615	39.02
1.46282	39.02
1.47948	39.02
1.49615	39.02
1.51282	39.02
1.52948	39.02
1.54615	39.02
1.56282	39.02
1.57948	39.02
1.59615	39.02
1.61282	39.01
1.62948	39.00
1.64615	38.98
1.66282	38.96
1.67948	38.92
1.69615	38.88
1.71282	38.85
1.72948	38.82
1.74615	38.79
1.76282	38.75
1.77948	38.72
1.79615	38.69
1.81282	38.66
1.82948	38.63
1.84615	38.60
1.86282	38.57
1.87948	38.54
1.89615	38.51
1.91282	38.48
1.92948	38.45
1.94615	38.42
1.96282	38.39
1.97948	38.36
1.99615	38.33
2.01282	38.30
2.02948	38.27
2.04615	38.24
2.06282	38.21
2.07948	38.18
2.09615	38.15
2.11282	38.12
2.12948	38.09
2.14615	38.06
2.16282	38.03
2.17948	38.00
2.19615	37.97
2.21282	37.94
2.22948	37.91
2.24615	37.88
2.26282	37.85
2.27948	37.82
2.29615	37.79
2.31282	37.76
2.32948	37.73
2.34615	37.70
2.36282	37.68
2.37948	37.66
2.39615	37.66
2.41282	37.66
2.42948	37.66
2.44615	37.66
2.46282	37.66
2.47948	37.66
2.49615	37.66
2.51282	37.66
2.52948	37.65
2.54615	37.66
2.56282	37.66
2.57948	37.65
2.59615	37.65
2.61282	37.65
2.62948	37.65
2.64615	37.65
2.66282	37.65
2.67948	37.65
2.69615	37.65
2.71282	37.65
2.72948	37.65
2.74615	37.65
2.76282	37.65
2.77948	37.65
2.79615	37.65
2.81282	37.64
2.82948	37.64
2.84615	37.64
2.86282	37.64
2.87948	37.64
2.89615	37.64
2.91282	37.65
2.92948	37.64
2.94615	37.64
2.96282	37.64
2.97948	37.64
2.99615	37.64
3.01282	37.64
3.02948	37.63
3.04615	37.63
3.06282	37.63
3.07948	37.63
3.09615	37.63
3.11282	37.63
3.12948	37.63
3.14615	37.63
3.16282	37.63
3.17948	37.63
3.19615	37.63
3.21282	37.63
3.22948	37.63
3.24615	37.63
3.26282	37.63
3.27948	37.63
3.29615	37.63
3.31282	37.63
3.32948	37.63
3.34615	37.63
3.36282	37.63
3.37948	37.63
3.39615	37.63
3.41282	37.63
3.42948	37.63
3.44615	37.63
3.46282	37.63
3.47948	37.63
3.49615	37.63
3.51282	37.63
3.52948	37.63
3.54615	37.63
3.56282	37.63
3.57948	37.62
3.59615	37.62
3.61282	37.63
3.62948	37.63
3.64615	37.63
3.66282	37.63
3.67948	37.63
3.69615	37.63
3.71282	37.63
3.72948	37.63
3.74615	37.63
3.76282	37.63
3.77948	37.63
3.79615	37.63
3.81282	37.63
3.82948	37.63
3.84615	37.63
3.86282	37.63
3.87948	37.63
3.89615	37.63
3.91282	37.63
3.92948	37.63
3.94615	37.63
3.96282	37.63
3.97948	37.63
3.99615	37.63

