[Header]
Application Name	LabSolutions
Version	5.110
Data File Name	C:\Users\User\Desktop\Junior\UIC Prairie Sampling\5.18.23\05182023_085.gcd
Output Date	6/5/2023
Output Time	2:17:30 PM

[File Information]
Type	Data File
Generated	5/24/2023 10:00:20 PM
Generated by	System Administrator
Modified	5/24/2023 10:07:29 PM
Modified by	System Administrator

[Sample Information]
Operator Name	System Administrator
Acquired	5/24/2023 10:03:29 PM
Sample Type	0:Unknown
Level	0
Sample Name	085
Sample ID	085
ISTD Amount1	1
ISTD Amount2	1
ISTD Amount3	1
ISTD Amount4	1
ISTD Amount5	1
ISTD Amount6	1
ISTD Amount7	1
ISTD Amount8	1
ISTD Amount9	1
ISTD Amount10	1
ISTD Amount11	1
ISTD Amount12	1
ISTD Amount13	1
ISTD Amount14	1
ISTD Amount15	1
ISTD Amount16	1
ISTD Amount17	1
ISTD Amount18	1
ISTD Amount19	1
ISTD Amount20	1
ISTD Amount21	1
ISTD Amount22	1
ISTD Amount23	1
ISTD Amount24	1
ISTD Amount25	1
ISTD Amount26	1
ISTD Amount27	1
ISTD Amount28	1
ISTD Amount29	1
ISTD Amount30	1
ISTD Amount31	1
ISTD Amount32	1
Sample Amount	1
Dilution Factor	1
Vial#	84
Injection Volume	1
Injection Count	1
Bar Code	

[Original Files]
Data File	C:\Users\User\Desktop\Junior\UIC Prairie Sampling\5.18.23\05182023_085.gcd
Method File	C:\LabSolutions\Data\GHG_4min_2022\ghg3_togas_w_acet_4 min_new_int.gcm
Batch File	C:\LabSolutions\Data\AutoSamplerTesting\05182023.gcb
Report Format File	c:\LabSolutions\System\DEFAULT.lsr

[File Description]


[Configuration]
Instrument Name	C0B7VH3-Instrument1
Instrument #	1
Line #	1
# of Detectors	3
Detector ID	DET#1	DET#2	DET#3
Detector Name	FID	PTCD	ECD
# of Channels	1	1	1

[Peak Table(Ch1)]
# of Peaks	3
Peak#	R.Time	I.Time	F.Time	Area	Height	A/H	Conc.	Mark	ID#	Name	k'	Plate #	Plate Ht.	Tailing	Resolution	Sep.Factor	Area Ratio	Height Ratio	Conc. %	Norm Conc.
1	1.472	1.428	1.531	5243	2523	2.078	0.000	   	1	CO	0.000	9529	15.741	1.255	0.000	0.000	0	0	0.000	0.000
2	1.564	1.531	1.619	4264	2192	1.945	20.788	 V 	2	CH4	0.062	11629	12.898	1.137	1.550	0.000	0	0	3.400	3.400
3	1.989	1.945	2.598	3064742	1463465	2.094	590.632	   	3	CO2	0.351	17227	8.707	1.312	7.172	5.640	0	0	96.600	96.600

[Peak Table(Ch2)]
# of Peaks	0

[Peak Table(Ch3)]
# of Peaks	5
Peak#	R.Time	I.Time	F.Time	Area	Height	A/H	Conc.	Mark	ID#	Name	k'	Plate #	Plate Ht.	Tailing	Resolution	Sep.Factor	Area Ratio	Height Ratio	Conc. %	Norm Conc.
1	2.458	2.440	2.510	854	339	2.522	0.000	   			0.000	16217	9.249	0.000	0.000	0.000	0	0	0.000	0.000
2	2.528	2.510	2.583	349	124	2.809	0.000	 V 			0.028	7599	19.739	0.000	0.721	0.000	0	0	0.000	0.000
3	2.605	2.583	2.616	89	65	1.371	0.000	 V 			0.060	42519	3.528	0.000	0.925	2.105	0	0	0.000	0.000
4	2.763	2.620	2.832	6461	621	10.397	0.096	   	1	N2O	0.124	693	216.574	0.000	0.670	2.075	0	0	15.228	15.228
5	2.891	2.832	3.958	35966	5090	7.066	0.532	 V 	1	N2O	0.176	11673	12.850	0.000	0.487	1.422	0	0	84.772	84.772

[Compound Results(Ch1)]
# of IDs	6
ID#	Name	R.Time	Area	Height	Conc.	Curve	3rd	2nd	1st	Constant	Area Ratio	Height Ratio	Conc. %	Norm Conc.
1	CO	1.472	5243	2523	0.000	Linear	0.000000e+00	0.000000e+00	0.000000e+00	0.000000e+00	0	0	0.000	0.000
2	CH4	1.564	4264	2192	20.788	Linear	0.000000e+00	0.000000e+00	2.051179e+002	0.000000e+00	0	0	3.400	3.400
3	CO2	1.989	3064742	1463465	590.632	Linear	0.000000e+00	0.000000e+00	5.188919e+003	0.000000e+00	0	0	96.600	96.600
4	Ethylene	0.000	0	0	0.000	Linear	0.000000e+00	0.000000e+00	0.000000e+00	0.000000e+00	0	0	0.000	0.000
5	Acetylene	0.000	0	0	0.000	Linear	0.000000e+00	0.000000e+00	0.000000e+00	0.000000e+00	0	0	0.000	0.000
6	Ethane	0.000	0	0	0.000	Linear	0.000000e+00	0.000000e+00	0.000000e+00	0.000000e+00	0	0	0.000	0.000

[Compound Results(Ch2)]
# of IDs	5
ID#	Name	R.Time	Area	Height	Conc.	Curve	3rd	2nd	1st	Constant	Area Ratio	Height Ratio	Conc. %	Norm Conc.
1	Hydrogen	0.000	0	0	0.000	Linear	0.000000e+00	0.000000e+00	0.000000e+00	0.000000e+00	0	0	0.000	0.000
2	Oxygen	0.000	0	0	0.000	Linear	0.000000e+00	0.000000e+00	0.000000e+00	0.000000e+00	0	0	0.000	0.000
3	Nitrogen	0.000	0	0	0.000	Linear	0.000000e+00	0.000000e+00	0.000000e+00	0.000000e+00	0	0	0.000	0.000
4	Methane	0.000	0	0	0.000	Linear	0.000000e+00	0.000000e+00	0.000000e+00	0.000000e+00	0	0	0.000	0.000
5	Carbon Monoxide	0.000	0	0	0.000	Linear	0.000000e+00	0.000000e+00	0.000000e+00	0.000000e+00	0	0	0.000	0.000

[Compound Results(Ch3)]
# of IDs	2
ID#	Name	R.Time	Area	Height	Conc.	Curve	3rd	2nd	1st	Constant	Area Ratio	Height Ratio	Conc. %	Norm Conc.
1	N2O	2.891	42426	5711	0.628	Linear	0.000000e+00	0.000000e+00	6.759880e+004	0.000000e+00	0	0	100.000	100.000
2	SF6	0.000	0	0	0.000	Linear	0.000000e+00	0.000000e+00	0.000000e+00	0.000000e+00	0	0	0.000	0.000

[Group Results(Ch1)]
# of Groups	0

[Group Results(Ch2)]
# of Groups	0

[Group Results(Ch3)]
# of Groups	0

[Chromatogram (Ch1)]
Interval(msec)	220
# of Points	1091
Start Time(min)	0.002
End Time(min)	3.998
R.Time (min)	Intensity
0.00167	-14
0.00533	-15
0.00900	-11
0.01267	-6
0.01633	1
0.02000	6
0.02367	10
0.02733	12
0.03100	14
0.03467	14
0.03833	12
0.04200	9
0.04567	7
0.04933	6
0.05300	4
0.05667	2
0.06033	-1
0.06400	-2
0.06767	-3
0.07133	-4
0.07500	-3
0.07867	1
0.08233	6
0.08600	10
0.08967	13
0.09333	10
0.09700	2
0.10067	-4
0.10433	-8
0.10800	-10
0.11167	-8
0.11533	-5
0.11900	0
0.12267	8
0.12633	13
0.13000	13
0.13367	11
0.13733	15
0.14100	19
0.14467	23
0.14833	26
0.15200	25
0.15567	19
0.15933	11
0.16300	3
0.16667	-3
0.17033	-7
0.17400	-8
0.17767	-7
0.18133	-3
0.18500	3
0.18867	11
0.19233	18
0.19600	23
0.19967	28
0.20333	32
0.20700	33
0.21067	29
0.21433	27
0.21800	27
0.22167	32
0.22533	39
0.22900	42
0.23267	38
0.23633	28
0.24000	16
0.24367	2
0.24733	-11
0.25100	-23
0.25467	-31
0.25833	-31
0.26200	-26
0.26567	-20
0.26933	-19
0.27300	-22
0.27667	-25
0.28033	-23
0.28400	-15
0.28767	-8
0.29133	-5
0.29500	-3
0.29867	0
0.30233	5
0.30600	10
0.30967	8
0.31333	0
0.31700	-3
0.32067	-3
0.32433	-1
0.32800	-1
0.33167	-2
0.33533	1
0.33900	8
0.34267	14
0.34633	13
0.35000	8
0.35367	4
0.35733	3
0.36100	3
0.36467	5
0.36833	7
0.37200	6
0.37567	8
0.37933	13
0.38300	18
0.38667	17
0.39033	12
0.39400	6
0.39767	3
0.40133	1
0.40500	0
0.40867	4
0.41233	8
0.41600	10
0.41967	10
0.42333	7
0.42700	6
0.43067	6
0.43433	3
0.43800	-2
0.44167	-9
0.44533	-15
0.44900	-16
0.45267	-14
0.45633	-9
0.46000	-3
0.46367	1
0.46733	1
0.47100	1
0.47467	2
0.47833	4
0.48200	5
0.48567	8
0.48933	12
0.49300	16
0.49667	21
0.50033	27
0.50400	31
0.50767	32
0.51133	33
0.51500	29
0.51867	22
0.52233	12
0.52600	5
0.52967	3
0.53333	5
0.53700	7
0.54067	8
0.54433	7
0.54800	1
0.55167	-6
0.55533	-14
0.55900	-22
0.56267	-29
0.56633	-30
0.57000	-24
0.57367	-16
0.57733	-11
0.58100	-4
0.58467	4
0.58833	8
0.59200	7
0.59567	3
0.59933	1
0.60300	3
0.60667	6
0.61033	10
0.61400	12
0.61767	9
0.62133	6
0.62500	2
0.62867	2
0.63233	7
0.63600	10
0.63967	10
0.64333	9
0.64700	6
0.65067	2
0.65433	2
0.65800	4
0.66167	7
0.66533	8
0.66900	6
0.67267	1
0.67633	-3
0.68000	-3
0.68367	2
0.68733	12
0.69100	17
0.69467	19
0.69833	17
0.70200	15
0.70567	14
0.70933	13
0.71300	12
0.71667	11
0.72033	12
0.72400	11
0.72767	3
0.73133	-13
0.73500	-29
0.73867	-37
0.74233	-35
0.74600	-26
0.74967	-18
0.75333	-10
0.75700	-2
0.76067	2
0.76433	1
0.76800	-2
0.77167	-11
0.77533	-25
0.77900	-36
0.78267	-41
0.78633	-39
0.79000	-35
0.79367	-32
0.79733	-30
0.80100	-29
0.80467	-29
0.80833	-32
0.81200	-34
0.81567	-33
0.81933	-29
0.82300	-20
0.82667	-13
0.83033	-8
0.83400	-4
0.83767	3
0.84133	14
0.84500	21
0.84867	19
0.85233	12
0.85600	1
0.85967	-6
0.86333	-11
0.86700	-13
0.87067	-12
0.87433	-11
0.87800	-12
0.88167	-13
0.88533	-11
0.88900	-9
0.89267	-9
0.89633	-9
0.90000	-7
0.90367	-4
0.90733	-1
0.91100	5
0.91467	12
0.91833	14
0.92200	11
0.92567	6
0.92933	-2
0.93300	-8
0.93667	-16
0.94033	-23
0.94400	-29
0.94767	-32
0.95133	-35
0.95500	-33
0.95867	-28
0.96233	-23
0.96600	-20
0.96967	-17
0.97333	-12
0.97700	-4
0.98067	1
0.98433	4
0.98800	3
0.99167	-0
0.99533	-6
0.99900	-12
1.00267	-13
1.00633	-12
1.01000	-12
1.01367	-15
1.01733	-16
1.02100	-16
1.02467	-17
1.02833	-16
1.03200	-15
1.03567	-16
1.03933	-19
1.04300	-20
1.04667	-17
1.05033	-14
1.05400	-11
1.05767	-10
1.06133	-12
1.06500	-17
1.06867	-19
1.07233	-21
1.07600	-21
1.07967	-16
1.08333	-10
1.08700	-3
1.09067	4
1.09433	9
1.09800	10
1.10167	7
1.10533	4
1.10900	6
1.11267	6
1.11633	0
1.12000	-9
1.12367	-19
1.12733	-28
1.13100	-35
1.13467	-37
1.13833	-34
1.14200	-28
1.14567	-20
1.14933	-12
1.15300	-6
1.15667	1
1.16033	3
1.16400	1
1.16767	-2
1.17133	-1
1.17500	-2
1.17867	-10
1.18233	-22
1.18600	-30
1.18967	-36
1.19333	-37
1.19700	-31
1.20067	-30
1.20433	-30
1.20800	-26
1.21167	-21
1.21533	-17
1.21900	-13
1.22267	-9
1.22633	-6
1.23000	-3
1.23367	-5
1.23733	-11
1.24100	-18
1.24467	-25
1.24833	-27
1.25200	-27
1.25567	-27
1.25933	-25
1.26300	-26
1.26667	-25
1.27033	-22
1.27400	-17
1.27767	-14
1.28133	-17
1.28500	-23
1.28867	-25
1.29233	-24
1.29600	-18
1.29967	-11
1.30333	-6
1.30700	-7
1.31067	-12
1.31433	-19
1.31800	-25
1.32167	-28
1.32533	-31
1.32900	-35
1.33267	-38
1.33633	-39
1.34000	-35
1.34367	-29
1.34733	-26
1.35100	-24
1.35467	-21
1.35833	-17
1.36200	-12
1.36567	-7
1.36933	-8
1.37300	-13
1.37667	-19
1.38033	-26
1.38400	-26
1.38767	-25
1.39133	-26
1.39500	-29
1.39867	-37
1.40233	-45
1.40600	-51
1.40967	-55
1.41333	-56
1.41700	-54
1.42067	-51
1.42433	-48
1.42800	-44
1.43167	-35
1.43533	-16
1.43900	19
1.44267	59
1.44633	141
1.45000	378
1.45367	795
1.45733	1289
1.46100	1749
1.46467	2117
1.46833	2370
1.47200	2482
1.47567	2421
1.47933	2189
1.48300	1841
1.48667	1453
1.49033	1089
1.49400	783
1.49767	546
1.50133	376
1.50500	259
1.50867	176
1.51233	116
1.51600	72
1.51967	39
1.52333	14
1.52700	-1
1.53067	-4
1.53433	25
1.53800	135
1.54167	385
1.54533	767
1.54900	1200
1.55267	1596
1.55633	1905
1.56000	2101
1.56367	2158
1.56733	2048
1.57100	1786
1.57467	1435
1.57833	1075
1.58200	762
1.58567	516
1.58933	334
1.59300	205
1.59667	115
1.60033	57
1.60400	22
1.60767	0
1.61133	-13
1.61500	-22
1.61867	-31
1.62233	-35
1.62600	-34
1.62967	-33
1.63333	-32
1.63700	-27
1.64067	-25
1.64433	-24
1.64800	-23
1.65167	-28
1.65533	-36
1.65900	-45
1.66267	-52
1.66633	-54
1.67000	-57
1.67367	-61
1.67733	-60
1.68100	-57
1.68467	-55
1.68833	-53
1.69200	-53
1.69567	-53
1.69933	-52
1.70300	-51
1.70667	-51
1.71033	-52
1.71400	-52
1.71767	-47
1.72133	-44
1.72500	-40
1.72867	-37
1.73233	-40
1.73600	-42
1.73967	-40
1.74333	-38
1.74700	-36
1.75067	-36
1.75433	-38
1.75800	-44
1.76167	-49
1.76533	-51
1.76900	-54
1.77267	-55
1.77633	-54
1.78000	-53
1.78367	-48
1.78733	-42
1.79100	-39
1.79467	-37
1.79833	-39
1.80200	-41
1.80567	-44
1.80933	-43
1.81300	-39
1.81667	-36
1.82033	-38
1.82400	-47
1.82767	-57
1.83133	-65
1.83500	-70
1.83867	-73
1.84233	-76
1.84600	-76
1.84967	-72
1.85333	-66
1.85700	-65
1.86067	-64
1.86433	-60
1.86800	-53
1.87167	-45
1.87533	-42
1.87900	-45
1.88267	-49
1.88633	-51
1.89000	-50
1.89367	-47
1.89733	-46
1.90100	-45
1.90467	-44
1.90833	-40
1.91200	-36
1.91567	-34
1.91933	-32
1.92300	-32
1.92667	-32
1.93033	-31
1.93400	-27
1.93767	-25
1.94133	-24
1.94500	-7
1.94867	146
1.95233	1170
1.95600	6368
1.95967	26077
1.96333	82585
1.96700	205747
1.97067	411577
1.97433	681247
1.97800	967187
1.98167	1216524
1.98533	1389204
1.98900	1463489
1.99267	1434444
1.99633	1313717
2.00000	1128527
2.00367	914327
2.00733	704064
2.01100	520329
2.01467	373106
2.01833	262429
2.02200	182927
2.02567	127540
2.02933	89685
2.03300	64077
2.03667	46810
2.04033	35126
2.04400	27135
2.04767	21579
2.05133	17635
2.05500	14767
2.05867	12628
2.06233	10994
2.06600	9716
2.06967	8692
2.07333	7859
2.07700	7167
2.08067	6582
2.08433	6085
2.08800	5659
2.09167	5284
2.09533	4949
2.09900	4642
2.10267	4362
2.10633	4114
2.11000	3894
2.11367	3694
2.11733	3511
2.12100	3343
2.12467	3190
2.12833	3048
2.13200	2921
2.13567	2804
2.13933	2692
2.14300	2586
2.14667	2486
2.15033	2393
2.15400	2309
2.15767	2231
2.16133	2159
2.16500	2091
2.16867	2023
2.17233	1957
2.17600	1891
2.17967	1828
2.18333	1769
2.18700	1713
2.19067	1660
2.19433	1612
2.19800	1571
2.20167	1533
2.20533	1498
2.20900	1463
2.21267	1429
2.21633	1397
2.22000	1366
2.22367	1338
2.22733	1308
2.23100	1274
2.23467	1241
2.23833	1212
2.24200	1182
2.24567	1151
2.24933	1126
2.25300	1108
2.25667	1097
2.26033	1089
2.26400	1080
2.26767	1065
2.27133	1044
2.27500	1022
2.27867	1002
2.28233	988
2.28600	977
2.28967	965
2.29333	946
2.29700	923
2.30067	898
2.30433	874
2.30800	852
2.31167	833
2.31533	813
2.31900	791
2.32267	770
2.32633	757
2.33000	750
2.33367	748
2.33733	746
2.34100	742
2.34467	733
2.34833	724
2.35200	711
2.35567	702
2.35933	697
2.36300	692
2.36667	687
2.37033	689
2.37400	692
2.37767	690
2.38133	681
2.38500	665
2.38867	650
2.39233	638
2.39600	631
2.39967	627
2.40333	622
2.40700	615
2.41067	608
2.41433	606
2.41800	607
2.42167	610
2.42533	608
2.42900	602
2.43267	593
2.43633	585
2.44000	579
2.44367	572
2.44733	568
2.45100	565
2.45467	567
2.45833	569
2.46200	569
2.46567	564
2.46933	557
2.47300	552
2.47667	550
2.48033	547
2.48400	540
2.48767	531
2.49133	528
2.49500	527
2.49867	523
2.50233	518
2.50600	516
2.50967	513
2.51333	510
2.51700	507
2.52067	505
2.52433	507
2.52800	511
2.53167	515
2.53533	515
2.53900	511
2.54267	504
2.54633	499
2.55000	497
2.55367	498
2.55733	503
2.56100	502
2.56467	495
2.56833	487
2.57200	477
2.57567	468
2.57933	461
2.58300	458
2.58667	458
2.59033	458
2.59400	457
2.59767	455
2.60133	454
2.60500	455
2.60867	458
2.61233	459
2.61600	458
2.61967	455
2.62333	453
2.62700	455
2.63067	457
2.63433	458
2.63800	458
2.64167	453
2.64533	449
2.64900	447
2.65267	447
2.65633	448
2.66000	448
2.66367	448
2.66733	447
2.67100	448
2.67467	450
2.67833	452
2.68200	452
2.68567	452
2.68933	454
2.69300	457
2.69667	464
2.70033	467
2.70400	465
2.70767	462
2.71133	457
2.71500	452
2.71867	447
2.72233	442
2.72600	435
2.72967	428
2.73333	426
2.73700	424
2.74067	426
2.74433	429
2.74800	433
2.75167	438
2.75533	443
2.75900	447
2.76267	451
2.76633	452
2.77000	453
2.77367	459
2.77733	467
2.78100	470
2.78467	466
2.78833	461
2.79200	457
2.79567	457
2.79933	458
2.80300	459
2.80667	459
2.81033	459
2.81400	457
2.81767	453
2.82133	449
2.82500	449
2.82867	454
2.83233	458
2.83600	461
2.83967	463
2.84333	465
2.84700	468
2.85067	470
2.85433	473
2.85800	475
2.86167	475
2.86533	474
2.86900	473
2.87267	472
2.87633	471
2.88000	470
2.88367	469
2.88733	467
2.89100	466
2.89467	464
2.89833	457
2.90200	449
2.90567	447
2.90933	450
2.91300	454
2.91667	455
2.92033	454
2.92400	450
2.92767	446
2.93133	444
2.93500	446
2.93867	452
2.94233	455
2.94600	455
2.94967	456
2.95333	457
2.95700	460
2.96067	461
2.96433	457
2.96800	452
2.97167	447
2.97533	445
2.97900	447
2.98267	457
2.98633	469
2.99000	482
2.99367	488
2.99733	492
3.00100	495
3.00467	498
3.00833	498
3.01200	497
3.01567	496
3.01933	491
3.02300	486
3.02667	483
3.03033	481
3.03400	480
3.03767	477
3.04133	474
3.04500	473
3.04867	477
3.05233	483
3.05600	487
3.05967	489
3.06333	489
3.06700	490
3.07067	489
3.07433	485
3.07800	484
3.08167	488
3.08533	495
3.08900	501
3.09267	502
3.09633	496
3.10000	487
3.10367	479
3.10733	475
3.11100	475
3.11467	476
3.11833	476
3.12200	478
3.12567	484
3.12933	491
3.13300	497
3.13667	504
3.14033	510
3.14400	511
3.14767	506
3.15133	500
3.15500	495
3.15867	493
3.16233	493
3.16600	492
3.16967	494
3.17333	496
3.17700	496
3.18067	488
3.18433	480
3.18800	477
3.19167	478
3.19533	478
3.19900	477
3.20267	478
3.20633	484
3.21000	493
3.21367	503
3.21733	509
3.22100	506
3.22467	499
3.22833	501
3.23200	504
3.23567	502
3.23933	496
3.24300	490
3.24667	485
3.25033	482
3.25400	483
3.25767	486
3.26133	488
3.26500	488
3.26867	486
3.27233	484
3.27600	484
3.27967	483
3.28333	485
3.28700	487
3.29067	485
3.29433	482
3.29800	482
3.30167	486
3.30533	491
3.30900	495
3.31267	502
3.31633	513
3.32000	519
3.32367	519
3.32733	513
3.33100	503
3.33467	496
3.33833	493
3.34200	492
3.34567	496
3.34933	506
3.35300	517
3.35667	521
3.36033	521
3.36400	519
3.36767	517
3.37133	515
3.37500	509
3.37867	502
3.38233	500
3.38600	501
3.38967	498
3.39333	494
3.39700	491
3.40067	489
3.40433	491
3.40800	496
3.41167	498
3.41533	498
3.41900	498
3.42267	495
3.42633	493
3.43000	494
3.43367	498
3.43733	507
3.44100	514
3.44467	515
3.44833	514
3.45200	511
3.45567	507
3.45933	503
3.46300	503
3.46667	503
3.47033	501
3.47400	501
3.47767	502
3.48133	501
3.48500	497
3.48867	494
3.49233	494
3.49600	491
3.49967	486
3.50333	484
3.50700	481
3.51067	475
3.51433	473
3.51800	472
3.52167	472
3.52533	472
3.52900	472
3.53267	469
3.53633	463
3.54000	462
3.54367	466
3.54733	469
3.55100	471
3.55467	472
3.55833	472
3.56200	475
3.56567	477
3.56933	476
3.57300	474
3.57667	471
3.58033	470
3.58400	472
3.58767	473
3.59133	470
3.59500	469
3.59867	468
3.60233	470
3.60600	473
3.60967	476
3.61333	480
3.61700	483
3.62067	481
3.62433	476
3.62800	473
3.63167	472
3.63533	473
3.63900	477
3.64267	480
3.64633	482
3.65000	480
3.65367	479
3.65733	472
3.66100	464
3.66467	460
3.66833	460
3.67200	461
3.67567	458
3.67933	454
3.68300	451
3.68667	451
3.69033	455
3.69400	459
3.69767	463
3.70133	464
3.70500	464
3.70867	462
3.71233	459
3.71600	456
3.71967	453
3.72333	452
3.72700	450
3.73067	446
3.73433	441
3.73800	441
3.74167	446
3.74533	451
3.74900	451
3.75267	446
3.75633	443
3.76000	446
3.76367	448
3.76733	448
3.77100	450
3.77467	454
3.77833	457
3.78200	460
3.78567	461
3.78933	458
3.79300	451
3.79667	444
3.80033	439
3.80400	440
3.80767	446
3.81133	452
3.81500	455
3.81867	450
3.82233	440
3.82600	426
3.82967	416
3.83333	410
3.83700	410
3.84067	414
3.84433	420
3.84800	424
3.85167	429
3.85533	432
3.85900	433
3.86267	433
3.86633	434
3.87000	436
3.87367	437
3.87733	438
3.88100	437
3.88467	435
3.88833	430
3.89200	431
3.89567	435
3.89933	437
3.90300	437
3.90667	433
3.91033	427
3.91400	419
3.91767	415
3.92133	415
3.92500	419
3.92867	421
3.93233	420
3.93600	418
3.93967	416
3.94333	412
3.94700	409
3.95067	406
3.95433	401
3.95800	397
3.96167	393
3.96533	388
3.96900	386
3.97267	387
3.97633	393
3.98000	400
3.98367	409
3.98733	416
3.99100	417
3.99467	414
3.99833	410

[Chromatogram (Ch2)]
Interval(msec)	220
# of Points	1091
Start Time(min)	0.002
End Time(min)	3.998
R.Time (min)	Intensity
0.00167	1
0.00533	1
0.00900	1
0.01267	1
0.01633	1
0.02000	1
0.02367	1
0.02733	1
0.03100	1
0.03467	1
0.03833	1
0.04200	1
0.04567	2
0.04933	2
0.05300	2
0.05667	2
0.06033	2
0.06400	2
0.06767	2
0.07133	2
0.07500	2
0.07867	1
0.08233	1
0.08600	1
0.08967	0
0.09333	0
0.09700	0
0.10067	1
0.10433	1
0.10800	1
0.11167	1
0.11533	1
0.11900	1
0.12267	1
0.12633	1
0.13000	1
0.13367	1
0.13733	1
0.14100	2
0.14467	2
0.14833	1
0.15200	1
0.15567	1
0.15933	1
0.16300	1
0.16667	1
0.17033	1
0.17400	1
0.17767	1
0.18133	2
0.18500	2
0.18867	2
0.19233	1
0.19600	2
0.19967	2
0.20333	1
0.20700	1
0.21067	1
0.21433	0
0.21800	-0
0.22167	-0
0.22533	-1
0.22900	-1
0.23267	-1
0.23633	-1
0.24000	-1
0.24367	-1
0.24733	-1
0.25100	-2
0.25467	-2
0.25833	-2
0.26200	-2
0.26567	-2
0.26933	-1
0.27300	-1
0.27667	0
0.28033	1
0.28400	1
0.28767	2
0.29133	2
0.29500	3
0.29867	3
0.30233	3
0.30600	3
0.30967	3
0.31333	3
0.31700	3
0.32067	3
0.32433	3
0.32800	3
0.33167	2
0.33533	2
0.33900	2
0.34267	2
0.34633	2
0.35000	3
0.35367	3
0.35733	3
0.36100	3
0.36467	3
0.36833	3
0.37200	3
0.37567	3
0.37933	2
0.38300	2
0.38667	1
0.39033	1
0.39400	1
0.39767	0
0.40133	-0
0.40500	-0
0.40867	-0
0.41233	-1
0.41600	-1
0.41967	-1
0.42333	-2
0.42700	-2
0.43067	-3
0.43433	-3
0.43800	-4
0.44167	-4
0.44533	-4
0.44900	-4
0.45267	-3
0.45633	-3
0.46000	-2
0.46367	-2
0.46733	-1
0.47100	-1
0.47467	0
0.47833	1
0.48200	1
0.48567	1
0.48933	1
0.49300	1
0.49667	1
0.50033	2
0.50400	2
0.50767	2
0.51133	2
0.51500	2
0.51867	2
0.52233	2
0.52600	2
0.52967	3
0.53333	2
0.53700	2
0.54067	2
0.54433	2
0.54800	2
0.55167	2
0.55533	1
0.55900	1
0.56267	1
0.56633	1
0.57000	1
0.57367	1
0.57733	1
0.58100	1
0.58467	1
0.58833	1
0.59200	1
0.59567	1
0.59933	1
0.60300	1
0.60667	1
0.61033	1
0.61400	1
0.61767	1
0.62133	1
0.62500	0
0.62867	0
0.63233	1
0.63600	1
0.63967	1
0.64333	0
0.64700	0
0.65067	0
0.65433	-0
0.65800	-1
0.66167	-1
0.66533	-1
0.66900	-1
0.67267	-0
0.67633	-0
0.68000	-0
0.68367	-0
0.68733	-0
0.69100	-0
0.69467	-0
0.69833	0
0.70200	0
0.70567	0
0.70933	0
0.71300	0
0.71667	0
0.72033	0
0.72400	0
0.72767	1
0.73133	1
0.73500	1
0.73867	1
0.74233	1
0.74600	1
0.74967	1
0.75333	1
0.75700	1
0.76067	1
0.76433	1
0.76800	1
0.77167	1
0.77533	1
0.77900	1
0.78267	0
0.78633	0
0.79000	0
0.79367	-0
0.79733	-0
0.80100	-0
0.80467	-0
0.80833	-0
0.81200	-0
0.81567	-0
0.81933	-0
0.82300	-1
0.82667	-1
0.83033	-1
0.83400	-1
0.83767	-2
0.84133	-2
0.84500	-2
0.84867	-3
0.85233	-3
0.85600	-3
0.85967	-3
0.86333	-4
0.86700	-4
0.87067	-4
0.87433	-4
0.87800	-4
0.88167	-4
0.88533	-4
0.88900	-4
0.89267	-3
0.89633	-3
0.90000	-3
0.90367	-3
0.90733	-3
0.91100	-3
0.91467	-3
0.91833	-3
0.92200	-2
0.92567	-2
0.92933	-2
0.93300	-1
0.93667	-1
0.94033	-1
0.94400	-0
0.94767	-0
0.95133	0
0.95500	0
0.95867	0
0.96233	-0
0.96600	-0
0.96967	-1
0.97333	-1
0.97700	-1
0.98067	-1
0.98433	-1
0.98800	-2
0.99167	-2
0.99533	-2
0.99900	-3
1.00267	-3
1.00633	-3
1.01000	-3
1.01367	-3
1.01733	-3
1.02100	-3
1.02467	-3
1.02833	-3
1.03200	-3
1.03567	-3
1.03933	-3
1.04300	-2
1.04667	-2
1.05033	-2
1.05400	-2
1.05767	-2
1.06133	-2
1.06500	-2
1.06867	-2
1.07233	-2
1.07600	-1
1.07967	-1
1.08333	-1
1.08700	-1
1.09067	-0
1.09433	-0
1.09800	-0
1.10167	-1
1.10533	-1
1.10900	-1
1.11267	-1
1.11633	-1
1.12000	-1
1.12367	-1
1.12733	-1
1.13100	-1
1.13467	-0
1.13833	-0
1.14200	-0
1.14567	0
1.14933	0
1.15300	0
1.15667	-0
1.16033	-0
1.16400	-0
1.16767	-0
1.17133	-0
1.17500	-1
1.17867	-1
1.18233	-1
1.18600	-1
1.18967	-1
1.19333	-1
1.19700	-1
1.20067	-1
1.20433	-1
1.20800	-2
1.21167	-2
1.21533	-3
1.21900	-3
1.22267	-3
1.22633	-4
1.23000	-4
1.23367	-4
1.23733	-4
1.24100	-4
1.24467	-4
1.24833	-4
1.25200	-4
1.25567	-4
1.25933	-4
1.26300	-5
1.26667	-5
1.27033	-5
1.27400	-5
1.27767	-5
1.28133	-5
1.28500	-5
1.28867	-5
1.29233	-5
1.29600	-5
1.29967	-4
1.30333	-4
1.30700	-4
1.31067	-3
1.31433	-3
1.31800	-3
1.32167	-2
1.32533	-2
1.32900	-2
1.33267	-2
1.33633	-2
1.34000	-2
1.34367	-2
1.34733	-2
1.35100	-2
1.35467	-2
1.35833	-2
1.36200	-2
1.36567	-2
1.36933	-2
1.37300	-1
1.37667	-1
1.38033	-1
1.38400	-1
1.38767	-1
1.39133	-1
1.39500	-1
1.39867	-1
1.40233	-1
1.40600	-1
1.40967	-1
1.41333	-1
1.41700	-1
1.42067	-1
1.42433	-1
1.42800	-1
1.43167	-1
1.43533	-1
1.43900	-1
1.44267	-1
1.44633	-1
1.45000	-1
1.45367	-1
1.45733	-1
1.46100	-1
1.46467	-1
1.46833	-1
1.47200	-1
1.47567	-2
1.47933	-2
1.48300	-2
1.48667	-3
1.49033	-3
1.49400	-3
1.49767	-2
1.50133	-2
1.50500	-2
1.50867	-2
1.51233	-2
1.51600	-2
1.51967	-2
1.52333	-3
1.52700	-3
1.53067	-3
1.53433	-3
1.53800	-3
1.54167	-3
1.54533	-2
1.54900	-2
1.55267	-2
1.55633	-2
1.56000	-2
1.56367	-2
1.56733	-2
1.57100	-2
1.57467	-1
1.57833	-1
1.58200	-1
1.58567	-0
1.58933	-0
1.59300	-0
1.59667	-1
1.60033	-2
1.60400	-3
1.60767	-5
1.61133	-7
1.61500	-9
1.61867	-12
1.62233	-15
1.62600	-18
1.62967	-21
1.63333	-24
1.63700	-28
1.64067	-31
1.64433	-35
1.64800	-38
1.65167	-41
1.65533	-45
1.65900	-48
1.66267	-52
1.66633	-56
1.67000	-60
1.67367	-64
1.67733	-69
1.68100	-73
1.68467	-78
1.68833	-82
1.69200	-86
1.69567	-90
1.69933	-92
1.70300	-95
1.70667	-96
1.71033	-98
1.71400	-99
1.71767	-100
1.72133	-100
1.72500	-101
1.72867	-101
1.73233	-102
1.73600	-102
1.73967	-102
1.74333	-102
1.74700	-101
1.75067	-100
1.75433	-100
1.75800	-99
1.76167	-98
1.76533	-98
1.76900	-98
1.77267	-98
1.77633	-99
1.78000	-99
1.78367	-100
1.78733	-102
1.79100	-103
1.79467	-104
1.79833	-105
1.80200	-105
1.80567	-106
1.80933	-106
1.81300	-106
1.81667	-106
1.82033	-106
1.82400	-106
1.82767	-106
1.83133	-106
1.83500	-106
1.83867	-106
1.84233	-105
1.84600	-105
1.84967	-106
1.85333	-106
1.85700	-106
1.86067	-106
1.86433	-106
1.86800	-106
1.87167	-106
1.87533	-106
1.87900	-106
1.88267	-106
1.88633	-105
1.89000	-105
1.89367	-104
1.89733	-104
1.90100	-104
1.90467	-104
1.90833	-104
1.91200	-104
1.91567	-104
1.91933	-104
1.92300	-104
1.92667	-104
1.93033	-104
1.93400	-104
1.93767	-104
1.94133	-103
1.94500	-102
1.94867	-101
1.95233	-100
1.95600	-100
1.95967	-99
1.96333	-99
1.96700	-99
1.97067	-99
1.97433	-99
1.97800	-100
1.98167	-100
1.98533	-100
1.98900	-99
1.99267	-99
1.99633	-99
2.00000	-99
2.00367	-98
2.00733	-98
2.01100	-98
2.01467	-97
2.01833	-97
2.02200	-96
2.02567	-96
2.02933	-96
2.03300	-96
2.03667	-96
2.04033	-96
2.04400	-96
2.04767	-96
2.05133	-96
2.05500	-96
2.05867	-95
2.06233	-95
2.06600	-95
2.06967	-95
2.07333	-95
2.07700	-95
2.08067	-95
2.08433	-94
2.08800	-94
2.09167	-93
2.09533	-93
2.09900	-92
2.10267	-92
2.10633	-91
2.11000	-90
2.11367	-90
2.11733	-90
2.12100	-89
2.12467	-89
2.12833	-89
2.13200	-89
2.13567	-88
2.13933	-88
2.14300	-88
2.14667	-87
2.15033	-87
2.15400	-87
2.15767	-86
2.16133	-85
2.16500	-85
2.16867	-84
2.17233	-83
2.17600	-83
2.17967	-83
2.18333	-83
2.18700	-82
2.19067	-82
2.19433	-82
2.19800	-81
2.20167	-81
2.20533	-81
2.20900	-81
2.21267	-81
2.21633	-81
2.22000	-82
2.22367	-82
2.22733	-82
2.23100	-82
2.23467	-82
2.23833	-81
2.24200	-81
2.24567	-80
2.24933	-80
2.25300	-80
2.25667	-79
2.26033	-79
2.26400	-79
2.26767	-79
2.27133	-78
2.27500	-78
2.27867	-78
2.28233	-77
2.28600	-77
2.28967	-77
2.29333	-76
2.29700	-76
2.30067	-76
2.30433	-75
2.30800	-75
2.31167	-75
2.31533	-75
2.31900	-75
2.32267	-75
2.32633	-74
2.33000	-74
2.33367	-73
2.33733	-72
2.34100	-71
2.34467	-71
2.34833	-70
2.35200	-70
2.35567	-70
2.35933	-69
2.36300	-68
2.36667	-66
2.37033	-64
2.37400	-62
2.37767	-59
2.38133	-55
2.38500	-52
2.38867	-47
2.39233	-43
2.39600	-39
2.39967	-34
2.40333	-30
2.40700	-25
2.41067	-21
2.41433	-17
2.41800	-13
2.42167	-10
2.42533	-7
2.42900	-5
2.43267	-3
2.43633	-1
2.44000	-0
2.44367	1
2.44733	2
2.45100	4
2.45467	5
2.45833	6
2.46200	7
2.46567	8
2.46933	9
2.47300	10
2.47667	11
2.48033	12
2.48400	13
2.48767	14
2.49133	15
2.49500	16
2.49867	16
2.50233	17
2.50600	17
2.50967	17
2.51333	16
2.51700	16
2.52067	15
2.52433	14
2.52800	13
2.53167	12
2.53533	11
2.53900	11
2.54267	10
2.54633	10
2.55000	10
2.55367	10
2.55733	10
2.56100	10
2.56467	11
2.56833	11
2.57200	12
2.57567	13
2.57933	13
2.58300	14
2.58667	15
2.59033	15
2.59400	16
2.59767	16
2.60133	16
2.60500	17
2.60867	17
2.61233	18
2.61600	18
2.61967	19
2.62333	19
2.62700	20
2.63067	20
2.63433	20
2.63800	20
2.64167	20
2.64533	20
2.64900	20
2.65267	21
2.65633	21
2.66000	21
2.66367	21
2.66733	21
2.67100	22
2.67467	22
2.67833	23
2.68200	23
2.68567	23
2.68933	24
2.69300	24
2.69667	25
2.70033	25
2.70400	25
2.70767	25
2.71133	25
2.71500	25
2.71867	25
2.72233	25
2.72600	25
2.72967	25
2.73333	25
2.73700	26
2.74067	26
2.74433	27
2.74800	28
2.75167	28
2.75533	29
2.75900	29
2.76267	29
2.76633	29
2.77000	29
2.77367	29
2.77733	29
2.78100	28
2.78467	28
2.78833	28
2.79200	28
2.79567	28
2.79933	28
2.80300	28
2.80667	28
2.81033	28
2.81400	28
2.81767	28
2.82133	28
2.82500	28
2.82867	29
2.83233	29
2.83600	29
2.83967	29
2.84333	30
2.84700	30
2.85067	29
2.85433	29
2.85800	29
2.86167	28
2.86533	27
2.86900	23
2.87267	18
2.87633	9
2.88000	-4
2.88367	-21
2.88733	-43
2.89100	-70
2.89467	-102
2.89833	-139
2.90200	-182
2.90567	-228
2.90933	-279
2.91300	-334
2.91667	-391
2.92033	-450
2.92400	-511
2.92767	-572
2.93133	-634
2.93500	-694
2.93867	-753
2.94233	-809
2.94600	-862
2.94967	-913
2.95333	-967
2.95700	-1022
2.96067	-1070
2.96433	-1100
2.96800	-1107
2.97167	-1088
2.97533	-1046
2.97900	-987
2.98267	-916
2.98633	-838
2.99000	-757
2.99367	-677
2.99733	-600
3.00100	-528
3.00467	-462
3.00833	-401
3.01200	-347
3.01567	-299
3.01933	-256
3.02300	-219
3.02667	-187
3.03033	-158
3.03400	-134
3.03767	-113
3.04133	-95
3.04500	-80
3.04867	-66
3.05233	-55
3.05600	-45
3.05967	-36
3.06333	-29
3.06700	-22
3.07067	-17
3.07433	-12
3.07800	-8
3.08167	-5
3.08533	-2
3.08900	1
3.09267	3
3.09633	5
3.10000	7
3.10367	8
3.10733	10
3.11100	11
3.11467	12
3.11833	13
3.12200	14
3.12567	14
3.12933	15
3.13300	16
3.13667	16
3.14033	17
3.14400	18
3.14767	18
3.15133	19
3.15500	19
3.15867	19
3.16233	20
3.16600	20
3.16967	20
3.17333	21
3.17700	21
3.18067	21
3.18433	21
3.18800	21
3.19167	21
3.19533	22
3.19900	22
3.20267	22
3.20633	22
3.21000	22
3.21367	22
3.21733	22
3.22100	22
3.22467	22
3.22833	23
3.23200	23
3.23567	23
3.23933	23
3.24300	23
3.24667	23
3.25033	23
3.25400	24
3.25767	24
3.26133	24
3.26500	24
3.26867	24
3.27233	25
3.27600	25
3.27967	25
3.28333	25
3.28700	25
3.29067	25
3.29433	25
3.29800	26
3.30167	26
3.30533	26
3.30900	26
3.31267	26
3.31633	26
3.32000	26
3.32367	27
3.32733	27
3.33100	27
3.33467	27
3.33833	27
3.34200	27
3.34567	27
3.34933	27
3.35300	27
3.35667	27
3.36033	27
3.36400	27
3.36767	27
3.37133	27
3.37500	27
3.37867	27
3.38233	27
3.38600	27
3.38967	27
3.39333	27
3.39700	28
3.40067	28
3.40433	28
3.40800	27
3.41167	27
3.41533	27
3.41900	26
3.42267	26
3.42633	26
3.43000	26
3.43367	26
3.43733	26
3.44100	26
3.44467	26
3.44833	26
3.45200	26
3.45567	26
3.45933	27
3.46300	27
3.46667	28
3.47033	28
3.47400	29
3.47767	30
3.48133	30
3.48500	30
3.48867	31
3.49233	31
3.49600	31
3.49967	31
3.50333	32
3.50700	32
3.51067	32
3.51433	32
3.51800	32
3.52167	32
3.52533	32
3.52900	32
3.53267	31
3.53633	31
3.54000	31
3.54367	32
3.54733	32
3.55100	32
3.55467	32
3.55833	32
3.56200	32
3.56567	32
3.56933	31
3.57300	31
3.57667	31
3.58033	31
3.58400	31
3.58767	31
3.59133	31
3.59500	30
3.59867	30
3.60233	30
3.60600	30
3.60967	29
3.61333	29
3.61700	29
3.62067	29
3.62433	29
3.62800	29
3.63167	29
3.63533	29
3.63900	29
3.64267	29
3.64633	29
3.65000	29
3.65367	29
3.65733	29
3.66100	29
3.66467	29
3.66833	29
3.67200	28
3.67567	28
3.67933	28
3.68300	28
3.68667	28
3.69033	28
3.69400	28
3.69767	28
3.70133	28
3.70500	28
3.70867	28
3.71233	28
3.71600	29
3.71967	29
3.72333	29
3.72700	29
3.73067	29
3.73433	29
3.73800	28
3.74167	28
3.74533	28
3.74900	28
3.75267	28
3.75633	28
3.76000	28
3.76367	28
3.76733	28
3.77100	28
3.77467	28
3.77833	27
3.78200	27
3.78567	27
3.78933	27
3.79300	27
3.79667	27
3.80033	28
3.80400	28
3.80767	28
3.81133	27
3.81500	27
3.81867	27
3.82233	27
3.82600	27
3.82967	27
3.83333	27
3.83700	27
3.84067	27
3.84433	27
3.84800	27
3.85167	28
3.85533	28
3.85900	28
3.86267	28
3.86633	28
3.87000	28
3.87367	28
3.87733	28
3.88100	28
3.88467	27
3.88833	28
3.89200	28
3.89567	28
3.89933	28
3.90300	28
3.90667	28
3.91033	28
3.91400	28
3.91767	27
3.92133	27
3.92500	27
3.92867	27
3.93233	27
3.93600	27
3.93967	27
3.94333	27
3.94700	27
3.95067	27
3.95433	27
3.95800	27
3.96167	27
3.96533	27
3.96900	27
3.97267	27
3.97633	27
3.98000	27
3.98367	27
3.98733	27
3.99100	28
3.99467	28
3.99833	28

[Chromatogram (Ch3)]
Interval(msec)	220
# of Points	1091
Start Time(min)	0.002
End Time(min)	3.998
R.Time (min)	Intensity
0.00167	-0
0.00533	-2
0.00900	-4
0.01267	-2
0.01633	1
0.02000	2
0.02367	1
0.02733	0
0.03100	-0
0.03467	1
0.03833	1
0.04200	2
0.04567	2
0.04933	2
0.05300	2
0.05667	2
0.06033	3
0.06400	3
0.06767	2
0.07133	1
0.07500	2
0.07867	4
0.08233	5
0.08600	5
0.08967	4
0.09333	3
0.09700	3
0.10067	2
0.10433	2
0.10800	2
0.11167	3
0.11533	2
0.11900	1
0.12267	-1
0.12633	-1
0.13000	0
0.13367	2
0.13733	3
0.14100	5
0.14467	6
0.14833	5
0.15200	5
0.15567	5
0.15933	5
0.16300	4
0.16667	4
0.17033	4
0.17400	3
0.17767	1
0.18133	-0
0.18500	-1
0.18867	-2
0.19233	-2
0.19600	0
0.19967	2
0.20333	2
0.20700	1
0.21067	2
0.21433	4
0.21800	5
0.22167	5
0.22533	4
0.22900	2
0.23267	2
0.23633	1
0.24000	-0
0.24367	2
0.24733	5
0.25100	5
0.25467	4
0.25833	4
0.26200	3
0.26567	3
0.26933	3
0.27300	3
0.27667	4
0.28033	3
0.28400	2
0.28767	1
0.29133	2
0.29500	2
0.29867	2
0.30233	2
0.30600	1
0.30967	0
0.31333	-1
0.31700	-1
0.32067	0
0.32433	3
0.32800	4
0.33167	6
0.33533	7
0.33900	8
0.34267	5
0.34633	4
0.35000	3
0.35367	4
0.35733	5
0.36100	6
0.36467	7
0.36833	7
0.37200	5
0.37567	6
0.37933	7
0.38300	7
0.38667	6
0.39033	5
0.39400	4
0.39767	3
0.40133	4
0.40500	5
0.40867	5
0.41233	6
0.41600	6
0.41967	5
0.42333	5
0.42700	5
0.43067	4
0.43433	5
0.43800	6
0.44167	8
0.44533	8
0.44900	9
0.45267	9
0.45633	9
0.46000	8
0.46367	5
0.46733	5
0.47100	6
0.47467	4
0.47833	5
0.48200	3
0.48567	4
0.48933	6
0.49300	8
0.49667	11
0.50033	14
0.50400	12
0.50767	9
0.51133	6
0.51500	4
0.51867	4
0.52233	5
0.52600	5
0.52967	5
0.53333	6
0.53700	7
0.54067	7
0.54433	6
0.54800	5
0.55167	7
0.55533	8
0.55900	9
0.56267	10
0.56633	9
0.57000	8
0.57367	8
0.57733	7
0.58100	5
0.58467	3
0.58833	5
0.59200	8
0.59567	9
0.59933	11
0.60300	12
0.60667	13
0.61033	14
0.61400	12
0.61767	10
0.62133	10
0.62500	9
0.62867	10
0.63233	12
0.63600	10
0.63967	8
0.64333	8
0.64700	7
0.65067	7
0.65433	10
0.65800	10
0.66167	10
0.66533	10
0.66900	12
0.67267	14
0.67633	15
0.68000	15
0.68367	14
0.68733	14
0.69100	15
0.69467	16
0.69833	16
0.70200	15
0.70567	14
0.70933	12
0.71300	10
0.71667	9
0.72033	10
0.72400	11
0.72767	14
0.73133	15
0.73500	16
0.73867	17
0.74233	16
0.74600	16
0.74967	17
0.75333	17
0.75700	15
0.76067	12
0.76433	11
0.76800	10
0.77167	10
0.77533	10
0.77900	10
0.78267	12
0.78633	12
0.79000	12
0.79367	12
0.79733	12
0.80100	12
0.80467	12
0.80833	11
0.81200	12
0.81567	13
0.81933	15
0.82300	15
0.82667	14
0.83033	14
0.83400	13
0.83767	16
0.84133	17
0.84500	16
0.84867	16
0.85233	15
0.85600	15
0.85967	16
0.86333	18
0.86700	18
0.87067	16
0.87433	16
0.87800	16
0.88167	16
0.88533	16
0.88900	16
0.89267	17
0.89633	20
0.90000	21
0.90367	20
0.90733	20
0.91100	20
0.91467	22
0.91833	22
0.92200	21
0.92567	19
0.92933	18
0.93300	17
0.93667	16
0.94033	14
0.94400	12
0.94767	11
0.95133	13
0.95500	14
0.95867	17
0.96233	18
0.96600	18
0.96967	18
0.97333	17
0.97700	18
0.98067	20
0.98433	19
0.98800	17
0.99167	16
0.99533	16
0.99900	16
1.00267	14
1.00633	13
1.01000	15
1.01367	16
1.01733	16
1.02100	16
1.02467	18
1.02833	18
1.03200	16
1.03567	14
1.03933	13
1.04300	14
1.04667	16
1.05033	18
1.05400	18
1.05767	17
1.06133	16
1.06500	18
1.06867	19
1.07233	16
1.07600	15
1.07967	15
1.08333	17
1.08700	21
1.09067	21
1.09433	21
1.09800	20
1.10167	19
1.10533	19
1.10900	20
1.11267	20
1.11633	20
1.12000	21
1.12367	22
1.12733	22
1.13100	20
1.13467	18
1.13833	17
1.14200	18
1.14567	19
1.14933	20
1.15300	19
1.15667	19
1.16033	19
1.16400	20
1.16767	19
1.17133	19
1.17500	20
1.17867	20
1.18233	19
1.18600	19
1.18967	22
1.19333	23
1.19700	24
1.20067	23
1.20433	22
1.20800	20
1.21167	19
1.21533	17
1.21900	17
1.22267	18
1.22633	19
1.23000	19
1.23367	20
1.23733	20
1.24100	17
1.24467	16
1.24833	17
1.25200	18
1.25567	18
1.25933	18
1.26300	18
1.26667	17
1.27033	17
1.27400	17
1.27767	16
1.28133	17
1.28500	18
1.28867	18
1.29233	17
1.29600	16
1.29967	16
1.30333	15
1.30700	16
1.31067	18
1.31433	17
1.31800	17
1.32167	18
1.32533	20
1.32900	20
1.33267	22
1.33633	26
1.34000	27
1.34367	27
1.34733	26
1.35100	23
1.35467	22
1.35833	23
1.36200	23
1.36567	23
1.36933	22
1.37300	20
1.37667	19
1.38033	17
1.38400	16
1.38767	17
1.39133	18
1.39500	16
1.39867	16
1.40233	17
1.40600	18
1.40967	19
1.41333	18
1.41700	19
1.42067	18
1.42433	19
1.42800	21
1.43167	22
1.43533	21
1.43900	18
1.44267	18
1.44633	18
1.45000	18
1.45367	18
1.45733	17
1.46100	18
1.46467	19
1.46833	21
1.47200	21
1.47567	20
1.47933	21
1.48300	20
1.48667	21
1.49033	21
1.49400	22
1.49767	23
1.50133	25
1.50500	27
1.50867	27
1.51233	25
1.51600	23
1.51967	23
1.52333	23
1.52700	24
1.53067	26
1.53433	26
1.53800	25
1.54167	25
1.54533	26
1.54900	25
1.55267	23
1.55633	21
1.56000	21
1.56367	21
1.56733	21
1.57100	23
1.57467	23
1.57833	22
1.58200	21
1.58567	21
1.58933	23
1.59300	24
1.59667	23
1.60033	22
1.60400	22
1.60767	24
1.61133	24
1.61500	21
1.61867	19
1.62233	19
1.62600	19
1.62967	21
1.63333	25
1.63700	27
1.64067	28
1.64433	26
1.64800	24
1.65167	25
1.65533	27
1.65900	26
1.66267	24
1.66633	25
1.67000	27
1.67367	28
1.67733	31
1.68100	32
1.68467	33
1.68833	34
1.69200	32
1.69567	33
1.69933	34
1.70300	35
1.70667	34
1.71033	35
1.71400	35
1.71767	36
1.72133	38
1.72500	41
1.72867	42
1.73233	40
1.73600	37
1.73967	37
1.74333	36
1.74700	36
1.75067	37
1.75433	39
1.75800	38
1.76167	37
1.76533	37
1.76900	38
1.77267	39
1.77633	39
1.78000	41
1.78367	41
1.78733	42
1.79100	43
1.79467	43
1.79833	45
1.80200	46
1.80567	47
1.80933	47
1.81300	45
1.81667	45
1.82033	46
1.82400	46
1.82767	45
1.83133	46
1.83500	46
1.83867	47
1.84233	48
1.84600	49
1.84967	49
1.85333	49
1.85700	49
1.86067	49
1.86433	51
1.86800	51
1.87167	51
1.87533	53
1.87900	56
1.88267	58
1.88633	58
1.89000	59
1.89367	60
1.89733	62
1.90100	62
1.90467	63
1.90833	64
1.91200	65
1.91567	64
1.91933	66
1.92300	67
1.92667	67
1.93033	68
1.93400	68
1.93767	68
1.94133	69
1.94500	67
1.94867	68
1.95233	73
1.95600	74
1.95967	75
1.96333	75
1.96700	75
1.97067	75
1.97433	76
1.97800	77
1.98167	75
1.98533	74
1.98900	75
1.99267	77
1.99633	78
2.00000	78
2.00367	78
2.00733	77
2.01100	80
2.01467	81
2.01833	83
2.02200	86
2.02567	86
2.02933	86
2.03300	85
2.03667	86
2.04033	89
2.04400	93
2.04767	95
2.05133	96
2.05500	97
2.05867	98
2.06233	98
2.06600	97
2.06967	98
2.07333	100
2.07700	101
2.08067	101
2.08433	101
2.08800	103
2.09167	105
2.09533	106
2.09900	105
2.10267	105
2.10633	109
2.11000	111
2.11367	113
2.11733	115
2.12100	114
2.12467	113
2.12833	114
2.13200	113
2.13567	112
2.13933	114
2.14300	117
2.14667	119
2.15033	122
2.15400	123
2.15767	124
2.16133	124
2.16500	125
2.16867	127
2.17233	125
2.17600	120
2.17967	117
2.18333	118
2.18700	119
2.19067	120
2.19433	123
2.19800	127
2.20167	128
2.20533	129
2.20900	130
2.21267	132
2.21633	133
2.22000	134
2.22367	135
2.22733	135
2.23100	136
2.23467	137
2.23833	136
2.24200	135
2.24567	136
2.24933	138
2.25300	140
2.25667	142
2.26033	142
2.26400	143
2.26767	142
2.27133	141
2.27500	140
2.27867	141
2.28233	142
2.28600	143
2.28967	141
2.29333	140
2.29700	140
2.30067	141
2.30433	142
2.30800	145
2.31167	147
2.31533	147
2.31900	145
2.32267	143
2.32633	144
2.33000	145
2.33367	146
2.33733	148
2.34100	149
2.34467	149
2.34833	149
2.35200	150
2.35567	152
2.35933	154
2.36300	153
2.36667	153
2.37033	151
2.37400	149
2.37767	149
2.38133	148
2.38500	147
2.38867	147
2.39233	150
2.39600	152
2.39967	153
2.40333	154
2.40700	152
2.41067	152
2.41433	151
2.41800	150
2.42167	151
2.42533	152
2.42900	153
2.43267	154
2.43633	153
2.44000	157
2.44367	202
2.44733	297
2.45100	386
2.45467	453
2.45833	487
2.46200	483
2.46567	460
2.46933	437
2.47300	420
2.47667	403
2.48033	382
2.48400	358
2.48767	327
2.49133	296
2.49500	268
2.49867	246
2.50233	231
2.50600	222
2.50967	219
2.51333	222
2.51700	229
2.52067	235
2.52433	239
2.52800	239
2.53167	235
2.53533	226
2.53900	216
2.54267	204
2.54633	189
2.55000	173
2.55367	161
2.55733	152
2.56100	145
2.56467	139
2.56833	135
2.57200	133
2.57567	133
2.57933	131
2.58300	128
2.58667	127
2.59033	128
2.59400	129
2.59767	134
2.60133	139
2.60500	143
2.60867	132
2.61233	99
2.61600	73
2.61967	80
2.62333	116
2.62700	166
2.63067	223
2.63433	282
2.63800	341
2.64167	398
2.64533	445
2.64900	484
2.65267	515
2.65633	538
2.66000	555
2.66367	569
2.66733	579
2.67100	589
2.67467	598
2.67833	606
2.68200	612
2.68567	616
2.68933	618
2.69300	621
2.69667	627
2.70033	630
2.70400	634
2.70767	640
2.71133	646
2.71500	653
2.71867	659
2.72233	667
2.72600	675
2.72967	684
2.73333	691
2.73700	698
2.74067	705
2.74433	710
2.74800	715
2.75167	720
2.75533	724
2.75900	728
2.76267	730
2.76633	730
2.77000	729
2.77367	727
2.77733	725
2.78100	721
2.78467	717
2.78833	714
2.79200	710
2.79567	705
2.79933	698
2.80300	690
2.80667	683
2.81033	675
2.81400	667
2.81767	656
2.82133	648
2.82500	640
2.82867	633
2.83233	629
2.83600	635
2.83967	655
2.84333	702
2.84700	799
2.85067	965
2.85433	1223
2.85800	1582
2.86167	2040
2.86533	2578
2.86900	3159
2.87267	3740
2.87633	4273
2.88000	4711
2.88367	5024
2.88733	5195
2.89100	5224
2.89467	5129
2.89833	4933
2.90200	4664
2.90567	4348
2.90933	4012
2.91300	3672
2.91667	3344
2.92033	3035
2.92400	2746
2.92767	2481
2.93133	2240
2.93500	2024
2.93867	1834
2.94233	1666
2.94600	1522
2.94967	1396
2.95333	1288
2.95700	1194
2.96067	1112
2.96433	1042
2.96800	980
2.97167	925
2.97533	877
2.97900	836
2.98267	802
2.98633	773
2.99000	749
2.99367	729
2.99733	716
3.00100	702
3.00467	692
3.00833	686
3.01200	681
3.01567	674
3.01933	670
3.02300	666
3.02667	664
3.03033	663
3.03400	660
3.03767	659
3.04133	661
3.04500	663
3.04867	665
3.05233	666
3.05600	667
3.05967	669
3.06333	670
3.06700	671
3.07067	671
3.07433	671
3.07800	671
3.08167	672
3.08533	673
3.08900	673
3.09267	673
3.09633	672
3.10000	670
3.10367	668
3.10733	666
3.11100	664
3.11467	662
3.11833	662
3.12200	662
3.12567	659
3.12933	655
3.13300	651
3.13667	647
3.14033	644
3.14400	641
3.14767	639
3.15133	637
3.15500	634
3.15867	631
3.16233	630
3.16600	629
3.16967	625
3.17333	620
3.17700	617
3.18067	614
3.18433	613
3.18800	613
3.19167	612
3.19533	611
3.19900	609
3.20267	608
3.20633	607
3.21000	607
3.21367	607
3.21733	605
3.22100	604
3.22467	603
3.22833	603
3.23200	604
3.23567	604
3.23933	604
3.24300	603
3.24667	601
3.25033	599
3.25400	599
3.25767	597
3.26133	596
3.26500	595
3.26867	596
3.27233	596
3.27600	594
3.27967	593
3.28333	591
3.28700	589
3.29067	588
3.29433	587
3.29800	587
3.30167	587
3.30533	586
3.30900	584
3.31267	583
3.31633	581
3.32000	578
3.32367	579
3.32733	577
3.33100	576
3.33467	574
3.33833	572
3.34200	567
3.34567	563
3.34933	563
3.35300	563
3.35667	562
3.36033	561
3.36400	559
3.36767	558
3.37133	554
3.37500	550
3.37867	546
3.38233	542
3.38600	538
3.38967	536
3.39333	536
3.39700	536
3.40067	536
3.40433	533
3.40800	529
3.41167	527
3.41533	527
3.41900	526
3.42267	523
3.42633	521
3.43000	520
3.43367	519
3.43733	517
3.44100	514
3.44467	511
3.44833	512
3.45200	513
3.45567	512
3.45933	508
3.46300	505
3.46667	502
3.47033	498
3.47400	493
3.47767	491
3.48133	489
3.48500	487
3.48867	485
3.49233	484
3.49600	483
3.49967	481
3.50333	479
3.50700	476
3.51067	474
3.51433	472
3.51800	473
3.52167	472
3.52533	470
3.52900	468
3.53267	463
3.53633	459
3.54000	457
3.54367	455
3.54733	453
3.55100	455
3.55467	458
3.55833	459
3.56200	456
3.56567	451
3.56933	448
3.57300	447
3.57667	446
3.58033	443
3.58400	441
3.58767	440
3.59133	439
3.59500	437
3.59867	436
3.60233	435
3.60600	435
3.60967	435
3.61333	434
3.61700	432
3.62067	428
3.62433	426
3.62800	427
3.63167	427
3.63533	426
3.63900	424
3.64267	424
3.64633	423
3.65000	422
3.65367	422
3.65733	424
3.66100	420
3.66467	416
3.66833	413
3.67200	412
3.67567	410
3.67933	409
3.68300	409
3.68667	410
3.69033	412
3.69400	411
3.69767	410
3.70133	411
3.70500	411
3.70867	411
3.71233	410
3.71600	406
3.71967	402
3.72333	400
3.72700	400
3.73067	399
3.73433	398
3.73800	397
3.74167	395
3.74533	395
3.74900	393
3.75267	390
3.75633	390
3.76000	388
3.76367	388
3.76733	388
3.77100	388
3.77467	386
3.77833	386
3.78200	385
3.78567	386
3.78933	385
3.79300	384
3.79667	386
3.80033	387
3.80400	387
3.80767	385
3.81133	384
3.81500	381
3.81867	381
3.82233	381
3.82600	381
3.82967	382
3.83333	381
3.83700	380
3.84067	379
3.84433	378
3.84800	377
3.85167	377
3.85533	376
3.85900	375
3.86267	376
3.86633	376
3.87000	376
3.87367	374
3.87733	373
3.88100	372
3.88467	372
3.88833	371
3.89200	370
3.89567	369
3.89933	369
3.90300	368
3.90667	367
3.91033	366
3.91400	365
3.91767	364
3.92133	362
3.92500	362
3.92867	362
3.93233	362
3.93600	362
3.93967	360
3.94333	358
3.94700	357
3.95067	355
3.95433	352
3.95800	350
3.96167	350
3.96533	352
3.96900	353
3.97267	351
3.97633	353
3.98000	355
3.98367	356
3.98733	355
3.99100	355
3.99467	353
3.99833	349

[Status Trace (Column Oven Temperature)]
Interval(msec)	1000
# of Points	240
Start Time(min)	0.013
End Time(min)	3.996
Intensity Units	
Intensity Multiplier	1
R.Time (min)	Intensity
0.01282	35.05
0.02948	35.05
0.04615	35.04
0.06282	35.03
0.07948	35.04
0.09615	35.05
0.11282	35.05
0.12948	35.05
0.14615	35.05
0.16282	35.05
0.17948	35.06
0.19615	35.05
0.21282	35.05
0.22948	35.06
0.24615	35.07
0.26282	35.08
0.27948	35.06
0.29615	35.05
0.31282	35.03
0.32948	35.02
0.34615	35.02
0.36282	35.00
0.37948	35.00
0.39615	35.00
0.41282	35.02
0.42948	35.03
0.44615	35.05
0.46282	35.04
0.47948	35.03
0.49615	35.02
0.51282	35.02
0.52948	35.01
0.54615	35.00
0.56282	35.01
0.57948	35.01
0.59615	35.00
0.61282	35.00
0.62948	35.00
0.64615	35.00
0.66282	35.00
0.67948	35.00
0.69615	35.00
0.71282	34.99
0.72948	34.99
0.74615	34.98
0.76282	34.97
0.77948	34.97
0.79615	34.97
0.81282	34.97
0.82948	34.98
0.84615	34.99
0.86282	35.01
0.87948	35.01
0.89615	35.01
0.91282	35.00
0.92948	34.99
0.94615	34.98
0.96282	34.98
0.97948	34.99
0.99615	35.00
1.01282	35.01
1.02948	35.02
1.04615	35.01
1.06282	35.01
1.07948	35.01
1.09615	35.01
1.11282	35.00
1.12948	34.99
1.14615	34.98
1.16282	34.97
1.17948	34.97
1.19615	34.97
1.21282	34.98
1.22948	34.98
1.24615	34.99
1.26282	35.01
1.27948	35.02
1.29615	35.02
1.31282	35.01
1.32948	35.01
1.34615	35.00
1.36282	35.01
1.37948	35.00
1.39615	34.99
1.41282	34.99
1.42948	34.99
1.44615	34.99
1.46282	35.00
1.47948	35.00
1.49615	35.00
1.51282	35.00
1.52948	35.00
1.54615	34.99
1.56282	34.99
1.57948	34.99
1.59615	35.01
1.61282	35.07
1.62948	35.23
1.64615	35.43
1.66282	35.70
1.67948	36.06
1.69615	36.43
1.71282	36.78
1.72948	37.12
1.74615	37.43
1.76282	37.73
1.77948	38.07
1.79615	38.42
1.81282	38.76
1.82948	39.09
1.84615	39.42
1.86282	39.76
1.87948	40.09
1.89615	40.42
1.91282	40.74
1.92948	41.07
1.94615	41.39
1.96282	41.71
1.97948	42.04
1.99615	42.37
2.01282	42.70
2.02948	43.02
2.04615	43.34
2.06282	43.67
2.07948	44.01
2.09615	44.33
2.11282	44.65
2.12948	44.97
2.14615	45.31
2.16282	45.63
2.17948	45.96
2.19615	46.28
2.21282	46.62
2.22948	46.95
2.24615	47.28
2.26282	47.62
2.27948	47.96
2.29615	48.27
2.31282	48.61
2.32948	48.92
2.34615	49.23
2.36282	49.51
2.37948	49.67
2.39615	49.72
2.41282	49.70
2.42948	49.71
2.44615	49.72
2.46282	49.72
2.47948	49.72
2.49615	49.73
2.51282	49.73
2.52948	49.75
2.54615	49.75
2.56282	49.79
2.57948	49.81
2.59615	49.82
2.61282	49.81
2.62948	49.82
2.64615	49.83
2.66282	49.84
2.67948	49.84
2.69615	49.84
2.71282	49.85
2.72948	49.86
2.74615	49.85
2.76282	49.84
2.77948	49.86
2.79615	49.87
2.81282	49.87
2.82948	49.87
2.84615	49.86
2.86282	49.86
2.87948	49.87
2.89615	49.87
2.91282	49.88
2.92948	49.88
2.94615	49.90
2.96282	49.91
2.97948	49.92
2.99615	49.93
3.01282	49.94
3.02948	49.96
3.04615	49.98
3.06282	49.99
3.07948	50.01
3.09615	50.02
3.11282	50.03
3.12948	50.04
3.14615	50.04
3.16282	50.04
3.17948	50.05
3.19615	50.06
3.21282	50.07
3.22948	50.07
3.24615	50.07
3.26282	50.07
3.27948	50.07
3.29615	50.08
3.31282	50.08
3.32948	50.08
3.34615	50.09
3.36282	50.09
3.37948	50.09
3.39615	50.09
3.41282	50.11
3.42948	50.13
3.44615	50.14
3.46282	50.13
3.47948	50.11
3.49615	50.08
3.51282	50.06
3.52948	50.04
3.54615	50.02
3.56282	50.01
3.57948	50.00
3.59615	49.99
3.61282	49.99
3.62948	49.99
3.64615	49.99
3.66282	50.00
3.67948	50.00
3.69615	50.01
3.71282	50.01
3.72948	50.01
3.74615	50.01
3.76282	50.01
3.77948	50.02
3.79615	50.02
3.81282	50.02
3.82948	50.03
3.84615	50.03
3.86282	50.03
3.87948	50.04
3.89615	50.05
3.91282	50.06
3.92948	50.06
3.94615	50.07
3.96282	50.07
3.97948	50.07
3.99615	50.06

[Status Trace (Injection Unit Temperature)]
Interval(msec)	1000
# of Points	240
Start Time(min)	0.013
End Time(min)	3.996
Intensity Units	
Intensity Multiplier	1
R.Time (min)	Intensity
0.01282	99.98
0.02948	99.98
0.04615	99.98
0.06282	99.98
0.07948	99.99
0.09615	99.98
0.11282	99.99
0.12948	99.98
0.14615	99.99
0.16282	99.99
0.17948	99.99
0.19615	99.98
0.21282	99.99
0.22948	99.99
0.24615	99.99
0.26282	99.98
0.27948	99.99
0.29615	99.99
0.31282	99.99
0.32948	99.98
0.34615	99.98
0.36282	99.98
0.37948	99.99
0.39615	99.98
0.41282	99.98
0.42948	99.99
0.44615	99.98
0.46282	99.99
0.47948	99.99
0.49615	99.99
0.51282	99.98
0.52948	99.99
0.54615	99.98
0.56282	99.99
0.57948	99.99
0.59615	99.98
0.61282	99.99
0.62948	99.99
0.64615	99.98
0.66282	99.99
0.67948	99.99
0.69615	99.99
0.71282	99.99
0.72948	99.99
0.74615	99.99
0.76282	99.98
0.77948	99.99
0.79615	99.98
0.81282	99.99
0.82948	99.99
0.84615	99.99
0.86282	99.99
0.87948	99.98
0.89615	99.98
0.91282	99.98
0.92948	99.99
0.94615	99.99
0.96282	99.99
0.97948	99.99
0.99615	99.99
1.01282	99.99
1.02948	99.99
1.04615	99.98
1.06282	99.98
1.07948	99.98
1.09615	99.98
1.11282	99.98
1.12948	99.98
1.14615	99.99
1.16282	99.99
1.17948	99.98
1.19615	99.99
1.21282	99.99
1.22948	99.98
1.24615	99.98
1.26282	99.99
1.27948	99.98
1.29615	99.99
1.31282	99.99
1.32948	99.98
1.34615	99.99
1.36282	99.99
1.37948	99.99
1.39615	99.99
1.41282	99.99
1.42948	99.99
1.44615	99.99
1.46282	99.98
1.47948	99.99
1.49615	99.99
1.51282	99.99
1.52948	99.99
1.54615	99.99
1.56282	99.99
1.57948	99.99
1.59615	100.00
1.61282	99.99
1.62948	100.00
1.64615	99.99
1.66282	99.99
1.67948	99.99
1.69615	99.99
1.71282	99.99
1.72948	99.99
1.74615	99.99
1.76282	99.99
1.77948	99.99
1.79615	99.99
1.81282	99.99
1.82948	99.99
1.84615	99.99
1.86282	99.99
1.87948	99.99
1.89615	99.99
1.91282	99.98
1.92948	99.98
1.94615	99.99
1.96282	99.98
1.97948	99.99
1.99615	99.98
2.01282	99.98
2.02948	99.98
2.04615	99.98
2.06282	99.98
2.07948	99.97
2.09615	99.98
2.11282	99.98
2.12948	99.98
2.14615	99.97
2.16282	99.98
2.17948	99.97
2.19615	99.98
2.21282	99.97
2.22948	99.97
2.24615	99.97
2.26282	99.97
2.27948	99.97
2.29615	99.97
2.31282	99.97
2.32948	99.97
2.34615	99.97
2.36282	99.97
2.37948	99.97
2.39615	99.97
2.41282	99.96
2.42948	99.97
2.44615	99.97
2.46282	99.97
2.47948	99.97
2.49615	99.97
2.51282	99.97
2.52948	99.97
2.54615	99.97
2.56282	99.97
2.57948	99.97
2.59615	99.98
2.61282	99.98
2.62948	99.98
2.64615	99.98
2.66282	99.98
2.67948	99.98
2.69615	99.98
2.71282	99.98
2.72948	99.98
2.74615	99.99
2.76282	100.00
2.77948	99.99
2.79615	99.99
2.81282	100.00
2.82948	99.99
2.84615	99.99
2.86282	100.00
2.87948	100.00
2.89615	100.00
2.91282	100.00
2.92948	100.00
2.94615	100.01
2.96282	100.00
2.97948	100.01
2.99615	100.01
3.01282	100.01
3.02948	100.01
3.04615	100.01
3.06282	100.01
3.07948	100.01
3.09615	100.02
3.11282	100.02
3.12948	100.01
3.14615	100.02
3.16282	100.02
3.17948	100.02
3.19615	100.02
3.21282	100.03
3.22948	100.02
3.24615	100.02
3.26282	100.02
3.27948	100.02
3.29615	100.03
3.31282	100.03
3.32948	100.03
3.34615	100.03
3.36282	100.03
3.37948	100.03
3.39615	100.03
3.41282	100.04
3.42948	100.03
3.44615	100.03
3.46282	100.03
3.47948	100.04
3.49615	100.04
3.51282	100.04
3.52948	100.04
3.54615	100.03
3.56282	100.04
3.57948	100.04
3.59615	100.04
3.61282	100.04
3.62948	100.04
3.64615	100.04
3.66282	100.04
3.67948	100.05
3.69615	100.05
3.71282	100.05
3.72948	100.04
3.74615	100.05
3.76282	100.05
3.77948	100.05
3.79615	100.05
3.81282	100.05
3.82948	100.05
3.84615	100.05
3.86282	100.05
3.87948	100.04
3.89615	100.04
3.91282	100.05
3.92948	100.04
3.94615	100.05
3.96282	100.04
3.97948	100.05
3.99615	100.05

[Status Trace (Carrier Gas Pressure)]
Interval(msec)	1000
# of Points	240
Start Time(min)	0.013
End Time(min)	3.996
Intensity Units	
Intensity Multiplier	1
R.Time (min)	Intensity
0.01282	57.98
0.02948	55.08
0.04615	57.88
0.06282	59.78
0.07948	58.73
0.09615	57.98
0.11282	57.99
0.12948	58.01
0.14615	58.01
0.16282	58.01
0.17948	58.00
0.19615	58.00
0.21282	58.00
0.22948	58.00
0.24615	58.00
0.26282	58.00
0.27948	58.00
0.29615	58.00
0.31282	58.00
0.32948	58.00
0.34615	58.00
0.36282	58.00
0.37948	58.00
0.39615	58.00
0.41282	58.00
0.42948	58.00
0.44615	58.00
0.46282	58.00
0.47948	58.00
0.49615	58.00
0.51282	58.00
0.52948	58.00
0.54615	58.00
0.56282	58.00
0.57948	58.00
0.59615	58.00
0.61282	58.00
0.62948	58.00
0.64615	58.00
0.66282	58.00
0.67948	58.00
0.69615	58.00
0.71282	58.00
0.72948	58.00
0.74615	58.00
0.76282	58.00
0.77948	58.00
0.79615	58.00
0.81282	58.00
0.82948	58.00
0.84615	58.00
0.86282	58.00
0.87948	58.00
0.89615	58.00
0.91282	58.00
0.92948	58.00
0.94615	58.00
0.96282	58.00
0.97948	58.00
0.99615	58.00
1.01282	58.00
1.02948	58.00
1.04615	58.00
1.06282	58.00
1.07948	58.00
1.09615	58.00
1.11282	58.00
1.12948	58.00
1.14615	58.00
1.16282	58.00
1.17948	58.00
1.19615	58.00
1.21282	58.00
1.22948	58.00
1.24615	58.00
1.26282	58.00
1.27948	58.00
1.29615	58.00
1.31282	58.00
1.32948	58.00
1.34615	58.00
1.36282	58.00
1.37948	58.00
1.39615	58.00
1.41282	58.00
1.42948	58.00
1.44615	58.00
1.46282	58.00
1.47948	58.00
1.49615	58.00
1.51282	58.00
1.52948	58.00
1.54615	58.00
1.56282	58.00
1.57948	58.00
1.59615	58.00
1.61282	58.00
1.62948	58.00
1.64615	58.00
1.66282	58.00
1.67948	58.01
1.69615	58.00
1.71282	58.00
1.72948	58.00
1.74615	58.00
1.76282	58.00
1.77948	58.00
1.79615	58.00
1.81282	58.00
1.82948	58.00
1.84615	58.00
1.86282	58.00
1.87948	58.00
1.89615	58.00
1.91282	58.00
1.92948	58.00
1.94615	58.00
1.96282	58.00
1.97948	58.00
1.99615	58.00
2.01282	58.00
2.02948	58.00
2.04615	58.00
2.06282	58.00
2.07948	58.00
2.09615	58.00
2.11282	58.00
2.12948	58.00
2.14615	58.00
2.16282	58.00
2.17948	58.00
2.19615	58.00
2.21282	58.00
2.22948	58.00
2.24615	58.00
2.26282	58.00
2.27948	58.00
2.29615	58.00
2.31282	58.00
2.32948	58.00
2.34615	58.00
2.36282	58.00
2.37948	57.99
2.39615	57.99
2.41282	58.00
2.42948	58.00
2.44615	58.00
2.46282	58.00
2.47948	58.00
2.49615	58.00
2.51282	57.99
2.52948	57.99
2.54615	58.00
2.56282	58.00
2.57948	58.00
2.59615	58.00
2.61282	58.00
2.62948	58.00
2.64615	58.00
2.66282	58.00
2.67948	58.00
2.69615	58.00
2.71282	58.00
2.72948	58.00
2.74615	58.00
2.76282	58.00
2.77948	58.00
2.79615	58.00
2.81282	58.00
2.82948	58.00
2.84615	58.00
2.86282	58.00
2.87948	58.00
2.89615	58.00
2.91282	58.00
2.92948	58.00
2.94615	58.00
2.96282	58.00
2.97948	58.00
2.99615	58.00
3.01282	58.00
3.02948	58.00
3.04615	58.00
3.06282	58.00
3.07948	58.00
3.09615	58.00
3.11282	58.00
3.12948	58.00
3.14615	58.00
3.16282	58.00
3.17948	58.00
3.19615	58.00
3.21282	58.00
3.22948	58.00
3.24615	58.00
3.26282	58.00
3.27948	58.00
3.29615	58.00
3.31282	58.00
3.32948	58.00
3.34615	58.00
3.36282	58.00
3.37948	58.00
3.39615	58.00
3.41282	58.00
3.42948	58.00
3.44615	58.00
3.46282	58.00
3.47948	58.00
3.49615	58.00
3.51282	58.00
3.52948	58.00
3.54615	58.00
3.56282	58.00
3.57948	58.00
3.59615	58.00
3.61282	58.00
3.62948	58.00
3.64615	58.00
3.66282	58.00
3.67948	58.00
3.69615	58.00
3.71282	58.00
3.72948	58.00
3.74615	58.00
3.76282	58.00
3.77948	58.00
3.79615	58.00
3.81282	58.00
3.82948	58.00
3.84615	58.00
3.86282	58.00
3.87948	58.00
3.89615	58.00
3.91282	58.00
3.92948	58.00
3.94615	58.00
3.96282	58.00
3.97948	58.00
3.99615	58.00

[Status Trace (Carrier Gas Flow)]
Interval(msec)	1000
# of Points	240
Start Time(min)	0.013
End Time(min)	3.996
Intensity Units	
Intensity Multiplier	1
R.Time (min)	Intensity
0.01282	34.60
0.02948	34.54
0.04615	34.54
0.06282	34.52
0.07948	34.51
0.09615	34.53
0.11282	34.52
0.12948	34.52
0.14615	34.52
0.16282	34.52
0.17948	34.52
0.19615	34.52
0.21282	34.51
0.22948	34.51
0.24615	34.52
0.26282	34.52
0.27948	34.52
0.29615	34.52
0.31282	34.52
0.32948	34.52
0.34615	34.52
0.36282	34.52
0.37948	34.52
0.39615	34.52
0.41282	34.52
0.42948	34.52
0.44615	34.52
0.46282	34.52
0.47948	34.52
0.49615	34.51
0.51282	34.52
0.52948	34.52
0.54615	34.52
0.56282	34.52
0.57948	34.52
0.59615	34.52
0.61282	34.51
0.62948	34.52
0.64615	34.52
0.66282	34.52
0.67948	34.52
0.69615	34.52
0.71282	34.52
0.72948	34.52
0.74615	34.52
0.76282	34.52
0.77948	34.52
0.79615	34.51
0.81282	34.52
0.82948	34.52
0.84615	34.52
0.86282	34.52
0.87948	34.52
0.89615	34.52
0.91282	34.52
0.92948	34.52
0.94615	34.52
0.96282	34.52
0.97948	34.52
0.99615	34.52
1.01282	34.53
1.02948	34.52
1.04615	34.52
1.06282	34.52
1.07948	34.52
1.09615	34.52
1.11282	34.52
1.12948	34.53
1.14615	34.52
1.16282	34.52
1.17948	34.52
1.19615	34.52
1.21282	34.51
1.22948	34.52
1.24615	34.52
1.26282	34.52
1.27948	34.52
1.29615	34.51
1.31282	34.51
1.32948	34.53
1.34615	34.52
1.36282	34.52
1.37948	34.52
1.39615	34.52
1.41282	34.52
1.42948	34.52
1.44615	34.52
1.46282	34.52
1.47948	34.52
1.49615	34.52
1.51282	34.52
1.52948	34.51
1.54615	34.51
1.56282	34.52
1.57948	34.52
1.59615	34.52
1.61282	34.52
1.62948	34.52
1.64615	34.52
1.66282	34.52
1.67948	34.52
1.69615	34.52
1.71282	34.52
1.72948	34.52
1.74615	34.51
1.76282	34.52
1.77948	34.52
1.79615	34.52
1.81282	34.53
1.82948	34.52
1.84615	34.52
1.86282	34.52
1.87948	34.52
1.89615	34.53
1.91282	34.52
1.92948	34.52
1.94615	34.52
1.96282	34.52
1.97948	34.51
1.99615	34.52
2.01282	34.52
2.02948	34.52
2.04615	34.51
2.06282	34.52
2.07948	34.52
2.09615	34.52
2.11282	34.52
2.12948	34.52
2.14615	34.52
2.16282	34.52
2.17948	34.52
2.19615	34.52
2.21282	34.52
2.22948	34.52
2.24615	34.51
2.26282	34.52
2.27948	34.52
2.29615	34.52
2.31282	34.52
2.32948	34.52
2.34615	34.52
2.36282	34.52
2.37948	34.52
2.39615	34.52
2.41282	34.51
2.42948	34.52
2.44615	34.52
2.46282	34.52
2.47948	34.52
2.49615	34.52
2.51282	34.52
2.52948	34.52
2.54615	34.52
2.56282	34.52
2.57948	34.52
2.59615	34.51
2.61282	34.52
2.62948	34.51
2.64615	34.51
2.66282	34.52
2.67948	34.51
2.69615	34.53
2.71282	34.51
2.72948	34.51
2.74615	34.52
2.76282	34.51
2.77948	34.52
2.79615	34.51
2.81282	34.52
2.82948	34.52
2.84615	34.52
2.86282	34.52
2.87948	34.52
2.89615	34.52
2.91282	34.52
2.92948	34.52
2.94615	34.52
2.96282	34.52
2.97948	34.52
2.99615	34.52
3.01282	34.52
3.02948	34.52
3.04615	34.52
3.06282	34.52
3.07948	34.52
3.09615	34.52
3.11282	34.52
3.12948	34.52
3.14615	34.52
3.16282	34.52
3.17948	34.52
3.19615	34.52
3.21282	34.52
3.22948	34.52
3.24615	34.52
3.26282	34.52
3.27948	34.52
3.29615	34.52
3.31282	34.52
3.32948	34.51
3.34615	34.51
3.36282	34.52
3.37948	34.52
3.39615	34.51
3.41282	34.52
3.42948	34.52
3.44615	34.52
3.46282	34.52
3.47948	34.52
3.49615	34.52
3.51282	34.52
3.52948	34.52
3.54615	34.52
3.56282	34.52
3.57948	34.51
3.59615	34.52
3.61282	34.52
3.62948	34.52
3.64615	34.52
3.66282	34.52
3.67948	34.52
3.69615	34.52
3.71282	34.51
3.72948	34.52
3.74615	34.52
3.76282	34.51
3.77948	34.52
3.79615	34.52
3.81282	34.52
3.82948	34.52
3.84615	34.52
3.86282	34.52
3.87948	34.52
3.89615	34.51
3.91282	34.52
3.92948	34.52
3.94615	34.52
3.96282	34.51
3.97948	34.52
3.99615	34.52

[Status Trace (Column Flow)]
Interval(msec)	1000
# of Points	240
Start Time(min)	0.013
End Time(min)	3.996
Intensity Units	
Intensity Multiplier	1
R.Time (min)	Intensity
0.01282	5.53
0.02948	5.20
0.04615	5.52
0.06282	5.74
0.07948	5.62
0.09615	5.53
0.11282	5.53
0.12948	5.54
0.14615	5.54
0.16282	5.53
0.17948	5.53
0.19615	5.53
0.21282	5.53
0.22948	5.53
0.24615	5.53
0.26282	5.53
0.27948	5.53
0.29615	5.53
0.31282	5.53
0.32948	5.53
0.34615	5.53
0.36282	5.54
0.37948	5.54
0.39615	5.54
0.41282	5.54
0.42948	5.53
0.44615	5.53
0.46282	5.53
0.47948	5.53
0.49615	5.54
0.51282	5.54
0.52948	5.54
0.54615	5.54
0.56282	5.54
0.57948	5.54
0.59615	5.54
0.61282	5.54
0.62948	5.54
0.64615	5.54
0.66282	5.54
0.67948	5.54
0.69615	5.54
0.71282	5.54
0.72948	5.54
0.74615	5.54
0.76282	5.54
0.77948	5.54
0.79615	5.54
0.81282	5.54
0.82948	5.54
0.84615	5.54
0.86282	5.54
0.87948	5.54
0.89615	5.54
0.91282	5.54
0.92948	5.54
0.94615	5.54
0.96282	5.54
0.97948	5.54
0.99615	5.54
1.01282	5.54
1.02948	5.54
1.04615	5.54
1.06282	5.54
1.07948	5.54
1.09615	5.54
1.11282	5.54
1.12948	5.54
1.14615	5.54
1.16282	5.54
1.17948	5.54
1.19615	5.54
1.21282	5.54
1.22948	5.54
1.24615	5.54
1.26282	5.54
1.27948	5.54
1.29615	5.54
1.31282	5.54
1.32948	5.54
1.34615	5.54
1.36282	5.54
1.37948	5.54
1.39615	5.54
1.41282	5.54
1.42948	5.54
1.44615	5.54
1.46282	5.54
1.47948	5.54
1.49615	5.54
1.51282	5.54
1.52948	5.54
1.54615	5.54
1.56282	5.54
1.57948	5.54
1.59615	5.54
1.61282	5.53
1.62948	5.53
1.64615	5.52
1.66282	5.51
1.67948	5.50
1.69615	5.49
1.71282	5.48
1.72948	5.47
1.74615	5.46
1.76282	5.45
1.77948	5.44
1.79615	5.43
1.81282	5.42
1.82948	5.41
1.84615	5.40
1.86282	5.39
1.87948	5.38
1.89615	5.37
1.91282	5.36
1.92948	5.35
1.94615	5.34
1.96282	5.33
1.97948	5.32
1.99615	5.31
2.01282	5.30
2.02948	5.29
2.04615	5.28
2.06282	5.27
2.07948	5.26
2.09615	5.25
2.11282	5.24
2.12948	5.23
2.14615	5.22
2.16282	5.22
2.17948	5.21
2.19615	5.20
2.21282	5.19
2.22948	5.18
2.24615	5.17
2.26282	5.16
2.27948	5.15
2.29615	5.14
2.31282	5.13
2.32948	5.12
2.34615	5.11
2.36282	5.11
2.37948	5.10
2.39615	5.10
2.41282	5.10
2.42948	5.10
2.44615	5.10
2.46282	5.10
2.47948	5.10
2.49615	5.10
2.51282	5.10
2.52948	5.10
2.54615	5.10
2.56282	5.10
2.57948	5.10
2.59615	5.10
2.61282	5.10
2.62948	5.10
2.64615	5.10
2.66282	5.10
2.67948	5.10
2.69615	5.10
2.71282	5.10
2.72948	5.10
2.74615	5.10
2.76282	5.10
2.77948	5.10
2.79615	5.10
2.81282	5.10
2.82948	5.10
2.84615	5.10
2.86282	5.10
2.87948	5.10
2.89615	5.10
2.91282	5.09
2.92948	5.10
2.94615	5.09
2.96282	5.09
2.97948	5.09
2.99615	5.09
3.01282	5.09
3.02948	5.09
3.04615	5.09
3.06282	5.09
3.07948	5.09
3.09615	5.09
3.11282	5.09
3.12948	5.09
3.14615	5.09
3.16282	5.09
3.17948	5.09
3.19615	5.09
3.21282	5.09
3.22948	5.09
3.24615	5.09
3.26282	5.09
3.27948	5.09
3.29615	5.09
3.31282	5.09
3.32948	5.09
3.34615	5.09
3.36282	5.09
3.37948	5.09
3.39615	5.09
3.41282	5.09
3.42948	5.09
3.44615	5.09
3.46282	5.09
3.47948	5.09
3.49615	5.09
3.51282	5.09
3.52948	5.09
3.54615	5.09
3.56282	5.09
3.57948	5.09
3.59615	5.09
3.61282	5.09
3.62948	5.09
3.64615	5.09
3.66282	5.09
3.67948	5.09
3.69615	5.09
3.71282	5.09
3.72948	5.09
3.74615	5.09
3.76282	5.09
3.77948	5.09
3.79615	5.09
3.81282	5.09
3.82948	5.09
3.84615	5.09
3.86282	5.09
3.87948	5.09
3.89615	5.09
3.91282	5.09
3.92948	5.09
3.94615	5.09
3.96282	5.09
3.97948	5.09
3.99615	5.09

[Status Trace (Linear Velocity)]
Interval(msec)	1000
# of Points	240
Start Time(min)	0.013
End Time(min)	3.996
Intensity Units	
Intensity Multiplier	1
R.Time (min)	Intensity
0.01282	39.00
0.02948	37.10
0.04615	38.94
0.06282	40.18
0.07948	39.49
0.09615	39.00
0.11282	39.01
0.12948	39.02
0.14615	39.02
0.16282	39.02
0.17948	39.02
0.19615	39.02
0.21282	39.02
0.22948	39.02
0.24615	39.01
0.26282	39.01
0.27948	39.01
0.29615	39.02
0.31282	39.02
0.32948	39.02
0.34615	39.02
0.36282	39.02
0.37948	39.02
0.39615	39.02
0.41282	39.02
0.42948	39.02
0.44615	39.02
0.46282	39.02
0.47948	39.02
0.49615	39.02
0.51282	39.02
0.52948	39.02
0.54615	39.02
0.56282	39.02
0.57948	39.02
0.59615	39.02
0.61282	39.02
0.62948	39.02
0.64615	39.02
0.66282	39.02
0.67948	39.02
0.69615	39.02
0.71282	39.02
0.72948	39.02
0.74615	39.02
0.76282	39.02
0.77948	39.02
0.79615	39.02
0.81282	39.02
0.82948	39.02
0.84615	39.02
0.86282	39.02
0.87948	39.02
0.89615	39.02
0.91282	39.02
0.92948	39.02
0.94615	39.02
0.96282	39.02
0.97948	39.02
0.99615	39.02
1.01282	39.02
1.02948	39.02
1.04615	39.02
1.06282	39.02
1.07948	39.02
1.09615	39.02
1.11282	39.02
1.12948	39.02
1.14615	39.02
1.16282	39.02
1.17948	39.02
1.19615	39.02
1.21282	39.02
1.22948	39.02
1.24615	39.02
1.26282	39.02
1.27948	39.02
1.29615	39.02
1.31282	39.02
1.32948	39.02
1.34615	39.02
1.36282	39.02
1.37948	39.02
1.39615	39.02
1.41282	39.02
1.42948	39.02
1.44615	39.02
1.46282	39.02
1.47948	39.02
1.49615	39.02
1.51282	39.02
1.52948	39.02
1.54615	39.02
1.56282	39.02
1.57948	39.02
1.59615	39.02
1.61282	39.02
1.62948	39.00
1.64615	38.98
1.66282	38.96
1.67948	38.92
1.69615	38.88
1.71282	38.85
1.72948	38.82
1.74615	38.79
1.76282	38.76
1.77948	38.73
1.79615	38.70
1.81282	38.66
1.82948	38.63
1.84615	38.60
1.86282	38.57
1.87948	38.54
1.89615	38.51
1.91282	38.48
1.92948	38.45
1.94615	38.42
1.96282	38.39
1.97948	38.36
1.99615	38.32
2.01282	38.29
2.02948	38.27
2.04615	38.24
2.06282	38.21
2.07948	38.17
2.09615	38.14
2.11282	38.12
2.12948	38.09
2.14615	38.06
2.16282	38.03
2.17948	38.00
2.19615	37.97
2.21282	37.94
2.22948	37.91
2.24615	37.88
2.26282	37.85
2.27948	37.82
2.29615	37.79
2.31282	37.76
2.32948	37.73
2.34615	37.70
2.36282	37.68
2.37948	37.66
2.39615	37.66
2.41282	37.66
2.42948	37.66
2.44615	37.66
2.46282	37.66
2.47948	37.66
2.49615	37.66
2.51282	37.66
2.52948	37.65
2.54615	37.66
2.56282	37.66
2.57948	37.65
2.59615	37.65
2.61282	37.65
2.62948	37.65
2.64615	37.65
2.66282	37.65
2.67948	37.65
2.69615	37.65
2.71282	37.65
2.72948	37.65
2.74615	37.65
2.76282	37.65
2.77948	37.65
2.79615	37.65
2.81282	37.65
2.82948	37.65
2.84615	37.65
2.86282	37.65
2.87948	37.65
2.89615	37.65
2.91282	37.65
2.92948	37.65
2.94615	37.65
2.96282	37.64
2.97948	37.64
2.99615	37.64
3.01282	37.64
3.02948	37.64
3.04615	37.64
3.06282	37.64
3.07948	37.63
3.09615	37.63
3.11282	37.63
3.12948	37.63
3.14615	37.63
3.16282	37.63
3.17948	37.63
3.19615	37.63
3.21282	37.63
3.22948	37.63
3.24615	37.63
3.26282	37.63
3.27948	37.63
3.29615	37.63
3.31282	37.63
3.32948	37.63
3.34615	37.63
3.36282	37.63
3.37948	37.63
3.39615	37.63
3.41282	37.63
3.42948	37.62
3.44615	37.62
3.46282	37.62
3.47948	37.63
3.49615	37.63
3.51282	37.63
3.52948	37.63
3.54615	37.63
3.56282	37.63
3.57948	37.64
3.59615	37.64
3.61282	37.64
3.62948	37.64
3.64615	37.64
3.66282	37.64
3.67948	37.64
3.69615	37.64
3.71282	37.64
3.72948	37.63
3.74615	37.63
3.76282	37.63
3.77948	37.63
3.79615	37.63
3.81282	37.63
3.82948	37.63
3.84615	37.63
3.86282	37.63
3.87948	37.63
3.89615	37.63
3.91282	37.63
3.92948	37.63
3.94615	37.63
3.96282	37.63
3.97948	37.63
3.99615	37.63

