[Header]
Application Name	LabSolutions
Version	5.110
Data File Name	C:\Users\User\Desktop\Junior\UIC Prairie Sampling\5.18.23\05182023_016.gcd
Output Date	6/5/2023
Output Time	2:17:25 PM

[File Information]
Type	Data File
Generated	5/24/2023 1:27:37 PM
Generated by	System Administrator
Modified	5/24/2023 1:34:36 PM
Modified by	System Administrator

[Sample Information]
Operator Name	System Administrator
Acquired	5/24/2023 1:30:35 PM
Sample Type	0:Unknown
Level	0
Sample Name	016
Sample ID	016
ISTD Amount1	1
ISTD Amount2	1
ISTD Amount3	1
ISTD Amount4	1
ISTD Amount5	1
ISTD Amount6	1
ISTD Amount7	1
ISTD Amount8	1
ISTD Amount9	1
ISTD Amount10	1
ISTD Amount11	1
ISTD Amount12	1
ISTD Amount13	1
ISTD Amount14	1
ISTD Amount15	1
ISTD Amount16	1
ISTD Amount17	1
ISTD Amount18	1
ISTD Amount19	1
ISTD Amount20	1
ISTD Amount21	1
ISTD Amount22	1
ISTD Amount23	1
ISTD Amount24	1
ISTD Amount25	1
ISTD Amount26	1
ISTD Amount27	1
ISTD Amount28	1
ISTD Amount29	1
ISTD Amount30	1
ISTD Amount31	1
ISTD Amount32	1
Sample Amount	1
Dilution Factor	1
Vial#	15
Injection Volume	1
Injection Count	1
Bar Code	

[Original Files]
Data File	C:\Users\User\Desktop\Junior\UIC Prairie Sampling\5.18.23\05182023_016.gcd
Method File	C:\LabSolutions\Data\GHG_4min_2022\ghg3_togas_w_acet_4 min_new_int.gcm
Batch File	C:\LabSolutions\Data\AutoSamplerTesting\05182023.gcb
Report Format File	c:\LabSolutions\System\DEFAULT.lsr

[File Description]


[Configuration]
Instrument Name	C0B7VH3-Instrument1
Instrument #	1
Line #	1
# of Detectors	3
Detector ID	DET#1	DET#2	DET#3
Detector Name	FID	PTCD	ECD
# of Channels	1	1	1

[Peak Table(Ch1)]
# of Peaks	4
Peak#	R.Time	I.Time	F.Time	Area	Height	A/H	Conc.	Mark	ID#	Name	k'	Plate #	Plate Ht.	Tailing	Resolution	Sep.Factor	Area Ratio	Height Ratio	Conc. %	Norm Conc.
1	1.472	1.432	1.527	3787	1825	2.075	0.000	   	1	CO	0.000	9171	16.356	1.233	0.000	0.000	0	0	0.000	0.000
2	1.564	1.527	1.615	4526	2296	1.971	22.066	 V 	2	CH4	0.062	11360	13.204	1.156	1.526	0.000	0	0	10.151	10.151
3	1.993	1.945	2.356	1013446	482457	2.101	195.310	   	3	CO2	0.354	17453	8.594	1.179	7.209	5.680	0	0	89.849	89.849
4	3.093	2.631	3.547	2939	98	29.958	0.000	   	5	Acetylene	1.101	312	481.019	1.052	2.891	3.113	0	0	0.000	0.000

[Peak Table(Ch2)]
# of Peaks	0

[Peak Table(Ch3)]
# of Peaks	6
Peak#	R.Time	I.Time	F.Time	Area	Height	A/H	Conc.	Mark	ID#	Name	k'	Plate #	Plate Ht.	Tailing	Resolution	Sep.Factor	Area Ratio	Height Ratio	Conc. %	Norm Conc.
1	2.458	2.440	2.506	754	285	2.650	0.000	   			0.000	14059	10.670	0.000	0.000	0.000	0	0	0.000	0.000
2	2.521	2.506	2.565	338	135	2.499	0.000	 V 			0.025	4146	36.177	0.000	0.520	0.000	0	0	0.000	0.000
3	2.620	2.565	2.671	358	100	3.587	0.000	 V 			0.066	10347	14.498	0.000	0.763	2.588	0	0	0.000	0.000
4	2.891	2.748	2.986	16933	4674	3.623	0.250	   	1	N2O	0.176	13877	10.809	1.451	2.697	2.682	0	0	100.000	100.000
5	3.078	2.986	3.129	2839	364	7.808	0.000	 V 	2	SF6	0.252	112	1337.963	0.000	0.297	1.432	0	0	0.000	0.000
6	3.225	3.129	3.995	10749	388	27.668	0.000	 V 	2	SF6	0.312	108	1386.075	0.000	0.122	1.237	0	0	0.000	0.000

[Compound Results(Ch1)]
# of IDs	6
ID#	Name	R.Time	Area	Height	Conc.	Curve	3rd	2nd	1st	Constant	Area Ratio	Height Ratio	Conc. %	Norm Conc.
1	CO	1.472	3787	1825	0.000	Linear	0.000000e+00	0.000000e+00	0.000000e+00	0.000000e+00	0	0	0.000	0.000
2	CH4	1.564	4526	2296	22.066	Linear	0.000000e+00	0.000000e+00	2.051179e+002	0.000000e+00	0	0	10.151	10.151
3	CO2	1.993	1013446	482457	195.310	Linear	0.000000e+00	0.000000e+00	5.188919e+003	0.000000e+00	0	0	89.849	89.849
4	Ethylene	0.000	0	0	0.000	Linear	0.000000e+00	0.000000e+00	0.000000e+00	0.000000e+00	0	0	0.000	0.000
5	Acetylene	3.093	2939	98	0.000	Linear	0.000000e+00	0.000000e+00	0.000000e+00	0.000000e+00	0	0	0.000	0.000
6	Ethane	0.000	0	0	0.000	Linear	0.000000e+00	0.000000e+00	0.000000e+00	0.000000e+00	0	0	0.000	0.000

[Compound Results(Ch2)]
# of IDs	5
ID#	Name	R.Time	Area	Height	Conc.	Curve	3rd	2nd	1st	Constant	Area Ratio	Height Ratio	Conc. %	Norm Conc.
1	Hydrogen	0.000	0	0	0.000	Linear	0.000000e+00	0.000000e+00	0.000000e+00	0.000000e+00	0	0	0.000	0.000
2	Oxygen	0.000	0	0	0.000	Linear	0.000000e+00	0.000000e+00	0.000000e+00	0.000000e+00	0	0	0.000	0.000
3	Nitrogen	0.000	0	0	0.000	Linear	0.000000e+00	0.000000e+00	0.000000e+00	0.000000e+00	0	0	0.000	0.000
4	Methane	0.000	0	0	0.000	Linear	0.000000e+00	0.000000e+00	0.000000e+00	0.000000e+00	0	0	0.000	0.000
5	Carbon Monoxide	0.000	0	0	0.000	Linear	0.000000e+00	0.000000e+00	0.000000e+00	0.000000e+00	0	0	0.000	0.000

[Compound Results(Ch3)]
# of IDs	2
ID#	Name	R.Time	Area	Height	Conc.	Curve	3rd	2nd	1st	Constant	Area Ratio	Height Ratio	Conc. %	Norm Conc.
1	N2O	2.891	16933	4674	0.250	Linear	0.000000e+00	0.000000e+00	6.759880e+004	0.000000e+00	0	0	100.000	100.000
2	SF6	3.225	13587	752	0.000	Linear	0.000000e+00	0.000000e+00	0.000000e+00	0.000000e+00	0	0	0.000	0.000

[Group Results(Ch1)]
# of Groups	0

[Group Results(Ch2)]
# of Groups	0

[Group Results(Ch3)]
# of Groups	0

[Chromatogram (Ch1)]
Interval(msec)	220
# of Points	1091
Start Time(min)	0.002
End Time(min)	3.998
R.Time (min)	Intensity
0.00167	-20
0.00533	-28
0.00900	-32
0.01267	-31
0.01633	-27
0.02000	-19
0.02367	-13
0.02733	-11
0.03100	-16
0.03467	-22
0.03833	-23
0.04200	-18
0.04567	-11
0.04933	-7
0.05300	-5
0.05667	-4
0.06033	-5
0.06400	-5
0.06767	-6
0.07133	-7
0.07500	-9
0.07867	-11
0.08233	-11
0.08600	-12
0.08967	-13
0.09333	-14
0.09700	-14
0.10067	-11
0.10433	-9
0.10800	-12
0.11167	-15
0.11533	-16
0.11900	-16
0.12267	-17
0.12633	-17
0.13000	-13
0.13367	-9
0.13733	-5
0.14100	-1
0.14467	0
0.14833	-2
0.15200	-5
0.15567	-4
0.15933	-2
0.16300	-4
0.16667	-8
0.17033	-10
0.17400	-10
0.17767	-7
0.18133	-4
0.18500	-5
0.18867	-8
0.19233	-14
0.19600	-19
0.19967	-21
0.20333	-18
0.20700	-11
0.21067	-6
0.21433	-3
0.21800	-3
0.22167	-3
0.22533	-0
0.22900	1
0.23267	-1
0.23633	-3
0.24000	-4
0.24367	-7
0.24733	-10
0.25100	-12
0.25467	-13
0.25833	-12
0.26200	-13
0.26567	-12
0.26933	-10
0.27300	-7
0.27667	-6
0.28033	-11
0.28400	-15
0.28767	-14
0.29133	-11
0.29500	-9
0.29867	-8
0.30233	-10
0.30600	-10
0.30967	-12
0.31333	-13
0.31700	-16
0.32067	-17
0.32433	-20
0.32800	-23
0.33167	-28
0.33533	-28
0.33900	-26
0.34267	-22
0.34633	-18
0.35000	-15
0.35367	-14
0.35733	-15
0.36100	-14
0.36467	-12
0.36833	-13
0.37200	-16
0.37567	-15
0.37933	-12
0.38300	-11
0.38667	-14
0.39033	-19
0.39400	-19
0.39767	-15
0.40133	-11
0.40500	-8
0.40867	-10
0.41233	-11
0.41600	-14
0.41967	-16
0.42333	-15
0.42700	-13
0.43067	-11
0.43433	-8
0.43800	-1
0.44167	4
0.44533	0
0.44900	-8
0.45267	-16
0.45633	-20
0.46000	-20
0.46367	-19
0.46733	-17
0.47100	-15
0.47467	-17
0.47833	-19
0.48200	-21
0.48567	-18
0.48933	-9
0.49300	-3
0.49667	-0
0.50033	-2
0.50400	-5
0.50767	-4
0.51133	-3
0.51500	-4
0.51867	-5
0.52233	-7
0.52600	-6
0.52967	-4
0.53333	-4
0.53700	-6
0.54067	-5
0.54433	-6
0.54800	-9
0.55167	-10
0.55533	-9
0.55900	-9
0.56267	-9
0.56633	-10
0.57000	-10
0.57367	-10
0.57733	-13
0.58100	-16
0.58467	-19
0.58833	-21
0.59200	-20
0.59567	-16
0.59933	-7
0.60300	-3
0.60667	-2
0.61033	-3
0.61400	-4
0.61767	-3
0.62133	-2
0.62500	-2
0.62867	-3
0.63233	-3
0.63600	-4
0.63967	-5
0.64333	-6
0.64700	-8
0.65067	-9
0.65433	-12
0.65800	-16
0.66167	-19
0.66533	-20
0.66900	-15
0.67267	-10
0.67633	-4
0.68000	-1
0.68367	-1
0.68733	-6
0.69100	-13
0.69467	-18
0.69833	-18
0.70200	-15
0.70567	-14
0.70933	-14
0.71300	-15
0.71667	-15
0.72033	-16
0.72400	-16
0.72767	-15
0.73133	-12
0.73500	-9
0.73867	-8
0.74233	-9
0.74600	-13
0.74967	-19
0.75333	-27
0.75700	-33
0.76067	-38
0.76433	-38
0.76800	-35
0.77167	-32
0.77533	-30
0.77900	-26
0.78267	-21
0.78633	-19
0.79000	-16
0.79367	-9
0.79733	-1
0.80100	2
0.80467	-1
0.80833	-8
0.81200	-14
0.81567	-17
0.81933	-16
0.82300	-12
0.82667	-14
0.83033	-22
0.83400	-28
0.83767	-30
0.84133	-29
0.84500	-26
0.84867	-22
0.85233	-19
0.85600	-14
0.85967	-10
0.86333	-10
0.86700	-14
0.87067	-21
0.87433	-28
0.87800	-28
0.88167	-26
0.88533	-23
0.88900	-24
0.89267	-29
0.89633	-35
0.90000	-37
0.90367	-36
0.90733	-33
0.91100	-30
0.91467	-29
0.91833	-29
0.92200	-29
0.92567	-29
0.92933	-28
0.93300	-27
0.93667	-23
0.94033	-21
0.94400	-24
0.94767	-31
0.95133	-35
0.95500	-37
0.95867	-35
0.96233	-30
0.96600	-19
0.96967	-10
0.97333	-8
0.97700	-11
0.98067	-16
0.98433	-21
0.98800	-25
0.99167	-24
0.99533	-22
0.99900	-24
1.00267	-30
1.00633	-39
1.01000	-46
1.01367	-47
1.01733	-41
1.02100	-31
1.02467	-26
1.02833	-26
1.03200	-30
1.03567	-34
1.03933	-37
1.04300	-32
1.04667	-25
1.05033	-24
1.05400	-29
1.05767	-36
1.06133	-38
1.06500	-38
1.06867	-38
1.07233	-39
1.07600	-41
1.07967	-43
1.08333	-41
1.08700	-35
1.09067	-25
1.09433	-14
1.09800	-8
1.10167	-8
1.10533	-15
1.10900	-20
1.11267	-23
1.11633	-21
1.12000	-17
1.12367	-14
1.12733	-15
1.13100	-15
1.13467	-14
1.13833	-13
1.14200	-13
1.14567	-16
1.14933	-21
1.15300	-26
1.15667	-30
1.16033	-32
1.16400	-34
1.16767	-37
1.17133	-38
1.17500	-34
1.17867	-28
1.18233	-23
1.18600	-23
1.18967	-25
1.19333	-29
1.19700	-31
1.20067	-29
1.20433	-23
1.20800	-17
1.21167	-15
1.21533	-19
1.21900	-25
1.22267	-35
1.22633	-42
1.23000	-46
1.23367	-49
1.23733	-49
1.24100	-46
1.24467	-44
1.24833	-44
1.25200	-45
1.25567	-42
1.25933	-35
1.26300	-29
1.26667	-26
1.27033	-21
1.27400	-14
1.27767	-9
1.28133	-13
1.28500	-21
1.28867	-29
1.29233	-33
1.29600	-36
1.29967	-36
1.30333	-35
1.30700	-35
1.31067	-38
1.31433	-39
1.31800	-38
1.32167	-35
1.32533	-34
1.32900	-36
1.33267	-38
1.33633	-40
1.34000	-37
1.34367	-34
1.34733	-33
1.35100	-33
1.35467	-35
1.35833	-36
1.36200	-35
1.36567	-36
1.36933	-39
1.37300	-43
1.37667	-44
1.38033	-40
1.38400	-34
1.38767	-30
1.39133	-26
1.39500	-24
1.39867	-24
1.40233	-27
1.40600	-32
1.40967	-37
1.41333	-40
1.41700	-41
1.42067	-41
1.42433	-38
1.42800	-38
1.43167	-35
1.43533	-20
1.43900	10
1.44267	39
1.44633	97
1.45000	268
1.45367	563
1.45733	908
1.46100	1232
1.46467	1499
1.46833	1691
1.47200	1785
1.47567	1755
1.47933	1596
1.48300	1343
1.48667	1057
1.49033	790
1.49400	569
1.49767	401
1.50133	274
1.50500	181
1.50867	112
1.51233	59
1.51600	19
1.51967	-12
1.52333	-34
1.52700	-45
1.53067	-39
1.53433	3
1.53800	135
1.54167	412
1.54533	819
1.54900	1270
1.55267	1676
1.55633	1991
1.56000	2188
1.56367	2244
1.56733	2130
1.57100	1861
1.57467	1501
1.57833	1129
1.58200	804
1.58567	547
1.58933	355
1.59300	214
1.59667	115
1.60033	48
1.60400	7
1.60767	-20
1.61133	-44
1.61500	-59
1.61867	-63
1.62233	-60
1.62600	-55
1.62967	-52
1.63333	-49
1.63700	-52
1.64067	-59
1.64433	-65
1.64800	-68
1.65167	-66
1.65533	-61
1.65900	-58
1.66267	-58
1.66633	-58
1.67000	-58
1.67367	-60
1.67733	-60
1.68100	-60
1.68467	-66
1.68833	-70
1.69200	-70
1.69567	-66
1.69933	-63
1.70300	-60
1.70667	-57
1.71033	-53
1.71400	-50
1.71767	-51
1.72133	-52
1.72500	-53
1.72867	-55
1.73233	-58
1.73600	-59
1.73967	-55
1.74333	-52
1.74700	-56
1.75067	-61
1.75433	-63
1.75800	-64
1.76167	-66
1.76533	-69
1.76900	-73
1.77267	-75
1.77633	-75
1.78000	-75
1.78367	-74
1.78733	-73
1.79100	-73
1.79467	-72
1.79833	-73
1.80200	-76
1.80567	-78
1.80933	-75
1.81300	-71
1.81667	-68
1.82033	-67
1.82400	-65
1.82767	-58
1.83133	-49
1.83500	-41
1.83867	-37
1.84233	-39
1.84600	-43
1.84967	-42
1.85333	-40
1.85700	-42
1.86067	-48
1.86433	-54
1.86800	-53
1.87167	-50
1.87533	-50
1.87900	-52
1.88267	-57
1.88633	-60
1.89000	-61
1.89367	-61
1.89733	-59
1.90100	-53
1.90467	-48
1.90833	-47
1.91200	-47
1.91567	-48
1.91933	-49
1.92300	-47
1.92667	-42
1.93033	-38
1.93400	-39
1.93767	-44
1.94133	-50
1.94500	-43
1.94867	18
1.95233	359
1.95600	1971
1.95967	7864
1.96333	24265
1.96700	59637
1.97067	119644
1.97433	201420
1.97800	293064
1.98167	378713
1.98533	444510
1.98900	480760
1.99267	482451
1.99633	450607
2.00000	392900
2.00367	321624
2.00733	249321
2.01100	185030
2.01467	133028
2.01833	93732
2.02200	65415
2.02567	45656
2.02933	32141
2.03300	22990
2.03667	16811
2.04033	12620
2.04400	9749
2.04767	7752
2.05133	6335
2.05500	5309
2.05867	4544
2.06233	3959
2.06600	3500
2.06967	3132
2.07333	2829
2.07700	2576
2.08067	2364
2.08433	2184
2.08800	2027
2.09167	1891
2.09533	1772
2.09900	1667
2.10267	1572
2.10633	1484
2.11000	1402
2.11367	1327
2.11733	1260
2.12100	1202
2.12467	1145
2.12833	1089
2.13200	1041
2.13567	996
2.13933	956
2.14300	915
2.14667	876
2.15033	846
2.15400	819
2.15767	793
2.16133	765
2.16500	738
2.16867	717
2.17233	696
2.17600	674
2.17967	653
2.18333	635
2.18700	618
2.19067	599
2.19433	579
2.19800	562
2.20167	547
2.20533	530
2.20900	512
2.21267	497
2.21633	484
2.22000	473
2.22367	463
2.22733	453
2.23100	443
2.23467	434
2.23833	423
2.24200	412
2.24567	403
2.24933	400
2.25300	400
2.25667	399
2.26033	392
2.26400	384
2.26767	376
2.27133	370
2.27500	366
2.27867	361
2.28233	354
2.28600	345
2.28967	337
2.29333	332
2.29700	328
2.30067	327
2.30433	327
2.30800	326
2.31167	324
2.31533	323
2.31900	325
2.32267	330
2.32633	332
2.33000	329
2.33367	321
2.33733	310
2.34100	300
2.34467	290
2.34833	280
2.35200	272
2.35567	267
2.35933	267
2.36300	269
2.36667	272
2.37033	277
2.37400	284
2.37767	288
2.38133	290
2.38500	288
2.38867	282
2.39233	273
2.39600	269
2.39967	270
2.40333	272
2.40700	273
2.41067	272
2.41433	268
2.41800	263
2.42167	257
2.42533	250
2.42900	244
2.43267	240
2.43633	244
2.44000	249
2.44367	251
2.44733	252
2.45100	251
2.45467	247
2.45833	241
2.46200	238
2.46567	238
2.46933	238
2.47300	239
2.47667	242
2.48033	243
2.48400	242
2.48767	242
2.49133	242
2.49500	244
2.49867	245
2.50233	247
2.50600	252
2.50967	256
2.51333	259
2.51700	259
2.52067	260
2.52433	265
2.52800	267
2.53167	265
2.53533	260
2.53900	252
2.54267	244
2.54633	238
2.55000	232
2.55367	231
2.55733	233
2.56100	239
2.56467	249
2.56833	260
2.57200	273
2.57567	281
2.57933	278
2.58300	268
2.58667	259
2.59033	252
2.59400	250
2.59767	251
2.60133	250
2.60500	251
2.60867	253
2.61233	252
2.61600	246
2.61967	242
2.62333	243
2.62700	249
2.63067	260
2.63433	272
2.63800	278
2.64167	278
2.64533	273
2.64900	268
2.65267	264
2.65633	267
2.66000	275
2.66367	279
2.66733	274
2.67100	271
2.67467	270
2.67833	270
2.68200	271
2.68567	270
2.68933	273
2.69300	282
2.69667	288
2.70033	290
2.70400	287
2.70767	285
2.71133	287
2.71500	287
2.71867	285
2.72233	283
2.72600	283
2.72967	286
2.73333	289
2.73700	293
2.74067	301
2.74433	309
2.74800	316
2.75167	320
2.75533	325
2.75900	330
2.76267	331
2.76633	329
2.77000	322
2.77367	317
2.77733	316
2.78100	318
2.78467	318
2.78833	315
2.79200	311
2.79567	311
2.79933	313
2.80300	317
2.80667	322
2.81033	323
2.81400	323
2.81767	324
2.82133	326
2.82500	325
2.82867	323
2.83233	322
2.83600	321
2.83967	321
2.84333	320
2.84700	322
2.85067	323
2.85433	327
2.85800	333
2.86167	335
2.86533	335
2.86900	334
2.87267	336
2.87633	338
2.88000	340
2.88367	342
2.88733	343
2.89100	343
2.89467	345
2.89833	349
2.90200	354
2.90567	358
2.90933	358
2.91300	355
2.91667	354
2.92033	352
2.92400	353
2.92767	358
2.93133	361
2.93500	363
2.93867	367
2.94233	370
2.94600	368
2.94967	365
2.95333	364
2.95700	362
2.96067	363
2.96433	365
2.96800	366
2.97167	364
2.97533	360
2.97900	361
2.98267	363
2.98633	366
2.99000	369
2.99367	372
2.99733	377
3.00100	380
3.00467	380
3.00833	380
3.01200	380
3.01567	381
3.01933	382
3.02300	382
3.02667	377
3.03033	372
3.03400	368
3.03767	364
3.04133	363
3.04500	365
3.04867	369
3.05233	373
3.05600	376
3.05967	382
3.06333	387
3.06700	389
3.07067	388
3.07433	385
3.07800	382
3.08167	386
3.08533	391
3.08900	394
3.09267	397
3.09633	396
3.10000	391
3.10367	388
3.10733	388
3.11100	386
3.11467	384
3.11833	382
3.12200	383
3.12567	380
3.12933	378
3.13300	379
3.13667	383
3.14033	386
3.14400	385
3.14767	383
3.15133	382
3.15500	382
3.15867	380
3.16233	378
3.16600	376
3.16967	373
3.17333	371
3.17700	372
3.18067	373
3.18433	374
3.18800	373
3.19167	372
3.19533	372
3.19900	374
3.20267	376
3.20633	378
3.21000	380
3.21367	382
3.21733	384
3.22100	384
3.22467	383
3.22833	382
3.23200	380
3.23567	376
3.23933	374
3.24300	374
3.24667	378
3.25033	382
3.25400	386
3.25767	388
3.26133	386
3.26500	380
3.26867	373
3.27233	369
3.27600	367
3.27967	368
3.28333	370
3.28700	369
3.29067	367
3.29433	366
3.29800	367
3.30167	369
3.30533	373
3.30900	381
3.31267	391
3.31633	398
3.32000	398
3.32367	395
3.32733	392
3.33100	389
3.33467	384
3.33833	377
3.34200	371
3.34567	368
3.34933	361
3.35300	357
3.35667	358
3.36033	363
3.36400	368
3.36767	371
3.37133	373
3.37500	376
3.37867	377
3.38233	374
3.38600	367
3.38967	360
3.39333	355
3.39700	357
3.40067	361
3.40433	366
3.40800	369
3.41167	368
3.41533	365
3.41900	362
3.42267	363
3.42633	365
3.43000	367
3.43367	370
3.43733	376
3.44100	378
3.44467	376
3.44833	371
3.45200	364
3.45567	358
3.45933	354
3.46300	358
3.46667	365
3.47033	371
3.47400	370
3.47767	366
3.48133	361
3.48500	356
3.48867	353
3.49233	352
3.49600	352
3.49967	353
3.50333	357
3.50700	359
3.51067	359
3.51433	357
3.51800	356
3.52167	355
3.52533	353
3.52900	351
3.53267	350
3.53633	348
3.54000	344
3.54367	339
3.54733	337
3.55100	340
3.55467	348
3.55833	356
3.56200	366
3.56567	379
3.56933	391
3.57300	394
3.57667	382
3.58033	364
3.58400	346
3.58767	330
3.59133	319
3.59500	314
3.59867	316
3.60233	321
3.60600	327
3.60967	334
3.61333	340
3.61700	345
3.62067	348
3.62433	350
3.62800	350
3.63167	348
3.63533	347
3.63900	348
3.64267	353
3.64633	358
3.65000	361
3.65367	360
3.65733	358
3.66100	356
3.66467	353
3.66833	348
3.67200	340
3.67567	333
3.67933	327
3.68300	322
3.68667	323
3.69033	329
3.69400	331
3.69767	329
3.70133	324
3.70500	322
3.70867	324
3.71233	325
3.71600	324
3.71967	322
3.72333	322
3.72700	325
3.73067	329
3.73433	332
3.73800	333
3.74167	334
3.74533	336
3.74900	340
3.75267	339
3.75633	334
3.76000	328
3.76367	326
3.76733	328
3.77100	328
3.77467	323
3.77833	315
3.78200	306
3.78567	301
3.78933	298
3.79300	298
3.79667	299
3.80033	301
3.80400	304
3.80767	305
3.81133	302
3.81500	301
3.81867	305
3.82233	309
3.82600	313
3.82967	314
3.83333	315
3.83700	318
3.84067	323
3.84433	328
3.84800	328
3.85167	328
3.85533	327
3.85900	327
3.86267	326
3.86633	323
3.87000	320
3.87367	317
3.87733	317
3.88100	316
3.88467	310
3.88833	306
3.89200	304
3.89567	301
3.89933	299
3.90300	301
3.90667	305
3.91033	310
3.91400	315
3.91767	322
3.92133	324
3.92500	323
3.92867	324
3.93233	328
3.93600	329
3.93967	327
3.94333	324
3.94700	323
3.95067	325
3.95433	329
3.95800	332
3.96167	331
3.96533	325
3.96900	315
3.97267	306
3.97633	302
3.98000	300
3.98367	298
3.98733	300
3.99100	310
3.99467	317
3.99833	315

[Chromatogram (Ch2)]
Interval(msec)	220
# of Points	1091
Start Time(min)	0.002
End Time(min)	3.998
R.Time (min)	Intensity
0.00167	-1
0.00533	-1
0.00900	-1
0.01267	-1
0.01633	-1
0.02000	-1
0.02367	-1
0.02733	-1
0.03100	-1
0.03467	-1
0.03833	-1
0.04200	-1
0.04567	-0
0.04933	-0
0.05300	0
0.05667	1
0.06033	1
0.06400	1
0.06767	2
0.07133	2
0.07500	3
0.07867	3
0.08233	4
0.08600	4
0.08967	4
0.09333	5
0.09700	5
0.10067	5
0.10433	5
0.10800	5
0.11167	5
0.11533	5
0.11900	5
0.12267	5
0.12633	5
0.13000	5
0.13367	5
0.13733	5
0.14100	5
0.14467	5
0.14833	5
0.15200	5
0.15567	4
0.15933	4
0.16300	4
0.16667	4
0.17033	4
0.17400	4
0.17767	4
0.18133	4
0.18500	4
0.18867	4
0.19233	4
0.19600	4
0.19967	4
0.20333	4
0.20700	4
0.21067	4
0.21433	3
0.21800	3
0.22167	3
0.22533	3
0.22900	3
0.23267	3
0.23633	3
0.24000	3
0.24367	3
0.24733	3
0.25100	2
0.25467	2
0.25833	2
0.26200	2
0.26567	2
0.26933	2
0.27300	2
0.27667	2
0.28033	2
0.28400	2
0.28767	2
0.29133	2
0.29500	2
0.29867	1
0.30233	1
0.30600	1
0.30967	1
0.31333	0
0.31700	-0
0.32067	-1
0.32433	-1
0.32800	-1
0.33167	-1
0.33533	-1
0.33900	-0
0.34267	-0
0.34633	0
0.35000	0
0.35367	0
0.35733	0
0.36100	0
0.36467	0
0.36833	0
0.37200	0
0.37567	0
0.37933	1
0.38300	1
0.38667	1
0.39033	1
0.39400	1
0.39767	1
0.40133	1
0.40500	1
0.40867	2
0.41233	2
0.41600	2
0.41967	2
0.42333	2
0.42700	2
0.43067	2
0.43433	2
0.43800	2
0.44167	1
0.44533	1
0.44900	2
0.45267	2
0.45633	2
0.46000	2
0.46367	2
0.46733	2
0.47100	2
0.47467	1
0.47833	1
0.48200	1
0.48567	1
0.48933	2
0.49300	2
0.49667	2
0.50033	1
0.50400	1
0.50767	1
0.51133	1
0.51500	1
0.51867	1
0.52233	1
0.52600	1
0.52967	1
0.53333	1
0.53700	0
0.54067	0
0.54433	1
0.54800	0
0.55167	0
0.55533	0
0.55900	0
0.56267	0
0.56633	1
0.57000	1
0.57367	0
0.57733	0
0.58100	0
0.58467	0
0.58833	0
0.59200	1
0.59567	1
0.59933	1
0.60300	1
0.60667	1
0.61033	2
0.61400	2
0.61767	2
0.62133	2
0.62500	2
0.62867	2
0.63233	2
0.63600	2
0.63967	2
0.64333	2
0.64700	2
0.65067	2
0.65433	2
0.65800	2
0.66167	2
0.66533	1
0.66900	1
0.67267	1
0.67633	1
0.68000	1
0.68367	2
0.68733	2
0.69100	2
0.69467	2
0.69833	2
0.70200	2
0.70567	2
0.70933	2
0.71300	2
0.71667	2
0.72033	2
0.72400	2
0.72767	2
0.73133	2
0.73500	2
0.73867	2
0.74233	2
0.74600	2
0.74967	2
0.75333	2
0.75700	2
0.76067	2
0.76433	1
0.76800	1
0.77167	1
0.77533	1
0.77900	1
0.78267	0
0.78633	0
0.79000	0
0.79367	1
0.79733	1
0.80100	1
0.80467	1
0.80833	1
0.81200	1
0.81567	1
0.81933	0
0.82300	-0
0.82667	-0
0.83033	-0
0.83400	-0
0.83767	0
0.84133	0
0.84500	1
0.84867	1
0.85233	1
0.85600	1
0.85967	1
0.86333	1
0.86700	1
0.87067	1
0.87433	1
0.87800	1
0.88167	1
0.88533	1
0.88900	1
0.89267	1
0.89633	2
0.90000	2
0.90367	2
0.90733	2
0.91100	2
0.91467	2
0.91833	2
0.92200	2
0.92567	2
0.92933	2
0.93300	1
0.93667	1
0.94033	1
0.94400	0
0.94767	0
0.95133	-0
0.95500	-0
0.95867	-0
0.96233	-0
0.96600	-0
0.96967	-0
0.97333	0
0.97700	0
0.98067	0
0.98433	-0
0.98800	-0
0.99167	-0
0.99533	-1
0.99900	-1
1.00267	-1
1.00633	-1
1.01000	-1
1.01367	-1
1.01733	-1
1.02100	-1
1.02467	-1
1.02833	-1
1.03200	-2
1.03567	-2
1.03933	-2
1.04300	-3
1.04667	-3
1.05033	-3
1.05400	-3
1.05767	-3
1.06133	-3
1.06500	-3
1.06867	-3
1.07233	-3
1.07600	-3
1.07967	-2
1.08333	-2
1.08700	-2
1.09067	-1
1.09433	-1
1.09800	-1
1.10167	-1
1.10533	-0
1.10900	-0
1.11267	0
1.11633	0
1.12000	0
1.12367	0
1.12733	0
1.13100	0
1.13467	0
1.13833	0
1.14200	0
1.14567	0
1.14933	0
1.15300	0
1.15667	0
1.16033	1
1.16400	1
1.16767	1
1.17133	1
1.17500	1
1.17867	1
1.18233	1
1.18600	1
1.18967	0
1.19333	-0
1.19700	-1
1.20067	-1
1.20433	-1
1.20800	-2
1.21167	-2
1.21533	-3
1.21900	-3
1.22267	-3
1.22633	-3
1.23000	-3
1.23367	-3
1.23733	-2
1.24100	-3
1.24467	-3
1.24833	-2
1.25200	-2
1.25567	-2
1.25933	-2
1.26300	-2
1.26667	-2
1.27033	-1
1.27400	-1
1.27767	-1
1.28133	-1
1.28500	-1
1.28867	-2
1.29233	-2
1.29600	-3
1.29967	-3
1.30333	-3
1.30700	-3
1.31067	-3
1.31433	-3
1.31800	-3
1.32167	-3
1.32533	-3
1.32900	-3
1.33267	-3
1.33633	-3
1.34000	-3
1.34367	-3
1.34733	-3
1.35100	-3
1.35467	-3
1.35833	-3
1.36200	-3
1.36567	-2
1.36933	-2
1.37300	-2
1.37667	-2
1.38033	-2
1.38400	-2
1.38767	-2
1.39133	-1
1.39500	-1
1.39867	-1
1.40233	-1
1.40600	-1
1.40967	-1
1.41333	-1
1.41700	-0
1.42067	-0
1.42433	-0
1.42800	-0
1.43167	-0
1.43533	-0
1.43900	-1
1.44267	-1
1.44633	-0
1.45000	-0
1.45367	-0
1.45733	-0
1.46100	-0
1.46467	-0
1.46833	-1
1.47200	-1
1.47567	-1
1.47933	-1
1.48300	-1
1.48667	-1
1.49033	-1
1.49400	-0
1.49767	-0
1.50133	0
1.50500	1
1.50867	1
1.51233	1
1.51600	1
1.51967	1
1.52333	0
1.52700	0
1.53067	-0
1.53433	-0
1.53800	-1
1.54167	-1
1.54533	-1
1.54900	-2
1.55267	-2
1.55633	-2
1.56000	-2
1.56367	-1
1.56733	-1
1.57100	-1
1.57467	-1
1.57833	-1
1.58200	-1
1.58567	-1
1.58933	-1
1.59300	-1
1.59667	-2
1.60033	-3
1.60400	-4
1.60767	-5
1.61133	-6
1.61500	-8
1.61867	-10
1.62233	-13
1.62600	-15
1.62967	-18
1.63333	-21
1.63700	-24
1.64067	-27
1.64433	-30
1.64800	-34
1.65167	-38
1.65533	-41
1.65900	-45
1.66267	-50
1.66633	-54
1.67000	-59
1.67367	-64
1.67733	-68
1.68100	-73
1.68467	-77
1.68833	-81
1.69200	-85
1.69567	-88
1.69933	-90
1.70300	-92
1.70667	-94
1.71033	-95
1.71400	-96
1.71767	-97
1.72133	-98
1.72500	-98
1.72867	-99
1.73233	-100
1.73600	-100
1.73967	-101
1.74333	-102
1.74700	-102
1.75067	-103
1.75433	-103
1.75800	-103
1.76167	-104
1.76533	-104
1.76900	-104
1.77267	-104
1.77633	-104
1.78000	-105
1.78367	-105
1.78733	-105
1.79100	-105
1.79467	-104
1.79833	-104
1.80200	-104
1.80567	-103
1.80933	-103
1.81300	-104
1.81667	-104
1.82033	-105
1.82400	-105
1.82767	-105
1.83133	-105
1.83500	-105
1.83867	-105
1.84233	-105
1.84600	-105
1.84967	-105
1.85333	-105
1.85700	-105
1.86067	-105
1.86433	-105
1.86800	-105
1.87167	-105
1.87533	-104
1.87900	-104
1.88267	-103
1.88633	-103
1.89000	-102
1.89367	-102
1.89733	-102
1.90100	-103
1.90467	-103
1.90833	-103
1.91200	-103
1.91567	-103
1.91933	-103
1.92300	-103
1.92667	-103
1.93033	-102
1.93400	-102
1.93767	-102
1.94133	-102
1.94500	-102
1.94867	-102
1.95233	-101
1.95600	-100
1.95967	-99
1.96333	-99
1.96700	-98
1.97067	-98
1.97433	-98
1.97800	-98
1.98167	-98
1.98533	-98
1.98900	-98
1.99267	-99
1.99633	-99
2.00000	-99
2.00367	-98
2.00733	-98
2.01100	-97
2.01467	-97
2.01833	-97
2.02200	-97
2.02567	-96
2.02933	-96
2.03300	-96
2.03667	-95
2.04033	-94
2.04400	-93
2.04767	-93
2.05133	-92
2.05500	-92
2.05867	-91
2.06233	-91
2.06600	-90
2.06967	-90
2.07333	-90
2.07700	-89
2.08067	-89
2.08433	-88
2.08800	-88
2.09167	-88
2.09533	-89
2.09900	-89
2.10267	-89
2.10633	-89
2.11000	-89
2.11367	-89
2.11733	-89
2.12100	-89
2.12467	-89
2.12833	-88
2.13200	-88
2.13567	-87
2.13933	-87
2.14300	-86
2.14667	-86
2.15033	-86
2.15400	-85
2.15767	-85
2.16133	-85
2.16500	-85
2.16867	-85
2.17233	-85
2.17600	-85
2.17967	-85
2.18333	-85
2.18700	-85
2.19067	-84
2.19433	-84
2.19800	-84
2.20167	-83
2.20533	-83
2.20900	-82
2.21267	-81
2.21633	-81
2.22000	-81
2.22367	-81
2.22733	-82
2.23100	-82
2.23467	-83
2.23833	-82
2.24200	-82
2.24567	-81
2.24933	-81
2.25300	-80
2.25667	-79
2.26033	-78
2.26400	-77
2.26767	-77
2.27133	-76
2.27500	-77
2.27867	-77
2.28233	-77
2.28600	-77
2.28967	-77
2.29333	-76
2.29700	-75
2.30067	-74
2.30433	-74
2.30800	-73
2.31167	-73
2.31533	-73
2.31900	-72
2.32267	-72
2.32633	-72
2.33000	-72
2.33367	-73
2.33733	-72
2.34100	-72
2.34467	-70
2.34833	-69
2.35200	-68
2.35567	-68
2.35933	-67
2.36300	-66
2.36667	-65
2.37033	-64
2.37400	-62
2.37767	-59
2.38133	-56
2.38500	-52
2.38867	-48
2.39233	-44
2.39600	-39
2.39967	-35
2.40333	-30
2.40700	-26
2.41067	-22
2.41433	-18
2.41800	-14
2.42167	-11
2.42533	-8
2.42900	-6
2.43267	-4
2.43633	-2
2.44000	-0
2.44367	1
2.44733	3
2.45100	5
2.45467	6
2.45833	7
2.46200	8
2.46567	9
2.46933	9
2.47300	10
2.47667	10
2.48033	10
2.48400	11
2.48767	11
2.49133	11
2.49500	12
2.49867	12
2.50233	12
2.50600	13
2.50967	13
2.51333	13
2.51700	13
2.52067	13
2.52433	12
2.52800	11
2.53167	10
2.53533	10
2.53900	10
2.54267	10
2.54633	10
2.55000	11
2.55367	12
2.55733	13
2.56100	14
2.56467	15
2.56833	15
2.57200	15
2.57567	15
2.57933	15
2.58300	15
2.58667	15
2.59033	15
2.59400	16
2.59767	17
2.60133	17
2.60500	18
2.60867	18
2.61233	18
2.61600	19
2.61967	19
2.62333	19
2.62700	20
2.63067	20
2.63433	21
2.63800	21
2.64167	21
2.64533	22
2.64900	22
2.65267	22
2.65633	22
2.66000	22
2.66367	22
2.66733	23
2.67100	23
2.67467	23
2.67833	23
2.68200	23
2.68567	23
2.68933	24
2.69300	24
2.69667	24
2.70033	24
2.70400	25
2.70767	25
2.71133	25
2.71500	25
2.71867	25
2.72233	25
2.72600	26
2.72967	26
2.73333	26
2.73700	27
2.74067	28
2.74433	28
2.74800	28
2.75167	28
2.75533	29
2.75900	29
2.76267	29
2.76633	29
2.77000	29
2.77367	29
2.77733	28
2.78100	28
2.78467	28
2.78833	28
2.79200	28
2.79567	28
2.79933	28
2.80300	28
2.80667	28
2.81033	28
2.81400	28
2.81767	28
2.82133	28
2.82500	28
2.82867	29
2.83233	29
2.83600	29
2.83967	29
2.84333	30
2.84700	30
2.85067	30
2.85433	30
2.85800	30
2.86167	29
2.86533	27
2.86900	23
2.87267	16
2.87633	6
2.88000	-8
2.88367	-27
2.88733	-50
2.89100	-79
2.89467	-114
2.89833	-153
2.90200	-197
2.90567	-245
2.90933	-298
2.91300	-353
2.91667	-411
2.92033	-472
2.92400	-533
2.92767	-595
2.93133	-657
2.93500	-718
2.93867	-777
2.94233	-833
2.94600	-885
2.94967	-937
2.95333	-993
2.95700	-1047
2.96067	-1092
2.96433	-1117
2.96800	-1118
2.97167	-1093
2.97533	-1046
2.97900	-983
2.98267	-908
2.98633	-828
2.99000	-746
2.99367	-666
2.99733	-589
3.00100	-517
3.00467	-451
3.00833	-392
3.01200	-338
3.01567	-291
3.01933	-249
3.02300	-212
3.02667	-180
3.03033	-153
3.03400	-129
3.03767	-108
3.04133	-90
3.04500	-75
3.04867	-61
3.05233	-50
3.05600	-40
3.05967	-32
3.06333	-25
3.06700	-19
3.07067	-14
3.07433	-9
3.07800	-5
3.08167	-2
3.08533	1
3.08900	3
3.09267	5
3.09633	7
3.10000	8
3.10367	10
3.10733	11
3.11100	12
3.11467	13
3.11833	14
3.12200	15
3.12567	16
3.12933	17
3.13300	18
3.13667	18
3.14033	19
3.14400	19
3.14767	20
3.15133	20
3.15500	20
3.15867	20
3.16233	21
3.16600	21
3.16967	21
3.17333	22
3.17700	22
3.18067	22
3.18433	22
3.18800	22
3.19167	22
3.19533	23
3.19900	23
3.20267	23
3.20633	23
3.21000	24
3.21367	24
3.21733	24
3.22100	25
3.22467	25
3.22833	25
3.23200	25
3.23567	25
3.23933	25
3.24300	25
3.24667	25
3.25033	25
3.25400	25
3.25767	25
3.26133	25
3.26500	25
3.26867	26
3.27233	26
3.27600	26
3.27967	26
3.28333	26
3.28700	26
3.29067	26
3.29433	26
3.29800	27
3.30167	27
3.30533	27
3.30900	27
3.31267	27
3.31633	27
3.32000	28
3.32367	28
3.32733	29
3.33100	29
3.33467	29
3.33833	30
3.34200	30
3.34567	30
3.34933	30
3.35300	30
3.35667	30
3.36033	30
3.36400	30
3.36767	30
3.37133	31
3.37500	31
3.37867	31
3.38233	31
3.38600	31
3.38967	32
3.39333	32
3.39700	31
3.40067	31
3.40433	31
3.40800	31
3.41167	31
3.41533	31
3.41900	31
3.42267	30
3.42633	30
3.43000	30
3.43367	30
3.43733	30
3.44100	30
3.44467	30
3.44833	30
3.45200	30
3.45567	30
3.45933	30
3.46300	30
3.46667	29
3.47033	30
3.47400	30
3.47767	29
3.48133	29
3.48500	29
3.48867	29
3.49233	29
3.49600	29
3.49967	30
3.50333	30
3.50700	30
3.51067	30
3.51433	30
3.51800	30
3.52167	30
3.52533	30
3.52900	30
3.53267	30
3.53633	30
3.54000	30
3.54367	30
3.54733	30
3.55100	29
3.55467	29
3.55833	29
3.56200	29
3.56567	30
3.56933	30
3.57300	30
3.57667	30
3.58033	30
3.58400	30
3.58767	30
3.59133	30
3.59500	30
3.59867	31
3.60233	31
3.60600	31
3.60967	31
3.61333	31
3.61700	31
3.62067	31
3.62433	31
3.62800	30
3.63167	30
3.63533	30
3.63900	30
3.64267	30
3.64633	30
3.65000	30
3.65367	30
3.65733	30
3.66100	30
3.66467	30
3.66833	30
3.67200	30
3.67567	30
3.67933	30
3.68300	30
3.68667	30
3.69033	30
3.69400	30
3.69767	30
3.70133	30
3.70500	31
3.70867	31
3.71233	31
3.71600	31
3.71967	31
3.72333	31
3.72700	31
3.73067	31
3.73433	31
3.73800	31
3.74167	31
3.74533	31
3.74900	31
3.75267	31
3.75633	31
3.76000	31
3.76367	31
3.76733	31
3.77100	31
3.77467	31
3.77833	31
3.78200	31
3.78567	31
3.78933	31
3.79300	31
3.79667	31
3.80033	31
3.80400	31
3.80767	31
3.81133	31
3.81500	30
3.81867	30
3.82233	30
3.82600	30
3.82967	30
3.83333	30
3.83700	30
3.84067	30
3.84433	30
3.84800	30
3.85167	30
3.85533	30
3.85900	30
3.86267	30
3.86633	29
3.87000	29
3.87367	29
3.87733	29
3.88100	29
3.88467	29
3.88833	29
3.89200	29
3.89567	29
3.89933	29
3.90300	29
3.90667	30
3.91033	29
3.91400	29
3.91767	29
3.92133	30
3.92500	30
3.92867	30
3.93233	30
3.93600	30
3.93967	30
3.94333	30
3.94700	31
3.95067	31
3.95433	31
3.95800	31
3.96167	31
3.96533	31
3.96900	31
3.97267	31
3.97633	31
3.98000	31
3.98367	32
3.98733	32
3.99100	32
3.99467	32
3.99833	31

[Chromatogram (Ch3)]
Interval(msec)	220
# of Points	1091
Start Time(min)	0.002
End Time(min)	3.998
R.Time (min)	Intensity
0.00167	-1
0.00533	-1
0.00900	0
0.01267	-0
0.01633	-1
0.02000	1
0.02367	2
0.02733	3
0.03100	4
0.03467	6
0.03833	8
0.04200	9
0.04567	9
0.04933	10
0.05300	9
0.05667	6
0.06033	3
0.06400	1
0.06767	-0
0.07133	-2
0.07500	0
0.07867	4
0.08233	3
0.08600	2
0.08967	5
0.09333	7
0.09700	6
0.10067	4
0.10433	4
0.10800	3
0.11167	-1
0.11533	-3
0.11900	-4
0.12267	-4
0.12633	-4
0.13000	-1
0.13367	1
0.13733	2
0.14100	3
0.14467	4
0.14833	4
0.15200	2
0.15567	1
0.15933	0
0.16300	1
0.16667	2
0.17033	4
0.17400	4
0.17767	4
0.18133	1
0.18500	-1
0.18867	-1
0.19233	-1
0.19600	1
0.19967	3
0.20333	5
0.20700	2
0.21067	1
0.21433	2
0.21800	1
0.22167	1
0.22533	2
0.22900	3
0.23267	3
0.23633	4
0.24000	6
0.24367	5
0.24733	3
0.25100	2
0.25467	3
0.25833	3
0.26200	4
0.26567	5
0.26933	6
0.27300	5
0.27667	6
0.28033	8
0.28400	9
0.28767	7
0.29133	7
0.29500	5
0.29867	4
0.30233	4
0.30600	5
0.30967	5
0.31333	5
0.31700	7
0.32067	7
0.32433	8
0.32800	9
0.33167	12
0.33533	14
0.33900	14
0.34267	14
0.34633	15
0.35000	14
0.35367	13
0.35733	12
0.36100	9
0.36467	6
0.36833	5
0.37200	7
0.37567	8
0.37933	7
0.38300	7
0.38667	7
0.39033	7
0.39400	6
0.39767	6
0.40133	6
0.40500	8
0.40867	10
0.41233	10
0.41600	11
0.41967	11
0.42333	11
0.42700	9
0.43067	9
0.43433	8
0.43800	6
0.44167	4
0.44533	4
0.44900	5
0.45267	5
0.45633	6
0.46000	7
0.46367	7
0.46733	7
0.47100	7
0.47467	8
0.47833	9
0.48200	10
0.48567	8
0.48933	8
0.49300	8
0.49667	9
0.50033	9
0.50400	9
0.50767	10
0.51133	10
0.51500	10
0.51867	10
0.52233	11
0.52600	11
0.52967	10
0.53333	11
0.53700	14
0.54067	14
0.54433	13
0.54800	11
0.55167	11
0.55533	10
0.55900	10
0.56267	11
0.56633	13
0.57000	13
0.57367	12
0.57733	12
0.58100	11
0.58467	10
0.58833	10
0.59200	11
0.59567	12
0.59933	15
0.60300	15
0.60667	14
0.61033	16
0.61400	18
0.61767	18
0.62133	17
0.62500	17
0.62867	16
0.63233	17
0.63600	19
0.63967	19
0.64333	18
0.64700	17
0.65067	18
0.65433	16
0.65800	15
0.66167	16
0.66533	18
0.66900	19
0.67267	20
0.67633	20
0.68000	18
0.68367	17
0.68733	17
0.69100	19
0.69467	21
0.69833	22
0.70200	20
0.70567	19
0.70933	21
0.71300	20
0.71667	18
0.72033	19
0.72400	20
0.72767	21
0.73133	23
0.73500	24
0.73867	24
0.74233	23
0.74600	20
0.74967	19
0.75333	19
0.75700	19
0.76067	19
0.76433	20
0.76800	20
0.77167	20
0.77533	19
0.77900	18
0.78267	18
0.78633	18
0.79000	19
0.79367	21
0.79733	23
0.80100	25
0.80467	26
0.80833	24
0.81200	22
0.81567	22
0.81933	22
0.82300	22
0.82667	22
0.83033	22
0.83400	24
0.83767	26
0.84133	28
0.84500	27
0.84867	24
0.85233	22
0.85600	21
0.85967	21
0.86333	20
0.86700	20
0.87067	19
0.87433	20
0.87800	23
0.88167	26
0.88533	27
0.88900	28
0.89267	27
0.89633	27
0.90000	28
0.90367	28
0.90733	24
0.91100	23
0.91467	24
0.91833	25
0.92200	27
0.92567	29
0.92933	26
0.93300	25
0.93667	24
0.94033	25
0.94400	25
0.94767	25
0.95133	24
0.95500	24
0.95867	23
0.96233	22
0.96600	22
0.96967	24
0.97333	24
0.97700	22
0.98067	22
0.98433	20
0.98800	21
0.99167	24
0.99533	23
0.99900	23
1.00267	24
1.00633	24
1.01000	22
1.01367	22
1.01733	21
1.02100	22
1.02467	23
1.02833	22
1.03200	24
1.03567	27
1.03933	27
1.04300	26
1.04667	25
1.05033	24
1.05400	26
1.05767	28
1.06133	29
1.06500	28
1.06867	28
1.07233	29
1.07600	28
1.07967	29
1.08333	29
1.08700	30
1.09067	32
1.09433	34
1.09800	33
1.10167	31
1.10533	29
1.10900	28
1.11267	26
1.11633	25
1.12000	25
1.12367	24
1.12733	24
1.13100	25
1.13467	26
1.13833	27
1.14200	28
1.14567	29
1.14933	29
1.15300	30
1.15667	31
1.16033	32
1.16400	30
1.16767	26
1.17133	25
1.17500	26
1.17867	27
1.18233	28
1.18600	29
1.18967	29
1.19333	29
1.19700	31
1.20067	30
1.20433	31
1.20800	31
1.21167	32
1.21533	32
1.21900	32
1.22267	31
1.22633	31
1.23000	30
1.23367	31
1.23733	32
1.24100	35
1.24467	34
1.24833	35
1.25200	36
1.25567	35
1.25933	34
1.26300	32
1.26667	30
1.27033	32
1.27400	34
1.27767	35
1.28133	34
1.28500	34
1.28867	32
1.29233	32
1.29600	33
1.29967	33
1.30333	31
1.30700	29
1.31067	27
1.31433	29
1.31800	30
1.32167	31
1.32533	28
1.32900	27
1.33267	28
1.33633	28
1.34000	27
1.34367	27
1.34733	29
1.35100	31
1.35467	32
1.35833	32
1.36200	31
1.36567	30
1.36933	28
1.37300	27
1.37667	28
1.38033	30
1.38400	31
1.38767	31
1.39133	30
1.39500	31
1.39867	32
1.40233	31
1.40600	29
1.40967	28
1.41333	28
1.41700	27
1.42067	25
1.42433	23
1.42800	25
1.43167	28
1.43533	28
1.43900	29
1.44267	31
1.44633	30
1.45000	32
1.45367	33
1.45733	32
1.46100	32
1.46467	30
1.46833	28
1.47200	27
1.47567	26
1.47933	26
1.48300	25
1.48667	24
1.49033	24
1.49400	25
1.49767	26
1.50133	26
1.50500	28
1.50867	29
1.51233	28
1.51600	26
1.51967	26
1.52333	27
1.52700	30
1.53067	32
1.53433	33
1.53800	33
1.54167	33
1.54533	31
1.54900	28
1.55267	26
1.55633	27
1.56000	28
1.56367	28
1.56733	27
1.57100	28
1.57467	29
1.57833	28
1.58200	29
1.58567	31
1.58933	32
1.59300	32
1.59667	31
1.60033	31
1.60400	31
1.60767	30
1.61133	29
1.61500	31
1.61867	32
1.62233	32
1.62600	32
1.62967	33
1.63333	34
1.63700	36
1.64067	36
1.64433	35
1.64800	35
1.65167	35
1.65533	34
1.65900	33
1.66267	35
1.66633	37
1.67000	40
1.67367	43
1.67733	45
1.68100	44
1.68467	43
1.68833	42
1.69200	41
1.69567	41
1.69933	41
1.70300	41
1.70667	40
1.71033	40
1.71400	41
1.71767	42
1.72133	40
1.72500	40
1.72867	42
1.73233	42
1.73600	41
1.73967	41
1.74333	42
1.74700	43
1.75067	45
1.75433	46
1.75800	49
1.76167	49
1.76533	47
1.76900	48
1.77267	48
1.77633	49
1.78000	50
1.78367	49
1.78733	48
1.79100	49
1.79467	49
1.79833	51
1.80200	52
1.80567	52
1.80933	50
1.81300	50
1.81667	51
1.82033	52
1.82400	52
1.82767	52
1.83133	52
1.83500	50
1.83867	48
1.84233	47
1.84600	48
1.84967	51
1.85333	53
1.85700	55
1.86067	57
1.86433	58
1.86800	58
1.87167	58
1.87533	58
1.87900	60
1.88267	59
1.88633	56
1.89000	56
1.89367	56
1.89733	56
1.90100	59
1.90467	61
1.90833	60
1.91200	61
1.91567	62
1.91933	62
1.92300	62
1.92667	62
1.93033	64
1.93400	66
1.93767	68
1.94133	67
1.94500	68
1.94867	69
1.95233	68
1.95600	68
1.95967	70
1.96333	72
1.96700	73
1.97067	75
1.97433	76
1.97800	77
1.98167	78
1.98533	79
1.98900	80
1.99267	81
1.99633	80
2.00000	80
2.00367	80
2.00733	80
2.01100	79
2.01467	80
2.01833	80
2.02200	81
2.02567	81
2.02933	82
2.03300	85
2.03667	87
2.04033	89
2.04400	89
2.04767	90
2.05133	91
2.05500	93
2.05867	93
2.06233	94
2.06600	94
2.06967	92
2.07333	92
2.07700	93
2.08067	93
2.08433	92
2.08800	94
2.09167	95
2.09533	98
2.09900	100
2.10267	102
2.10633	103
2.11000	103
2.11367	101
2.11733	100
2.12100	102
2.12467	104
2.12833	103
2.13200	104
2.13567	108
2.13933	110
2.14300	110
2.14667	111
2.15033	114
2.15400	115
2.15767	114
2.16133	115
2.16500	116
2.16867	116
2.17233	117
2.17600	118
2.17967	115
2.18333	112
2.18700	113
2.19067	116
2.19433	116
2.19800	118
2.20167	120
2.20533	123
2.20900	124
2.21267	124
2.21633	125
2.22000	123
2.22367	123
2.22733	124
2.23100	124
2.23467	124
2.23833	124
2.24200	124
2.24567	123
2.24933	124
2.25300	126
2.25667	127
2.26033	129
2.26400	129
2.26767	127
2.27133	129
2.27500	131
2.27867	134
2.28233	137
2.28600	138
2.28967	137
2.29333	135
2.29700	135
2.30067	138
2.30433	142
2.30800	142
2.31167	141
2.31533	140
2.31900	139
2.32267	140
2.32633	142
2.33000	144
2.33367	145
2.33733	148
2.34100	148
2.34467	148
2.34833	146
2.35200	147
2.35567	149
2.35933	150
2.36300	149
2.36667	149
2.37033	148
2.37400	147
2.37767	144
2.38133	144
2.38500	144
2.38867	146
2.39233	146
2.39600	145
2.39967	144
2.40333	146
2.40700	151
2.41067	153
2.41433	153
2.41800	153
2.42167	151
2.42533	152
2.42900	153
2.43267	152
2.43633	149
2.44000	152
2.44367	192
2.44733	271
2.45100	349
2.45467	409
2.45833	436
2.46200	433
2.46567	420
2.46933	412
2.47300	407
2.47667	397
2.48033	377
2.48400	353
2.48767	330
2.49133	309
2.49500	292
2.49867	281
2.50233	274
2.50600	271
2.50967	274
2.51333	280
2.51700	286
2.52067	287
2.52433	285
2.52800	281
2.53167	272
2.53533	262
2.53900	249
2.54267	236
2.54633	222
2.55000	209
2.55367	199
2.55733	192
2.56100	190
2.56467	191
2.56833	192
2.57200	193
2.57567	193
2.57933	195
2.58300	198
2.58667	201
2.59033	204
2.59400	207
2.59767	212
2.60133	220
2.60500	228
2.60867	236
2.61233	243
2.61600	247
2.61967	250
2.62333	250
2.62700	245
2.63067	238
2.63433	230
2.63800	218
2.64167	207
2.64533	197
2.64900	189
2.65267	181
2.65633	174
2.66000	167
2.66367	159
2.66733	154
2.67100	151
2.67467	149
2.67833	149
2.68200	151
2.68567	151
2.68933	151
2.69300	152
2.69667	151
2.70033	150
2.70400	150
2.70767	149
2.71133	149
2.71500	150
2.71867	154
2.72233	157
2.72600	159
2.72967	160
2.73333	159
2.73700	159
2.74067	160
2.74433	161
2.74800	160
2.75167	161
2.75533	163
2.75900	166
2.76267	166
2.76633	166
2.77000	169
2.77367	172
2.77733	175
2.78100	177
2.78467	179
2.78833	183
2.79200	183
2.79567	183
2.79933	185
2.80300	189
2.80667	192
2.81033	196
2.81400	199
2.81767	201
2.82133	202
2.82500	205
2.82867	209
2.83233	214
2.83600	225
2.83967	250
2.84333	305
2.84700	409
2.85067	583
2.85433	847
2.85800	1213
2.86167	1680
2.86533	2231
2.86900	2821
2.87267	3406
2.87633	3937
2.88000	4370
2.88367	4677
2.88733	4843
2.89100	4865
2.89467	4762
2.89833	4561
2.90200	4288
2.90567	3969
2.90933	3628
2.91300	3285
2.91667	2951
2.92033	2635
2.92400	2342
2.92767	2076
2.93133	1837
2.93500	1626
2.93867	1437
2.94233	1272
2.94600	1127
2.94967	997
2.95333	878
2.95700	757
2.96067	647
2.96433	563
2.96800	505
2.97167	464
2.97533	436
2.97900	418
2.98267	406
2.98633	404
2.99000	409
2.99367	422
2.99733	440
3.00100	458
3.00467	476
3.00833	493
3.01200	507
3.01567	519
3.01933	531
3.02300	541
3.02667	550
3.03033	557
3.03400	565
3.03767	572
3.04133	578
3.04500	581
3.04867	583
3.05233	584
3.05600	584
3.05967	585
3.06333	585
3.06700	586
3.07067	590
3.07433	594
3.07800	595
3.08167	595
3.08533	595
3.08900	596
3.09267	597
3.09633	596
3.10000	597
3.10367	598
3.10733	599
3.11100	600
3.11467	601
3.11833	600
3.12200	598
3.12567	598
3.12933	599
3.13300	601
3.13667	600
3.14033	600
3.14400	600
3.14767	604
3.15133	606
3.15500	606
3.15867	610
3.16233	615
3.16600	619
3.16967	622
3.17333	623
3.17700	624
3.18067	626
3.18433	627
3.18800	629
3.19167	633
3.19533	639
3.19900	641
3.20267	643
3.20633	644
3.21000	644
3.21367	644
3.21733	646
3.22100	649
3.22467	652
3.22833	651
3.23200	649
3.23567	648
3.23933	648
3.24300	648
3.24667	648
3.25033	649
3.25400	650
3.25767	653
3.26133	656
3.26500	659
3.26867	658
3.27233	656
3.27600	654
3.27967	652
3.28333	651
3.28700	647
3.29067	645
3.29433	645
3.29800	644
3.30167	642
3.30533	640
3.30900	639
3.31267	640
3.31633	639
3.32000	637
3.32367	635
3.32733	633
3.33100	631
3.33467	629
3.33833	627
3.34200	623
3.34567	619
3.34933	619
3.35300	619
3.35667	618
3.36033	617
3.36400	615
3.36767	611
3.37133	609
3.37500	609
3.37867	605
3.38233	603
3.38600	602
3.38967	601
3.39333	601
3.39700	600
3.40067	600
3.40433	599
3.40800	599
3.41167	598
3.41533	599
3.41900	599
3.42267	596
3.42633	594
3.43000	595
3.43367	594
3.43733	591
3.44100	590
3.44467	588
3.44833	586
3.45200	586
3.45567	585
3.45933	586
3.46300	585
3.46667	585
3.47033	584
3.47400	584
3.47767	582
3.48133	578
3.48500	574
3.48867	571
3.49233	568
3.49600	568
3.49967	567
3.50333	565
3.50700	563
3.51067	563
3.51433	563
3.51800	562
3.52167	560
3.52533	558
3.52900	556
3.53267	554
3.53633	552
3.54000	549
3.54367	544
3.54733	544
3.55100	543
3.55467	540
3.55833	539
3.56200	539
3.56567	539
3.56933	536
3.57300	533
3.57667	532
3.58033	532
3.58400	531
3.58767	529
3.59133	527
3.59500	526
3.59867	526
3.60233	527
3.60600	528
3.60967	528
3.61333	527
3.61700	524
3.62067	524
3.62433	522
3.62800	519
3.63167	515
3.63533	513
3.63900	511
3.64267	510
3.64633	509
3.65000	508
3.65367	505
3.65733	503
3.66100	504
3.66467	504
3.66833	504
3.67200	504
3.67567	504
3.67933	503
3.68300	503
3.68667	502
3.69033	502
3.69400	498
3.69767	493
3.70133	490
3.70500	489
3.70867	489
3.71233	488
3.71600	487
3.71967	486
3.72333	486
3.72700	485
3.73067	484
3.73433	483
3.73800	483
3.74167	482
3.74533	479
3.74900	477
3.75267	477
3.75633	476
3.76000	475
3.76367	473
3.76733	470
3.77100	468
3.77467	468
3.77833	468
3.78200	469
3.78567	471
3.78933	473
3.79300	472
3.79667	470
3.80033	470
3.80400	469
3.80767	467
3.81133	466
3.81500	465
3.81867	464
3.82233	462
3.82600	462
3.82967	460
3.83333	460
3.83700	459
3.84067	455
3.84433	454
3.84800	455
3.85167	456
3.85533	456
3.85900	457
3.86267	456
3.86633	455
3.87000	453
3.87367	452
3.87733	453
3.88100	452
3.88467	452
3.88833	452
3.89200	451
3.89567	451
3.89933	450
3.90300	448
3.90667	447
3.91033	447
3.91400	445
3.91767	444
3.92133	444
3.92500	443
3.92867	442
3.93233	442
3.93600	442
3.93967	442
3.94333	440
3.94700	438
3.95067	438
3.95433	437
3.95800	438
3.96167	438
3.96533	438
3.96900	437
3.97267	436
3.97633	435
3.98000	434
3.98367	432
3.98733	430
3.99100	429
3.99467	430
3.99833	428

[Status Trace (Column Oven Temperature)]
Interval(msec)	1000
# of Points	240
Start Time(min)	0.008
End Time(min)	3.991
Intensity Units	
Intensity Multiplier	1
R.Time (min)	Intensity
0.00815	35.10
0.02482	35.11
0.04148	35.11
0.05815	35.09
0.07482	35.08
0.09148	35.06
0.10815	35.05
0.12482	35.04
0.14148	35.04
0.15815	35.02
0.17482	35.02
0.19148	35.02
0.20815	35.01
0.22482	35.00
0.24148	35.00
0.25815	35.00
0.27482	35.00
0.29148	35.01
0.30815	35.01
0.32482	35.02
0.34148	35.02
0.35815	35.02
0.37482	35.02
0.39148	35.02
0.40815	35.02
0.42482	35.01
0.44148	35.02
0.45815	35.02
0.47482	35.01
0.49148	35.01
0.50815	35.01
0.52482	35.02
0.54148	35.02
0.55815	35.03
0.57482	35.04
0.59148	35.04
0.60815	35.02
0.62482	35.02
0.64148	35.02
0.65815	35.02
0.67482	35.01
0.69148	35.01
0.70815	35.01
0.72482	35.01
0.74148	35.00
0.75815	34.99
0.77482	34.99
0.79148	34.99
0.80815	35.00
0.82482	34.99
0.84148	35.00
0.85815	34.99
0.87482	34.98
0.89148	34.97
0.90815	34.97
0.92482	34.97
0.94148	34.97
0.95815	34.97
0.97482	34.96
0.99148	34.97
1.00815	34.97
1.02482	34.97
1.04148	34.98
1.05815	34.99
1.07482	35.00
1.09148	35.00
1.10815	34.99
1.12482	34.99
1.14148	34.98
1.15815	34.98
1.17482	34.98
1.19148	34.98
1.20815	35.00
1.22482	35.00
1.24148	35.00
1.25815	35.00
1.27482	35.00
1.29148	35.00
1.30815	35.02
1.32482	35.01
1.34148	35.02
1.35815	35.03
1.37482	35.03
1.39148	35.03
1.40815	35.02
1.42482	35.01
1.44148	35.01
1.45815	35.00
1.47482	35.00
1.49148	34.99
1.50815	34.99
1.52482	34.99
1.54148	35.00
1.55815	35.00
1.57482	35.00
1.59148	35.02
1.60815	35.06
1.62482	35.17
1.64148	35.34
1.65815	35.59
1.67482	35.93
1.69148	36.30
1.70815	36.65
1.72482	36.99
1.74148	37.33
1.75815	37.66
1.77482	38.00
1.79148	38.33
1.80815	38.65
1.82482	38.99
1.84148	39.32
1.85815	39.65
1.87482	39.98
1.89148	40.30
1.90815	40.64
1.92482	40.95
1.94148	41.29
1.95815	41.59
1.97482	41.92
1.99148	42.26
2.00815	42.58
2.02482	42.91
2.04148	43.21
2.05815	43.54
2.07482	43.86
2.09148	44.20
2.10815	44.51
2.12482	44.84
2.14148	45.16
2.15815	45.48
2.17482	45.82
2.19148	46.16
2.20815	46.47
2.22482	46.83
2.24148	47.15
2.25815	47.47
2.27482	47.83
2.29148	48.17
2.30815	48.49
2.32482	48.83
2.34148	49.13
2.35815	49.44
2.37482	49.63
2.39148	49.71
2.40815	49.70
2.42482	49.70
2.44148	49.70
2.45815	49.69
2.47482	49.72
2.49148	49.74
2.50815	49.74
2.52482	49.77
2.54148	49.79
2.55815	49.78
2.57482	49.81
2.59148	49.82
2.60815	49.82
2.62482	49.82
2.64148	49.83
2.65815	49.84
2.67482	49.84
2.69148	49.85
2.70815	49.86
2.72482	49.87
2.74148	49.85
2.75815	49.84
2.77482	49.87
2.79148	49.88
2.80815	49.89
2.82482	49.89
2.84148	49.89
2.85815	49.88
2.87482	49.88
2.89148	49.90
2.90815	49.90
2.92482	49.91
2.94148	49.92
2.95815	49.94
2.97482	49.95
2.99148	49.96
3.00815	49.97
3.02482	49.98
3.04148	49.99
3.05815	50.00
3.07482	50.01
3.09148	50.02
3.10815	50.02
3.12482	50.03
3.14148	50.03
3.15815	50.04
3.17482	50.04
3.19148	50.05
3.20815	50.06
3.22482	50.07
3.24148	50.08
3.25815	50.09
3.27482	50.10
3.29148	50.11
3.30815	50.12
3.32482	50.10
3.34148	50.09
3.35815	50.08
3.37482	50.06
3.39148	50.05
3.40815	50.05
3.42482	50.05
3.44148	50.05
3.45815	50.05
3.47482	50.05
3.49148	50.05
3.50815	50.05
3.52482	50.05
3.54148	50.06
3.55815	50.06
3.57482	50.06
3.59148	50.06
3.60815	50.06
3.62482	50.07
3.64148	50.07
3.65815	50.07
3.67482	50.07
3.69148	50.06
3.70815	50.05
3.72482	50.06
3.74148	50.05
3.75815	50.05
3.77482	50.04
3.79148	50.04
3.80815	50.04
3.82482	50.04
3.84148	50.05
3.85815	50.06
3.87482	50.06
3.89148	50.07
3.90815	50.08
3.92482	50.08
3.94148	50.08
3.95815	50.08
3.97482	50.06
3.99148	50.06

[Status Trace (Injection Unit Temperature)]
Interval(msec)	1000
# of Points	240
Start Time(min)	0.008
End Time(min)	3.991
Intensity Units	
Intensity Multiplier	1
R.Time (min)	Intensity
0.00815	99.98
0.02482	99.98
0.04148	99.98
0.05815	99.98
0.07482	99.98
0.09148	99.98
0.10815	99.98
0.12482	99.98
0.14148	99.98
0.15815	99.97
0.17482	99.98
0.19148	99.98
0.20815	99.99
0.22482	99.98
0.24148	99.99
0.25815	99.98
0.27482	99.98
0.29148	99.98
0.30815	99.98
0.32482	99.98
0.34148	99.98
0.35815	99.98
0.37482	99.98
0.39148	99.99
0.40815	99.98
0.42482	99.98
0.44148	99.98
0.45815	99.98
0.47482	99.98
0.49148	99.98
0.50815	99.98
0.52482	99.98
0.54148	99.98
0.55815	99.98
0.57482	99.99
0.59148	99.98
0.60815	99.98
0.62482	99.99
0.64148	99.98
0.65815	99.98
0.67482	99.98
0.69148	99.99
0.70815	99.99
0.72482	99.98
0.74148	99.98
0.75815	99.98
0.77482	99.99
0.79148	99.98
0.80815	99.99
0.82482	99.99
0.84148	99.99
0.85815	99.98
0.87482	99.99
0.89148	99.99
0.90815	99.98
0.92482	99.99
0.94148	99.99
0.95815	99.99
0.97482	99.99
0.99148	99.99
1.00815	99.99
1.02482	99.99
1.04148	99.99
1.05815	99.99
1.07482	99.99
1.09148	99.99
1.10815	99.99
1.12482	99.99
1.14148	99.99
1.15815	99.98
1.17482	99.98
1.19148	99.99
1.20815	99.99
1.22482	99.99
1.24148	99.99
1.25815	99.99
1.27482	99.99
1.29148	99.99
1.30815	99.99
1.32482	99.99
1.34148	99.99
1.35815	99.99
1.37482	99.99
1.39148	99.99
1.40815	99.99
1.42482	99.99
1.44148	99.99
1.45815	99.99
1.47482	99.99
1.49148	99.99
1.50815	99.99
1.52482	99.99
1.54148	99.99
1.55815	99.99
1.57482	99.99
1.59148	99.99
1.60815	99.99
1.62482	99.98
1.64148	99.99
1.65815	99.98
1.67482	99.99
1.69148	99.99
1.70815	99.99
1.72482	99.98
1.74148	99.98
1.75815	99.98
1.77482	99.98
1.79148	99.98
1.80815	99.98
1.82482	99.98
1.84148	99.98
1.85815	99.98
1.87482	99.98
1.89148	99.98
1.90815	99.98
1.92482	99.98
1.94148	99.97
1.95815	99.97
1.97482	99.97
1.99148	99.98
2.00815	99.97
2.02482	99.97
2.04148	99.97
2.05815	99.97
2.07482	99.97
2.09148	99.96
2.10815	99.97
2.12482	99.96
2.14148	99.96
2.15815	99.96
2.17482	99.96
2.19148	99.96
2.20815	99.96
2.22482	99.96
2.24148	99.96
2.25815	99.96
2.27482	99.96
2.29148	99.96
2.30815	99.96
2.32482	99.96
2.34148	99.96
2.35815	99.96
2.37482	99.96
2.39148	99.96
2.40815	99.96
2.42482	99.96
2.44148	99.96
2.45815	99.96
2.47482	99.96
2.49148	99.96
2.50815	99.96
2.52482	99.97
2.54148	99.97
2.55815	99.97
2.57482	99.97
2.59148	99.97
2.60815	99.97
2.62482	99.98
2.64148	99.98
2.65815	99.97
2.67482	99.98
2.69148	99.98
2.70815	99.98
2.72482	99.98
2.74148	99.98
2.75815	99.98
2.77482	99.99
2.79148	99.99
2.80815	99.99
2.82482	99.99
2.84148	99.99
2.85815	99.99
2.87482	100.00
2.89148	100.00
2.90815	100.00
2.92482	100.00
2.94148	100.00
2.95815	100.00
2.97482	100.01
2.99148	100.00
3.00815	100.01
3.02482	100.01
3.04148	100.01
3.05815	100.01
3.07482	100.01
3.09148	100.01
3.10815	100.01
3.12482	100.02
3.14148	100.02
3.15815	100.02
3.17482	100.02
3.19148	100.02
3.20815	100.03
3.22482	100.03
3.24148	100.03
3.25815	100.03
3.27482	100.03
3.29148	100.03
3.30815	100.03
3.32482	100.03
3.34148	100.03
3.35815	100.04
3.37482	100.04
3.39148	100.04
3.40815	100.04
3.42482	100.04
3.44148	100.04
3.45815	100.04
3.47482	100.04
3.49148	100.04
3.50815	100.05
3.52482	100.05
3.54148	100.05
3.55815	100.05
3.57482	100.05
3.59148	100.05
3.60815	100.05
3.62482	100.05
3.64148	100.05
3.65815	100.05
3.67482	100.05
3.69148	100.05
3.70815	100.05
3.72482	100.05
3.74148	100.05
3.75815	100.05
3.77482	100.06
3.79148	100.06
3.80815	100.05
3.82482	100.05
3.84148	100.05
3.85815	100.05
3.87482	100.05
3.89148	100.05
3.90815	100.05
3.92482	100.05
3.94148	100.05
3.95815	100.05
3.97482	100.05
3.99148	100.05

[Status Trace (Carrier Gas Pressure)]
Interval(msec)	1000
# of Points	240
Start Time(min)	0.008
End Time(min)	3.991
Intensity Units	
Intensity Multiplier	1
R.Time (min)	Intensity
0.00815	58.00
0.02482	55.35
0.04148	57.25
0.05815	59.34
0.07482	59.27
0.09148	58.03
0.10815	57.98
0.12482	58.01
0.14148	58.01
0.15815	58.00
0.17482	58.00
0.19148	58.00
0.20815	58.00
0.22482	58.00
0.24148	58.00
0.25815	58.00
0.27482	58.00
0.29148	58.00
0.30815	58.00
0.32482	58.00
0.34148	58.00
0.35815	58.00
0.37482	58.00
0.39148	58.00
0.40815	58.00
0.42482	58.00
0.44148	58.00
0.45815	58.00
0.47482	58.00
0.49148	58.00
0.50815	58.00
0.52482	58.00
0.54148	58.00
0.55815	58.00
0.57482	58.00
0.59148	58.00
0.60815	58.00
0.62482	58.00
0.64148	58.00
0.65815	58.00
0.67482	58.00
0.69148	58.00
0.70815	58.00
0.72482	58.00
0.74148	58.00
0.75815	58.00
0.77482	58.00
0.79148	58.00
0.80815	58.00
0.82482	58.00
0.84148	58.00
0.85815	58.00
0.87482	58.00
0.89148	58.00
0.90815	58.00
0.92482	58.00
0.94148	58.00
0.95815	58.00
0.97482	58.00
0.99148	58.00
1.00815	58.00
1.02482	58.00
1.04148	58.00
1.05815	58.00
1.07482	58.00
1.09148	58.00
1.10815	58.00
1.12482	58.00
1.14148	58.00
1.15815	58.00
1.17482	58.00
1.19148	58.00
1.20815	58.00
1.22482	58.00
1.24148	58.00
1.25815	58.00
1.27482	58.00
1.29148	58.00
1.30815	58.00
1.32482	58.00
1.34148	58.00
1.35815	58.00
1.37482	58.00
1.39148	58.00
1.40815	58.00
1.42482	58.00
1.44148	58.00
1.45815	58.00
1.47482	58.00
1.49148	58.00
1.50815	58.00
1.52482	58.00
1.54148	58.00
1.55815	58.00
1.57482	58.00
1.59148	58.00
1.60815	58.00
1.62482	58.00
1.64148	58.00
1.65815	58.01
1.67482	58.01
1.69148	58.00
1.70815	58.00
1.72482	58.00
1.74148	58.00
1.75815	58.00
1.77482	58.00
1.79148	58.00
1.80815	58.00
1.82482	58.00
1.84148	58.00
1.85815	58.00
1.87482	58.00
1.89148	58.00
1.90815	58.00
1.92482	58.00
1.94148	58.00
1.95815	58.00
1.97482	58.00
1.99148	58.00
2.00815	58.00
2.02482	58.00
2.04148	58.00
2.05815	58.00
2.07482	58.00
2.09148	58.00
2.10815	58.00
2.12482	58.00
2.14148	58.00
2.15815	58.00
2.17482	58.00
2.19148	58.00
2.20815	58.00
2.22482	58.00
2.24148	58.00
2.25815	58.00
2.27482	58.00
2.29148	58.00
2.30815	58.00
2.32482	58.00
2.34148	58.00
2.35815	58.00
2.37482	58.00
2.39148	57.99
2.40815	57.99
2.42482	58.00
2.44148	58.00
2.45815	58.00
2.47482	58.00
2.49148	58.00
2.50815	57.99
2.52482	57.99
2.54148	58.00
2.55815	58.00
2.57482	58.00
2.59148	58.00
2.60815	58.00
2.62482	58.00
2.64148	58.00
2.65815	58.00
2.67482	58.00
2.69148	58.00
2.70815	58.00
2.72482	58.00
2.74148	58.00
2.75815	58.00
2.77482	58.00
2.79148	58.00
2.80815	58.00
2.82482	58.00
2.84148	58.00
2.85815	58.00
2.87482	58.00
2.89148	58.00
2.90815	58.00
2.92482	58.00
2.94148	58.00
2.95815	58.00
2.97482	58.00
2.99148	58.00
3.00815	58.00
3.02482	58.00
3.04148	58.00
3.05815	58.00
3.07482	58.00
3.09148	58.00
3.10815	58.00
3.12482	58.00
3.14148	58.00
3.15815	58.00
3.17482	58.00
3.19148	58.00
3.20815	58.00
3.22482	58.00
3.24148	58.00
3.25815	58.00
3.27482	58.00
3.29148	58.00
3.30815	58.00
3.32482	58.00
3.34148	58.00
3.35815	58.00
3.37482	58.00
3.39148	58.00
3.40815	58.00
3.42482	58.00
3.44148	58.00
3.45815	58.00
3.47482	58.00
3.49148	58.00
3.50815	58.00
3.52482	58.00
3.54148	58.00
3.55815	58.00
3.57482	58.00
3.59148	58.00
3.60815	58.00
3.62482	58.00
3.64148	58.00
3.65815	58.00
3.67482	58.00
3.69148	58.00
3.70815	58.00
3.72482	58.00
3.74148	58.00
3.75815	58.00
3.77482	58.00
3.79148	58.00
3.80815	58.00
3.82482	58.00
3.84148	58.00
3.85815	58.00
3.87482	58.00
3.89148	58.00
3.90815	58.00
3.92482	58.00
3.94148	58.00
3.95815	58.00
3.97482	58.00
3.99148	58.00

[Status Trace (Carrier Gas Flow)]
Interval(msec)	1000
# of Points	240
Start Time(min)	0.008
End Time(min)	3.991
Intensity Units	
Intensity Multiplier	1
R.Time (min)	Intensity
0.00815	34.52
0.02482	34.54
0.04148	34.54
0.05815	34.55
0.07482	34.50
0.09148	34.52
0.10815	34.52
0.12482	34.52
0.14148	34.52
0.15815	34.52
0.17482	34.52
0.19148	34.52
0.20815	34.51
0.22482	34.51
0.24148	34.52
0.25815	34.52
0.27482	34.52
0.29148	34.52
0.30815	34.52
0.32482	34.52
0.34148	34.52
0.35815	34.52
0.37482	34.52
0.39148	34.52
0.40815	34.52
0.42482	34.52
0.44148	34.52
0.45815	34.51
0.47482	34.51
0.49148	34.52
0.50815	34.52
0.52482	34.52
0.54148	34.52
0.55815	34.52
0.57482	34.52
0.59148	34.51
0.60815	34.52
0.62482	34.52
0.64148	34.52
0.65815	34.52
0.67482	34.52
0.69148	34.52
0.70815	34.52
0.72482	34.52
0.74148	34.52
0.75815	34.52
0.77482	34.52
0.79148	34.52
0.80815	34.52
0.82482	34.51
0.84148	34.52
0.85815	34.52
0.87482	34.52
0.89148	34.51
0.90815	34.52
0.92482	34.52
0.94148	34.52
0.95815	34.52
0.97482	34.52
0.99148	34.52
1.00815	34.52
1.02482	34.52
1.04148	34.52
1.05815	34.52
1.07482	34.51
1.09148	34.52
1.10815	34.52
1.12482	34.51
1.14148	34.52
1.15815	34.52
1.17482	34.52
1.19148	34.52
1.20815	34.52
1.22482	34.52
1.24148	34.52
1.25815	34.52
1.27482	34.52
1.29148	34.52
1.30815	34.52
1.32482	34.52
1.34148	34.52
1.35815	34.52
1.37482	34.52
1.39148	34.52
1.40815	34.52
1.42482	34.51
1.44148	34.52
1.45815	34.53
1.47482	34.53
1.49148	34.52
1.50815	34.52
1.52482	34.51
1.54148	34.53
1.55815	34.52
1.57482	34.52
1.59148	34.52
1.60815	34.52
1.62482	34.53
1.64148	34.51
1.65815	34.52
1.67482	34.52
1.69148	34.52
1.70815	34.52
1.72482	34.52
1.74148	34.52
1.75815	34.51
1.77482	34.52
1.79148	34.52
1.80815	34.52
1.82482	34.52
1.84148	34.52
1.85815	34.52
1.87482	34.52
1.89148	34.52
1.90815	34.52
1.92482	34.52
1.94148	34.52
1.95815	34.51
1.97482	34.51
1.99148	34.52
2.00815	34.52
2.02482	34.51
2.04148	34.51
2.05815	34.52
2.07482	34.52
2.09148	34.52
2.10815	34.52
2.12482	34.52
2.14148	34.52
2.15815	34.52
2.17482	34.52
2.19148	34.52
2.20815	34.52
2.22482	34.52
2.24148	34.52
2.25815	34.52
2.27482	34.52
2.29148	34.52
2.30815	34.52
2.32482	34.52
2.34148	34.52
2.35815	34.52
2.37482	34.52
2.39148	34.52
2.40815	34.51
2.42482	34.51
2.44148	34.52
2.45815	34.52
2.47482	34.52
2.49148	34.51
2.50815	34.39
2.52482	34.52
2.54148	34.52
2.55815	34.52
2.57482	34.52
2.59148	34.52
2.60815	34.52
2.62482	34.51
2.64148	34.52
2.65815	34.52
2.67482	34.52
2.69148	34.52
2.70815	34.51
2.72482	34.52
2.74148	34.52
2.75815	34.52
2.77482	34.51
2.79148	34.52
2.80815	34.51
2.82482	34.52
2.84148	34.52
2.85815	34.52
2.87482	34.52
2.89148	34.52
2.90815	34.53
2.92482	34.52
2.94148	34.51
2.95815	34.52
2.97482	34.52
2.99148	34.52
3.00815	34.51
3.02482	34.52
3.04148	34.52
3.05815	34.52
3.07482	34.51
3.09148	34.52
3.10815	34.52
3.12482	34.52
3.14148	34.52
3.15815	34.52
3.17482	34.52
3.19148	34.51
3.20815	34.51
3.22482	34.53
3.24148	34.52
3.25815	34.52
3.27482	34.52
3.29148	34.52
3.30815	34.51
3.32482	34.52
3.34148	34.52
3.35815	34.52
3.37482	34.51
3.39148	34.51
3.40815	34.52
3.42482	34.52
3.44148	34.52
3.45815	34.52
3.47482	34.52
3.49148	34.52
3.50815	34.51
3.52482	34.52
3.54148	34.52
3.55815	34.52
3.57482	34.52
3.59148	34.53
3.60815	34.52
3.62482	34.51
3.64148	34.53
3.65815	34.52
3.67482	34.51
3.69148	34.52
3.70815	34.52
3.72482	34.52
3.74148	34.52
3.75815	34.52
3.77482	34.53
3.79148	34.52
3.80815	34.52
3.82482	34.52
3.84148	34.52
3.85815	34.52
3.87482	34.51
3.89148	34.52
3.90815	34.52
3.92482	34.52
3.94148	34.52
3.95815	34.52
3.97482	34.52
3.99148	34.52

[Status Trace (Column Flow)]
Interval(msec)	1000
# of Points	240
Start Time(min)	0.008
End Time(min)	3.991
Intensity Units	
Intensity Multiplier	1
R.Time (min)	Intensity
0.00815	5.53
0.02482	5.23
0.04148	5.45
0.05815	5.69
0.07482	5.68
0.09148	5.54
0.10815	5.53
0.12482	5.54
0.14148	5.54
0.15815	5.54
0.17482	5.54
0.19148	5.54
0.20815	5.54
0.22482	5.54
0.24148	5.54
0.25815	5.54
0.27482	5.54
0.29148	5.54
0.30815	5.54
0.32482	5.54
0.34148	5.54
0.35815	5.54
0.37482	5.54
0.39148	5.54
0.40815	5.54
0.42482	5.54
0.44148	5.54
0.45815	5.54
0.47482	5.54
0.49148	5.54
0.50815	5.54
0.52482	5.54
0.54148	5.54
0.55815	5.54
0.57482	5.54
0.59148	5.54
0.60815	5.54
0.62482	5.54
0.64148	5.54
0.65815	5.54
0.67482	5.54
0.69148	5.54
0.70815	5.54
0.72482	5.54
0.74148	5.54
0.75815	5.54
0.77482	5.54
0.79148	5.54
0.80815	5.54
0.82482	5.54
0.84148	5.54
0.85815	5.54
0.87482	5.54
0.89148	5.54
0.90815	5.54
0.92482	5.54
0.94148	5.54
0.95815	5.54
0.97482	5.54
0.99148	5.54
1.00815	5.54
1.02482	5.54
1.04148	5.54
1.05815	5.54
1.07482	5.54
1.09148	5.54
1.10815	5.54
1.12482	5.54
1.14148	5.54
1.15815	5.54
1.17482	5.54
1.19148	5.54
1.20815	5.54
1.22482	5.54
1.24148	5.54
1.25815	5.54
1.27482	5.54
1.29148	5.54
1.30815	5.54
1.32482	5.54
1.34148	5.54
1.35815	5.54
1.37482	5.54
1.39148	5.54
1.40815	5.54
1.42482	5.54
1.44148	5.54
1.45815	5.54
1.47482	5.54
1.49148	5.54
1.50815	5.54
1.52482	5.54
1.54148	5.54
1.55815	5.54
1.57482	5.54
1.59148	5.54
1.60815	5.54
1.62482	5.53
1.64148	5.53
1.65815	5.52
1.67482	5.51
1.69148	5.50
1.70815	5.49
1.72482	5.47
1.74148	5.46
1.75815	5.45
1.77482	5.44
1.79148	5.43
1.80815	5.42
1.82482	5.41
1.84148	5.40
1.85815	5.39
1.87482	5.38
1.89148	5.37
1.90815	5.36
1.92482	5.35
1.94148	5.34
1.95815	5.33
1.97482	5.32
1.99148	5.31
2.00815	5.31
2.02482	5.30
2.04148	5.29
2.05815	5.28
2.07482	5.27
2.09148	5.26
2.10815	5.25
2.12482	5.24
2.14148	5.23
2.15815	5.22
2.17482	5.21
2.19148	5.20
2.20815	5.19
2.22482	5.18
2.24148	5.17
2.25815	5.16
2.27482	5.15
2.29148	5.14
2.30815	5.13
2.32482	5.13
2.34148	5.12
2.35815	5.11
2.37482	5.10
2.39148	5.10
2.40815	5.10
2.42482	5.10
2.44148	5.10
2.45815	5.10
2.47482	5.10
2.49148	5.10
2.50815	5.10
2.52482	5.10
2.54148	5.10
2.55815	5.10
2.57482	5.10
2.59148	5.10
2.60815	5.10
2.62482	5.10
2.64148	5.10
2.65815	5.10
2.67482	5.10
2.69148	5.10
2.70815	5.10
2.72482	5.10
2.74148	5.10
2.75815	5.10
2.77482	5.10
2.79148	5.10
2.80815	5.10
2.82482	5.10
2.84148	5.10
2.85815	5.10
2.87482	5.10
2.89148	5.10
2.90815	5.10
2.92482	5.10
2.94148	5.09
2.95815	5.09
2.97482	5.09
2.99148	5.09
3.00815	5.09
3.02482	5.09
3.04148	5.09
3.05815	5.09
3.07482	5.09
3.09148	5.09
3.10815	5.09
3.12482	5.09
3.14148	5.09
3.15815	5.09
3.17482	5.09
3.19148	5.09
3.20815	5.09
3.22482	5.09
3.24148	5.09
3.25815	5.09
3.27482	5.09
3.29148	5.09
3.30815	5.09
3.32482	5.09
3.34148	5.09
3.35815	5.09
3.37482	5.09
3.39148	5.09
3.40815	5.09
3.42482	5.09
3.44148	5.09
3.45815	5.09
3.47482	5.09
3.49148	5.09
3.50815	5.09
3.52482	5.09
3.54148	5.09
3.55815	5.09
3.57482	5.09
3.59148	5.09
3.60815	5.09
3.62482	5.09
3.64148	5.09
3.65815	5.09
3.67482	5.09
3.69148	5.09
3.70815	5.09
3.72482	5.09
3.74148	5.09
3.75815	5.09
3.77482	5.09
3.79148	5.09
3.80815	5.09
3.82482	5.09
3.84148	5.09
3.85815	5.09
3.87482	5.09
3.89148	5.09
3.90815	5.09
3.92482	5.09
3.94148	5.09
3.95815	5.09
3.97482	5.09
3.99148	5.09

[Status Trace (Linear Velocity)]
Interval(msec)	1000
# of Points	240
Start Time(min)	0.008
End Time(min)	3.991
Intensity Units	
Intensity Multiplier	1
R.Time (min)	Intensity
0.00815	39.01
0.02482	37.27
0.04148	38.51
0.05815	39.89
0.07482	39.84
0.09148	39.04
0.10815	39.00
0.12482	39.02
0.14148	39.02
0.15815	39.02
0.17482	39.02
0.19148	39.02
0.20815	39.02
0.22482	39.02
0.24148	39.02
0.25815	39.02
0.27482	39.02
0.29148	39.02
0.30815	39.02
0.32482	39.02
0.34148	39.02
0.35815	39.02
0.37482	39.02
0.39148	39.02
0.40815	39.02
0.42482	39.02
0.44148	39.02
0.45815	39.02
0.47482	39.02
0.49148	39.02
0.50815	39.02
0.52482	39.02
0.54148	39.02
0.55815	39.02
0.57482	39.02
0.59148	39.02
0.60815	39.02
0.62482	39.02
0.64148	39.02
0.65815	39.02
0.67482	39.02
0.69148	39.02
0.70815	39.02
0.72482	39.02
0.74148	39.02
0.75815	39.02
0.77482	39.02
0.79148	39.02
0.80815	39.02
0.82482	39.02
0.84148	39.02
0.85815	39.02
0.87482	39.02
0.89148	39.02
0.90815	39.02
0.92482	39.02
0.94148	39.02
0.95815	39.02
0.97482	39.02
0.99148	39.02
1.00815	39.02
1.02482	39.02
1.04148	39.02
1.05815	39.02
1.07482	39.02
1.09148	39.02
1.10815	39.02
1.12482	39.02
1.14148	39.02
1.15815	39.02
1.17482	39.02
1.19148	39.02
1.20815	39.02
1.22482	39.02
1.24148	39.02
1.25815	39.02
1.27482	39.02
1.29148	39.02
1.30815	39.02
1.32482	39.02
1.34148	39.02
1.35815	39.02
1.37482	39.02
1.39148	39.02
1.40815	39.02
1.42482	39.02
1.44148	39.02
1.45815	39.02
1.47482	39.02
1.49148	39.02
1.50815	39.02
1.52482	39.02
1.54148	39.02
1.55815	39.02
1.57482	39.02
1.59148	39.02
1.60815	39.02
1.62482	39.01
1.64148	38.99
1.65815	38.97
1.67482	38.93
1.69148	38.90
1.70815	38.86
1.72482	38.83
1.74148	38.80
1.75815	38.77
1.77482	38.73
1.79148	38.70
1.80815	38.67
1.82482	38.64
1.84148	38.61
1.85815	38.58
1.87482	38.55
1.89148	38.52
1.90815	38.49
1.92482	38.46
1.94148	38.43
1.95815	38.40
1.97482	38.37
1.99148	38.34
2.00815	38.31
2.02482	38.28
2.04148	38.25
2.05815	38.22
2.07482	38.19
2.09148	38.16
2.10815	38.13
2.12482	38.10
2.14148	38.07
2.15815	38.04
2.17482	38.01
2.19148	37.98
2.20815	37.95
2.22482	37.92
2.24148	37.89
2.25815	37.86
2.27482	37.83
2.29148	37.80
2.30815	37.77
2.32482	37.74
2.34148	37.71
2.35815	37.69
2.37482	37.67
2.39148	37.66
2.40815	37.66
2.42482	37.66
2.44148	37.66
2.45815	37.66
2.47482	37.66
2.49148	37.66
2.50815	37.66
2.52482	37.65
2.54148	37.65
2.55815	37.66
2.57482	37.65
2.59148	37.65
2.60815	37.65
2.62482	37.65
2.64148	37.65
2.65815	37.65
2.67482	37.65
2.69148	37.65
2.70815	37.65
2.72482	37.65
2.74148	37.65
2.75815	37.65
2.77482	37.65
2.79148	37.65
2.80815	37.65
2.82482	37.65
2.84148	37.65
2.85815	37.65
2.87482	37.65
2.89148	37.65
2.90815	37.65
2.92482	37.64
2.94148	37.64
2.95815	37.64
2.97482	37.64
2.99148	37.64
3.00815	37.64
3.02482	37.64
3.04148	37.64
3.05815	37.64
3.07482	37.63
3.09148	37.63
3.10815	37.63
3.12482	37.63
3.14148	37.63
3.15815	37.63
3.17482	37.63
3.19148	37.63
3.20815	37.63
3.22482	37.63
3.24148	37.63
3.25815	37.63
3.27482	37.63
3.29148	37.63
3.30815	37.63
3.32482	37.63
3.34148	37.63
3.35815	37.63
3.37482	37.63
3.39148	37.63
3.40815	37.63
3.42482	37.63
3.44148	37.63
3.45815	37.63
3.47482	37.63
3.49148	37.63
3.50815	37.63
3.52482	37.63
3.54148	37.63
3.55815	37.63
3.57482	37.63
3.59148	37.63
3.60815	37.63
3.62482	37.63
3.64148	37.63
3.65815	37.63
3.67482	37.63
3.69148	37.63
3.70815	37.63
3.72482	37.63
3.74148	37.63
3.75815	37.63
3.77482	37.63
3.79148	37.63
3.80815	37.63
3.82482	37.63
3.84148	37.63
3.85815	37.63
3.87482	37.63
3.89148	37.63
3.90815	37.63
3.92482	37.63
3.94148	37.63
3.95815	37.63
3.97482	37.63
3.99148	37.63

