[Header]
Application Name	LabSolutions
Version	5.110
Data File Name	C:\Users\User\Desktop\Junior\UIC Prairie Sampling\5.18.23\05182023_019.gcd
Output Date	6/5/2023
Output Time	2:17:25 PM

[File Information]
Type	Data File
Generated	5/24/2023 1:49:01 PM
Generated by	System Administrator
Modified	5/24/2023 1:56:14 PM
Modified by	System Administrator

[Sample Information]
Operator Name	System Administrator
Acquired	5/24/2023 1:52:13 PM
Sample Type	0:Unknown
Level	0
Sample Name	019
Sample ID	019
ISTD Amount1	1
ISTD Amount2	1
ISTD Amount3	1
ISTD Amount4	1
ISTD Amount5	1
ISTD Amount6	1
ISTD Amount7	1
ISTD Amount8	1
ISTD Amount9	1
ISTD Amount10	1
ISTD Amount11	1
ISTD Amount12	1
ISTD Amount13	1
ISTD Amount14	1
ISTD Amount15	1
ISTD Amount16	1
ISTD Amount17	1
ISTD Amount18	1
ISTD Amount19	1
ISTD Amount20	1
ISTD Amount21	1
ISTD Amount22	1
ISTD Amount23	1
ISTD Amount24	1
ISTD Amount25	1
ISTD Amount26	1
ISTD Amount27	1
ISTD Amount28	1
ISTD Amount29	1
ISTD Amount30	1
ISTD Amount31	1
ISTD Amount32	1
Sample Amount	1
Dilution Factor	1
Vial#	18
Injection Volume	1
Injection Count	1
Bar Code	

[Original Files]
Data File	C:\Users\User\Desktop\Junior\UIC Prairie Sampling\5.18.23\05182023_019.gcd
Method File	C:\LabSolutions\Data\GHG_4min_2022\ghg3_togas_w_acet_4 min_new_int.gcm
Batch File	C:\LabSolutions\Data\AutoSamplerTesting\05182023.gcb
Report Format File	c:\LabSolutions\System\DEFAULT.lsr

[File Description]


[Configuration]
Instrument Name	C0B7VH3-Instrument1
Instrument #	1
Line #	1
# of Detectors	3
Detector ID	DET#1	DET#2	DET#3
Detector Name	FID	PTCD	ECD
# of Channels	1	1	1

[Peak Table(Ch1)]
# of Peaks	3
Peak#	R.Time	I.Time	F.Time	Area	Height	A/H	Conc.	Mark	ID#	Name	k'	Plate #	Plate Ht.	Tailing	Resolution	Sep.Factor	Area Ratio	Height Ratio	Conc. %	Norm Conc.
1	1.472	1.443	1.516	4184	2147	1.949	0.000	   	1	CO	0.000	10571	14.189	1.212	0.000	0.000	0	0	0.000	0.000
2	1.564	1.534	1.604	4309	2312	1.863	21.007	   	2	CH4	0.062	12800	11.718	1.118	1.629	0.000	0	0	9.731	9.731
3	1.989	1.941	2.341	1011191	481557	2.100	194.875	   	3	CO2	0.351	17399	8.621	1.333	7.359	5.640	0	0	90.269	90.269

[Peak Table(Ch2)]
# of Peaks	0

[Peak Table(Ch3)]
# of Peaks	5
Peak#	R.Time	I.Time	F.Time	Area	Height	A/H	Conc.	Mark	ID#	Name	k'	Plate #	Plate Ht.	Tailing	Resolution	Sep.Factor	Area Ratio	Height Ratio	Conc. %	Norm Conc.
1	2.458	2.440	2.506	719	283	2.539	0.000	   			0.000	16161	9.281	0.000	0.000	0.000	0	0	0.000	0.000
2	2.521	2.506	2.572	315	123	2.564	0.000	 V 			0.025	5945	25.231	0.000	0.599	0.000	0	0	0.000	0.000
3	2.620	2.572	2.697	366	93	3.948	0.000	 V 			0.066	8714	17.213	0.000	0.815	2.588	0	0	0.000	0.000
4	2.807	2.704	2.832	3128	566	5.529	0.046	   	1	N2O	0.142	1078	139.133	0.000	0.823	2.159	0	0	8.196	8.196
5	2.891	2.832	3.899	35037	5104	6.865	0.518	 V 	1	N2O	0.176	11731	12.786	0.000	0.376	1.242	0	0	91.804	91.804

[Compound Results(Ch1)]
# of IDs	6
ID#	Name	R.Time	Area	Height	Conc.	Curve	3rd	2nd	1st	Constant	Area Ratio	Height Ratio	Conc. %	Norm Conc.
1	CO	1.472	4184	2147	0.000	Linear	0.000000e+00	0.000000e+00	0.000000e+00	0.000000e+00	0	0	0.000	0.000
2	CH4	1.564	4309	2312	21.007	Linear	0.000000e+00	0.000000e+00	2.051179e+002	0.000000e+00	0	0	9.731	9.731
3	CO2	1.989	1011191	481557	194.875	Linear	0.000000e+00	0.000000e+00	5.188919e+003	0.000000e+00	0	0	90.269	90.269
4	Ethylene	0.000	0	0	0.000	Linear	0.000000e+00	0.000000e+00	0.000000e+00	0.000000e+00	0	0	0.000	0.000
5	Acetylene	0.000	0	0	0.000	Linear	0.000000e+00	0.000000e+00	0.000000e+00	0.000000e+00	0	0	0.000	0.000
6	Ethane	0.000	0	0	0.000	Linear	0.000000e+00	0.000000e+00	0.000000e+00	0.000000e+00	0	0	0.000	0.000

[Compound Results(Ch2)]
# of IDs	5
ID#	Name	R.Time	Area	Height	Conc.	Curve	3rd	2nd	1st	Constant	Area Ratio	Height Ratio	Conc. %	Norm Conc.
1	Hydrogen	0.000	0	0	0.000	Linear	0.000000e+00	0.000000e+00	0.000000e+00	0.000000e+00	0	0	0.000	0.000
2	Oxygen	0.000	0	0	0.000	Linear	0.000000e+00	0.000000e+00	0.000000e+00	0.000000e+00	0	0	0.000	0.000
3	Nitrogen	0.000	0	0	0.000	Linear	0.000000e+00	0.000000e+00	0.000000e+00	0.000000e+00	0	0	0.000	0.000
4	Methane	0.000	0	0	0.000	Linear	0.000000e+00	0.000000e+00	0.000000e+00	0.000000e+00	0	0	0.000	0.000
5	Carbon Monoxide	0.000	0	0	0.000	Linear	0.000000e+00	0.000000e+00	0.000000e+00	0.000000e+00	0	0	0.000	0.000

[Compound Results(Ch3)]
# of IDs	2
ID#	Name	R.Time	Area	Height	Conc.	Curve	3rd	2nd	1st	Constant	Area Ratio	Height Ratio	Conc. %	Norm Conc.
1	N2O	2.891	38164	5670	0.565	Linear	0.000000e+00	0.000000e+00	6.759880e+004	0.000000e+00	0	0	100.000	100.000
2	SF6	0.000	0	0	0.000	Linear	0.000000e+00	0.000000e+00	0.000000e+00	0.000000e+00	0	0	0.000	0.000

[Group Results(Ch1)]
# of Groups	0

[Group Results(Ch2)]
# of Groups	0

[Group Results(Ch3)]
# of Groups	0

[Chromatogram (Ch1)]
Interval(msec)	220
# of Points	1091
Start Time(min)	0.002
End Time(min)	3.998
R.Time (min)	Intensity
0.00167	19
0.00533	23
0.00900	21
0.01267	16
0.01633	11
0.02000	6
0.02367	3
0.02733	5
0.03100	7
0.03467	9
0.03833	12
0.04200	17
0.04567	23
0.04933	25
0.05300	24
0.05667	23
0.06033	21
0.06400	18
0.06767	16
0.07133	15
0.07500	12
0.07867	12
0.08233	16
0.08600	20
0.08967	22
0.09333	21
0.09700	22
0.10067	26
0.10433	29
0.10800	31
0.11167	25
0.11533	21
0.11900	20
0.12267	18
0.12633	14
0.13000	10
0.13367	4
0.13733	2
0.14100	0
0.14467	-4
0.14833	-8
0.15200	-7
0.15567	-2
0.15933	4
0.16300	4
0.16667	4
0.17033	0
0.17400	-2
0.17767	-2
0.18133	1
0.18500	5
0.18867	7
0.19233	11
0.19600	18
0.19967	27
0.20333	33
0.20700	32
0.21067	28
0.21433	25
0.21800	22
0.22167	20
0.22533	21
0.22900	24
0.23267	23
0.23633	19
0.24000	12
0.24367	3
0.24733	-4
0.25100	-5
0.25467	-3
0.25833	4
0.26200	9
0.26567	12
0.26933	12
0.27300	10
0.27667	6
0.28033	3
0.28400	5
0.28767	7
0.29133	6
0.29500	3
0.29867	2
0.30233	5
0.30600	10
0.30967	14
0.31333	14
0.31700	14
0.32067	12
0.32433	8
0.32800	1
0.33167	-7
0.33533	-11
0.33900	-13
0.34267	-12
0.34633	-7
0.35000	-5
0.35367	-8
0.35733	-13
0.36100	-12
0.36467	-8
0.36833	-1
0.37200	9
0.37567	19
0.37933	21
0.38300	18
0.38667	12
0.39033	7
0.39400	3
0.39767	0
0.40133	-2
0.40500	-1
0.40867	2
0.41233	2
0.41600	-0
0.41967	-1
0.42333	5
0.42700	11
0.43067	8
0.43433	1
0.43800	-4
0.44167	-6
0.44533	-3
0.44900	1
0.45267	0
0.45633	-5
0.46000	-7
0.46367	-4
0.46733	1
0.47100	4
0.47467	6
0.47833	7
0.48200	9
0.48567	10
0.48933	12
0.49300	13
0.49667	13
0.50033	14
0.50400	14
0.50767	13
0.51133	11
0.51500	10
0.51867	12
0.52233	11
0.52600	7
0.52967	1
0.53333	-6
0.53700	-9
0.54067	-10
0.54433	-9
0.54800	-6
0.55167	-4
0.55533	0
0.55900	4
0.56267	5
0.56633	6
0.57000	8
0.57367	12
0.57733	15
0.58100	17
0.58467	15
0.58833	11
0.59200	5
0.59567	0
0.59933	-2
0.60300	-4
0.60667	-5
0.61033	-5
0.61400	-5
0.61767	-6
0.62133	-4
0.62500	-2
0.62867	-3
0.63233	-7
0.63600	-12
0.63967	-16
0.64333	-21
0.64700	-21
0.65067	-14
0.65433	-2
0.65800	5
0.66167	6
0.66533	5
0.66900	2
0.67267	-2
0.67633	-8
0.68000	-15
0.68367	-20
0.68733	-19
0.69100	-16
0.69467	-12
0.69833	-10
0.70200	-11
0.70567	-12
0.70933	-10
0.71300	-5
0.71667	2
0.72033	5
0.72400	5
0.72767	2
0.73133	-4
0.73500	-9
0.73867	-15
0.74233	-20
0.74600	-20
0.74967	-15
0.75333	-11
0.75700	-6
0.76067	-2
0.76433	2
0.76800	5
0.77167	6
0.77533	1
0.77900	-8
0.78267	-16
0.78633	-22
0.79000	-21
0.79367	-17
0.79733	-13
0.80100	-8
0.80467	-6
0.80833	-5
0.81200	-6
0.81567	-8
0.81933	-14
0.82300	-21
0.82667	-24
0.83033	-24
0.83400	-21
0.83767	-17
0.84133	-15
0.84500	-14
0.84867	-12
0.85233	-9
0.85600	-9
0.85967	-10
0.86333	-9
0.86700	-4
0.87067	6
0.87433	19
0.87800	23
0.88167	20
0.88533	14
0.88900	11
0.89267	6
0.89633	-1
0.90000	-7
0.90367	-12
0.90733	-16
0.91100	-17
0.91467	-9
0.91833	-2
0.92200	2
0.92567	4
0.92933	3
0.93300	1
0.93667	1
0.94033	-0
0.94400	-3
0.94767	-7
0.95133	-9
0.95500	-8
0.95867	-6
0.96233	-3
0.96600	2
0.96967	5
0.97333	8
0.97700	10
0.98067	4
0.98433	-7
0.98800	-19
0.99167	-27
0.99533	-33
0.99900	-39
1.00267	-43
1.00633	-45
1.01000	-44
1.01367	-38
1.01733	-30
1.02100	-24
1.02467	-20
1.02833	-21
1.03200	-25
1.03567	-26
1.03933	-24
1.04300	-18
1.04667	-11
1.05033	-5
1.05400	-2
1.05767	-2
1.06133	-3
1.06500	-5
1.06867	-9
1.07233	-15
1.07600	-24
1.07967	-34
1.08333	-39
1.08700	-39
1.09067	-36
1.09433	-35
1.09800	-34
1.10167	-31
1.10533	-25
1.10900	-18
1.11267	-13
1.11633	-10
1.12000	-14
1.12367	-22
1.12733	-31
1.13100	-38
1.13467	-41
1.13833	-44
1.14200	-42
1.14567	-40
1.14933	-39
1.15300	-35
1.15667	-32
1.16033	-33
1.16400	-37
1.16767	-37
1.17133	-33
1.17500	-27
1.17867	-19
1.18233	-13
1.18600	-11
1.18967	-12
1.19333	-14
1.19700	-17
1.20067	-23
1.20433	-28
1.20800	-32
1.21167	-32
1.21533	-28
1.21900	-25
1.22267	-22
1.22633	-21
1.23000	-22
1.23367	-24
1.23733	-29
1.24100	-33
1.24467	-36
1.24833	-36
1.25200	-37
1.25567	-41
1.25933	-44
1.26300	-46
1.26667	-43
1.27033	-38
1.27400	-33
1.27767	-30
1.28133	-26
1.28500	-23
1.28867	-23
1.29233	-24
1.29600	-22
1.29967	-13
1.30333	-4
1.30700	-1
1.31067	-4
1.31433	-10
1.31800	-21
1.32167	-35
1.32533	-49
1.32900	-55
1.33267	-51
1.33633	-41
1.34000	-33
1.34367	-33
1.34733	-36
1.35100	-39
1.35467	-41
1.35833	-41
1.36200	-39
1.36567	-35
1.36933	-32
1.37300	-36
1.37667	-44
1.38033	-48
1.38400	-45
1.38767	-38
1.39133	-29
1.39500	-23
1.39867	-22
1.40233	-23
1.40600	-23
1.40967	-22
1.41333	-24
1.41700	-28
1.42067	-35
1.42433	-39
1.42800	-42
1.43167	-39
1.43533	-26
1.43900	2
1.44267	35
1.44633	113
1.45000	333
1.45367	706
1.45733	1135
1.46100	1529
1.46467	1849
1.46833	2076
1.47200	2179
1.47567	2127
1.47933	1921
1.48300	1611
1.48667	1265
1.49033	940
1.49400	671
1.49767	463
1.50133	309
1.50500	197
1.50867	117
1.51233	62
1.51600	26
1.51967	4
1.52333	-11
1.52700	-24
1.53067	-29
1.53433	3
1.53800	132
1.54167	414
1.54533	829
1.54900	1287
1.55267	1705
1.55633	2035
1.56000	2250
1.56367	2313
1.56733	2193
1.57100	1904
1.57467	1516
1.57833	1119
1.58200	771
1.58567	500
1.58933	310
1.59300	181
1.59667	95
1.60033	35
1.60400	-3
1.60767	-24
1.61133	-39
1.61500	-53
1.61867	-66
1.62233	-80
1.62600	-92
1.62967	-102
1.63333	-106
1.63700	-104
1.64067	-99
1.64433	-99
1.64800	-103
1.65167	-107
1.65533	-106
1.65900	-101
1.66267	-93
1.66633	-88
1.67000	-83
1.67367	-75
1.67733	-65
1.68100	-59
1.68467	-57
1.68833	-54
1.69200	-51
1.69567	-50
1.69933	-53
1.70300	-59
1.70667	-66
1.71033	-73
1.71400	-80
1.71767	-85
1.72133	-85
1.72500	-82
1.72867	-81
1.73233	-82
1.73600	-76
1.73967	-64
1.74333	-52
1.74700	-42
1.75067	-38
1.75433	-39
1.75800	-41
1.76167	-45
1.76533	-49
1.76900	-51
1.77267	-52
1.77633	-55
1.78000	-58
1.78367	-58
1.78733	-57
1.79100	-57
1.79467	-60
1.79833	-67
1.80200	-72
1.80567	-75
1.80933	-76
1.81300	-76
1.81667	-73
1.82033	-68
1.82400	-63
1.82767	-58
1.83133	-55
1.83500	-54
1.83867	-57
1.84233	-63
1.84600	-69
1.84967	-69
1.85333	-68
1.85700	-69
1.86067	-71
1.86433	-73
1.86800	-77
1.87167	-82
1.87533	-86
1.87900	-87
1.88267	-86
1.88633	-83
1.89000	-74
1.89367	-62
1.89733	-51
1.90100	-49
1.90467	-51
1.90833	-55
1.91200	-58
1.91567	-58
1.91933	-57
1.92300	-58
1.92667	-58
1.93033	-57
1.93400	-56
1.93767	-52
1.94133	-45
1.94500	-31
1.94867	33
1.95233	399
1.95600	2137
1.95967	8427
1.96333	25693
1.96700	62394
1.97067	123875
1.97433	206580
1.97800	298095
1.98167	382858
1.98533	447264
1.98900	481552
1.99267	480912
1.99633	447021
2.00000	388047
2.00367	316384
2.00733	244440
2.01100	180952
2.01467	129867
2.01833	91404
2.02200	63762
2.02567	44511
2.02933	31366
2.03300	22482
2.03667	16488
2.04033	12417
2.04400	9618
2.04767	7667
2.05133	6279
2.05500	5265
2.05867	4504
2.06233	3919
2.06600	3457
2.06967	3085
2.07333	2783
2.07700	2530
2.08067	2316
2.08433	2129
2.08800	1967
2.09167	1825
2.09533	1706
2.09900	1606
2.10267	1521
2.10633	1445
2.11000	1379
2.11367	1321
2.11733	1265
2.12100	1210
2.12467	1157
2.12833	1109
2.13200	1064
2.13567	1017
2.13933	967
2.14300	918
2.14667	869
2.15033	822
2.15400	780
2.15767	745
2.16133	717
2.16500	693
2.16867	674
2.17233	657
2.17600	641
2.17967	625
2.18333	609
2.18700	597
2.19067	581
2.19433	565
2.19800	551
2.20167	541
2.20533	535
2.20900	528
2.21267	515
2.21633	501
2.22000	492
2.22367	483
2.22733	472
2.23100	458
2.23467	444
2.23833	431
2.24200	420
2.24567	413
2.24933	407
2.25300	404
2.25667	401
2.26033	400
2.26400	404
2.26767	406
2.27133	404
2.27500	395
2.27867	385
2.28233	375
2.28600	367
2.28967	362
2.29333	355
2.29700	344
2.30067	336
2.30433	330
2.30800	324
2.31167	320
2.31533	313
2.31900	304
2.32267	300
2.32633	300
2.33000	302
2.33367	302
2.33733	298
2.34100	290
2.34467	284
2.34833	282
2.35200	282
2.35567	284
2.35933	290
2.36300	295
2.36667	296
2.37033	294
2.37400	294
2.37767	293
2.38133	286
2.38500	278
2.38867	274
2.39233	276
2.39600	278
2.39967	279
2.40333	275
2.40700	267
2.41067	259
2.41433	255
2.41800	252
2.42167	251
2.42533	253
2.42900	254
2.43267	253
2.43633	250
2.44000	249
2.44367	251
2.44733	252
2.45100	256
2.45467	259
2.45833	258
2.46200	250
2.46567	241
2.46933	234
2.47300	234
2.47667	243
2.48033	253
2.48400	259
2.48767	258
2.49133	257
2.49500	256
2.49867	253
2.50233	247
2.50600	242
2.50967	240
2.51333	243
2.51700	247
2.52067	249
2.52433	249
2.52800	248
2.53167	246
2.53533	249
2.53900	253
2.54267	258
2.54633	263
2.55000	266
2.55367	266
2.55733	264
2.56100	261
2.56467	257
2.56833	251
2.57200	246
2.57567	241
2.57933	242
2.58300	243
2.58667	245
2.59033	248
2.59400	256
2.59767	262
2.60133	266
2.60500	269
2.60867	274
2.61233	280
2.61600	283
2.61967	284
2.62333	280
2.62700	271
2.63067	265
2.63433	260
2.63800	256
2.64167	251
2.64533	247
2.64900	248
2.65267	257
2.65633	268
2.66000	273
2.66367	268
2.66733	263
2.67100	259
2.67467	257
2.67833	258
2.68200	264
2.68567	276
2.68933	293
2.69300	304
2.69667	305
2.70033	300
2.70400	295
2.70767	292
2.71133	294
2.71500	299
2.71867	298
2.72233	290
2.72600	281
2.72967	275
2.73333	274
2.73700	279
2.74067	284
2.74433	287
2.74800	290
2.75167	294
2.75533	299
2.75900	304
2.76267	308
2.76633	310
2.77000	313
2.77367	315
2.77733	318
2.78100	323
2.78467	324
2.78833	321
2.79200	316
2.79567	307
2.79933	301
2.80300	297
2.80667	296
2.81033	296
2.81400	300
2.81767	310
2.82133	324
2.82500	335
2.82867	339
2.83233	337
2.83600	333
2.83967	328
2.84333	320
2.84700	309
2.85067	304
2.85433	304
2.85800	309
2.86167	318
2.86533	328
2.86900	334
2.87267	335
2.87633	331
2.88000	329
2.88367	328
2.88733	326
2.89100	325
2.89467	329
2.89833	336
2.90200	344
2.90567	350
2.90933	355
2.91300	356
2.91667	354
2.92033	347
2.92400	338
2.92767	330
2.93133	325
2.93500	325
2.93867	331
2.94233	338
2.94600	337
2.94967	332
2.95333	326
2.95700	320
2.96067	316
2.96433	313
2.96800	318
2.97167	328
2.97533	341
2.97900	352
2.98267	363
2.98633	371
2.99000	376
2.99367	381
2.99733	382
3.00100	380
3.00467	376
3.00833	369
3.01200	361
3.01567	353
3.01933	351
3.02300	357
3.02667	366
3.03033	372
3.03400	373
3.03767	371
3.04133	368
3.04500	366
3.04867	367
3.05233	371
3.05600	373
3.05967	372
3.06333	371
3.06700	371
3.07067	372
3.07433	374
3.07800	376
3.08167	378
3.08533	378
3.08900	377
3.09267	378
3.09633	380
3.10000	380
3.10367	376
3.10733	371
3.11100	373
3.11467	380
3.11833	386
3.12200	383
3.12567	374
3.12933	369
3.13300	368
3.13667	367
3.14033	367
3.14400	370
3.14767	373
3.15133	374
3.15500	375
3.15867	378
3.16233	381
3.16600	386
3.16967	390
3.17333	388
3.17700	381
3.18067	373
3.18433	366
3.18800	360
3.19167	360
3.19533	366
3.19900	374
3.20267	382
3.20633	388
3.21000	389
3.21367	386
3.21733	387
3.22100	387
3.22467	382
3.22833	374
3.23200	370
3.23567	366
3.23933	363
3.24300	366
3.24667	372
3.25033	376
3.25400	382
3.25767	384
3.26133	381
3.26500	380
3.26867	383
3.27233	384
3.27600	382
3.27967	377
3.28333	373
3.28700	370
3.29067	366
3.29433	364
3.29800	365
3.30167	371
3.30533	375
3.30900	378
3.31267	383
3.31633	389
3.32000	393
3.32367	394
3.32733	389
3.33100	378
3.33467	369
3.33833	363
3.34200	360
3.34567	360
3.34933	364
3.35300	371
3.35667	378
3.36033	376
3.36400	373
3.36767	372
3.37133	374
3.37500	379
3.37867	382
3.38233	380
3.38600	377
3.38967	374
3.39333	368
3.39700	364
3.40067	363
3.40433	365
3.40800	365
3.41167	361
3.41533	358
3.41900	361
3.42267	367
3.42633	373
3.43000	375
3.43367	375
3.43733	372
3.44100	368
3.44467	361
3.44833	355
3.45200	351
3.45567	351
3.45933	352
3.46300	355
3.46667	356
3.47033	352
3.47400	348
3.47767	346
3.48133	348
3.48500	350
3.48867	353
3.49233	354
3.49600	353
3.49967	357
3.50333	366
3.50700	371
3.51067	369
3.51433	359
3.51800	350
3.52167	346
3.52533	344
3.52900	343
3.53267	340
3.53633	337
3.54000	333
3.54367	332
3.54733	334
3.55100	339
3.55467	343
3.55833	347
3.56200	347
3.56567	342
3.56933	339
3.57300	341
3.57667	344
3.58033	346
3.58400	349
3.58767	353
3.59133	350
3.59500	344
3.59867	337
3.60233	334
3.60600	336
3.60967	340
3.61333	339
3.61700	334
3.62067	330
3.62433	324
3.62800	321
3.63167	322
3.63533	330
3.63900	340
3.64267	347
3.64633	347
3.65000	343
3.65367	340
3.65733	343
3.66100	351
3.66467	356
3.66833	355
3.67200	348
3.67567	335
3.67933	324
3.68300	320
3.68667	322
3.69033	327
3.69400	333
3.69767	340
3.70133	343
3.70500	342
3.70867	340
3.71233	337
3.71600	335
3.71967	334
3.72333	333
3.72700	332
3.73067	331
3.73433	330
3.73800	332
3.74167	335
3.74533	334
3.74900	330
3.75267	328
3.75633	326
3.76000	322
3.76367	323
3.76733	330
3.77100	336
3.77467	334
3.77833	326
3.78200	319
3.78567	314
3.78933	315
3.79300	321
3.79667	328
3.80033	337
3.80400	338
3.80767	332
3.81133	324
3.81500	317
3.81867	313
3.82233	311
3.82600	312
3.82967	311
3.83333	312
3.83700	318
3.84067	325
3.84433	327
3.84800	324
3.85167	319
3.85533	315
3.85900	317
3.86267	319
3.86633	322
3.87000	325
3.87367	325
3.87733	325
3.88100	322
3.88467	320
3.88833	318
3.89200	318
3.89567	316
3.89933	314
3.90300	312
3.90667	313
3.91033	314
3.91400	315
3.91767	317
3.92133	318
3.92500	320
3.92867	321
3.93233	324
3.93600	323
3.93967	318
3.94333	311
3.94700	308
3.95067	308
3.95433	313
3.95800	318
3.96167	319
3.96533	319
3.96900	319
3.97267	319
3.97633	318
3.98000	316
3.98367	317
3.98733	325
3.99100	335
3.99467	337
3.99833	329

[Chromatogram (Ch2)]
Interval(msec)	220
# of Points	1091
Start Time(min)	0.002
End Time(min)	3.998
R.Time (min)	Intensity
0.00167	-0
0.00533	-0
0.00900	-0
0.01267	-1
0.01633	-1
0.02000	-1
0.02367	-1
0.02733	-1
0.03100	-0
0.03467	0
0.03833	0
0.04200	0
0.04567	0
0.04933	1
0.05300	1
0.05667	1
0.06033	2
0.06400	2
0.06767	2
0.07133	2
0.07500	2
0.07867	2
0.08233	2
0.08600	2
0.08967	2
0.09333	2
0.09700	2
0.10067	2
0.10433	2
0.10800	2
0.11167	2
0.11533	2
0.11900	1
0.12267	1
0.12633	1
0.13000	1
0.13367	0
0.13733	0
0.14100	-0
0.14467	-0
0.14833	-0
0.15200	-1
0.15567	-1
0.15933	-1
0.16300	-1
0.16667	-1
0.17033	-1
0.17400	-1
0.17767	-1
0.18133	-1
0.18500	-1
0.18867	-0
0.19233	-0
0.19600	-0
0.19967	-0
0.20333	0
0.20700	0
0.21067	0
0.21433	1
0.21800	1
0.22167	1
0.22533	1
0.22900	1
0.23267	0
0.23633	-0
0.24000	-1
0.24367	-1
0.24733	-2
0.25100	-2
0.25467	-3
0.25833	-3
0.26200	-3
0.26567	-3
0.26933	-3
0.27300	-3
0.27667	-3
0.28033	-3
0.28400	-4
0.28767	-4
0.29133	-4
0.29500	-4
0.29867	-4
0.30233	-4
0.30600	-4
0.30967	-4
0.31333	-4
0.31700	-4
0.32067	-4
0.32433	-3
0.32800	-3
0.33167	-3
0.33533	-3
0.33900	-3
0.34267	-2
0.34633	-2
0.35000	-2
0.35367	-1
0.35733	-1
0.36100	-1
0.36467	-1
0.36833	-0
0.37200	0
0.37567	0
0.37933	1
0.38300	1
0.38667	1
0.39033	1
0.39400	1
0.39767	0
0.40133	0
0.40500	-0
0.40867	0
0.41233	0
0.41600	0
0.41967	1
0.42333	1
0.42700	1
0.43067	1
0.43433	1
0.43800	0
0.44167	0
0.44533	0
0.44900	0
0.45267	0
0.45633	1
0.46000	1
0.46367	1
0.46733	1
0.47100	1
0.47467	1
0.47833	1
0.48200	0
0.48567	0
0.48933	0
0.49300	0
0.49667	0
0.50033	-0
0.50400	-0
0.50767	-0
0.51133	-0
0.51500	0
0.51867	0
0.52233	0
0.52600	0
0.52967	0
0.53333	-0
0.53700	-1
0.54067	-1
0.54433	-1
0.54800	-2
0.55167	-3
0.55533	-3
0.55900	-3
0.56267	-3
0.56633	-4
0.57000	-4
0.57367	-3
0.57733	-3
0.58100	-3
0.58467	-3
0.58833	-3
0.59200	-2
0.59567	-2
0.59933	-1
0.60300	-1
0.60667	-0
0.61033	-0
0.61400	-0
0.61767	-0
0.62133	0
0.62500	-0
0.62867	-0
0.63233	0
0.63600	0
0.63967	-0
0.64333	-0
0.64700	-0
0.65067	-0
0.65433	-0
0.65800	-0
0.66167	-1
0.66533	-1
0.66900	-1
0.67267	-1
0.67633	-1
0.68000	-1
0.68367	-1
0.68733	-2
0.69100	-2
0.69467	-2
0.69833	-2
0.70200	-2
0.70567	-2
0.70933	-3
0.71300	-3
0.71667	-3
0.72033	-3
0.72400	-3
0.72767	-3
0.73133	-3
0.73500	-3
0.73867	-3
0.74233	-3
0.74600	-3
0.74967	-3
0.75333	-3
0.75700	-4
0.76067	-4
0.76433	-4
0.76800	-5
0.77167	-5
0.77533	-5
0.77900	-5
0.78267	-5
0.78633	-5
0.79000	-5
0.79367	-4
0.79733	-4
0.80100	-3
0.80467	-3
0.80833	-2
0.81200	-2
0.81567	-1
0.81933	-1
0.82300	-1
0.82667	-1
0.83033	-1
0.83400	-1
0.83767	-1
0.84133	-1
0.84500	-1
0.84867	-2
0.85233	-2
0.85600	-2
0.85967	-2
0.86333	-2
0.86700	-2
0.87067	-3
0.87433	-3
0.87800	-3
0.88167	-4
0.88533	-4
0.88900	-4
0.89267	-4
0.89633	-5
0.90000	-5
0.90367	-5
0.90733	-5
0.91100	-5
0.91467	-5
0.91833	-5
0.92200	-5
0.92567	-5
0.92933	-5
0.93300	-5
0.93667	-5
0.94033	-4
0.94400	-4
0.94767	-4
0.95133	-3
0.95500	-3
0.95867	-3
0.96233	-3
0.96600	-3
0.96967	-3
0.97333	-3
0.97700	-3
0.98067	-3
0.98433	-3
0.98800	-3
0.99167	-3
0.99533	-2
0.99900	-2
1.00267	-2
1.00633	-2
1.01000	-1
1.01367	-2
1.01733	-2
1.02100	-1
1.02467	-1
1.02833	-1
1.03200	-1
1.03567	-1
1.03933	-1
1.04300	-1
1.04667	-1
1.05033	-1
1.05400	-1
1.05767	-2
1.06133	-2
1.06500	-2
1.06867	-2
1.07233	-2
1.07600	-3
1.07967	-3
1.08333	-3
1.08700	-3
1.09067	-3
1.09433	-3
1.09800	-3
1.10167	-4
1.10533	-4
1.10900	-4
1.11267	-4
1.11633	-4
1.12000	-4
1.12367	-4
1.12733	-4
1.13100	-3
1.13467	-3
1.13833	-3
1.14200	-3
1.14567	-3
1.14933	-3
1.15300	-2
1.15667	-2
1.16033	-2
1.16400	-2
1.16767	-2
1.17133	-2
1.17500	-2
1.17867	-1
1.18233	-1
1.18600	-1
1.18967	-1
1.19333	-1
1.19700	-1
1.20067	-1
1.20433	-1
1.20800	-1
1.21167	-1
1.21533	-1
1.21900	-1
1.22267	-1
1.22633	-0
1.23000	-1
1.23367	-1
1.23733	-1
1.24100	-2
1.24467	-2
1.24833	-2
1.25200	-3
1.25567	-3
1.25933	-3
1.26300	-3
1.26667	-3
1.27033	-3
1.27400	-3
1.27767	-3
1.28133	-3
1.28500	-3
1.28867	-4
1.29233	-4
1.29600	-4
1.29967	-4
1.30333	-4
1.30700	-4
1.31067	-4
1.31433	-4
1.31800	-4
1.32167	-4
1.32533	-3
1.32900	-3
1.33267	-3
1.33633	-3
1.34000	-3
1.34367	-3
1.34733	-3
1.35100	-3
1.35467	-3
1.35833	-3
1.36200	-3
1.36567	-3
1.36933	-3
1.37300	-3
1.37667	-3
1.38033	-3
1.38400	-3
1.38767	-3
1.39133	-3
1.39500	-3
1.39867	-3
1.40233	-3
1.40600	-3
1.40967	-3
1.41333	-3
1.41700	-3
1.42067	-3
1.42433	-3
1.42800	-3
1.43167	-3
1.43533	-2
1.43900	-2
1.44267	-3
1.44633	-3
1.45000	-3
1.45367	-3
1.45733	-3
1.46100	-4
1.46467	-4
1.46833	-4
1.47200	-5
1.47567	-5
1.47933	-6
1.48300	-6
1.48667	-6
1.49033	-6
1.49400	-7
1.49767	-7
1.50133	-7
1.50500	-7
1.50867	-7
1.51233	-7
1.51600	-7
1.51967	-7
1.52333	-7
1.52700	-7
1.53067	-7
1.53433	-7
1.53800	-7
1.54167	-7
1.54533	-6
1.54900	-6
1.55267	-5
1.55633	-5
1.56000	-5
1.56367	-5
1.56733	-4
1.57100	-4
1.57467	-4
1.57833	-4
1.58200	-5
1.58567	-5
1.58933	-5
1.59300	-6
1.59667	-6
1.60033	-6
1.60400	-7
1.60767	-8
1.61133	-9
1.61500	-11
1.61867	-13
1.62233	-15
1.62600	-18
1.62967	-20
1.63333	-23
1.63700	-26
1.64067	-30
1.64433	-33
1.64800	-36
1.65167	-40
1.65533	-43
1.65900	-47
1.66267	-51
1.66633	-55
1.67000	-60
1.67367	-64
1.67733	-69
1.68100	-74
1.68467	-79
1.68833	-83
1.69200	-87
1.69567	-90
1.69933	-93
1.70300	-96
1.70667	-97
1.71033	-99
1.71400	-100
1.71767	-101
1.72133	-102
1.72500	-102
1.72867	-102
1.73233	-103
1.73600	-103
1.73967	-104
1.74333	-104
1.74700	-104
1.75067	-105
1.75433	-106
1.75800	-106
1.76167	-106
1.76533	-106
1.76900	-105
1.77267	-105
1.77633	-104
1.78000	-104
1.78367	-104
1.78733	-103
1.79100	-104
1.79467	-104
1.79833	-105
1.80200	-106
1.80567	-107
1.80933	-108
1.81300	-108
1.81667	-109
1.82033	-108
1.82400	-108
1.82767	-108
1.83133	-108
1.83500	-108
1.83867	-108
1.84233	-108
1.84600	-108
1.84967	-108
1.85333	-107
1.85700	-107
1.86067	-107
1.86433	-107
1.86800	-107
1.87167	-107
1.87533	-108
1.87900	-108
1.88267	-108
1.88633	-108
1.89000	-108
1.89367	-108
1.89733	-107
1.90100	-107
1.90467	-106
1.90833	-106
1.91200	-106
1.91567	-106
1.91933	-106
1.92300	-106
1.92667	-106
1.93033	-106
1.93400	-105
1.93767	-105
1.94133	-104
1.94500	-104
1.94867	-103
1.95233	-103
1.95600	-103
1.95967	-103
1.96333	-102
1.96700	-102
1.97067	-101
1.97433	-101
1.97800	-100
1.98167	-100
1.98533	-100
1.98900	-100
1.99267	-101
1.99633	-101
2.00000	-101
2.00367	-101
2.00733	-101
2.01100	-101
2.01467	-101
2.01833	-100
2.02200	-99
2.02567	-99
2.02933	-98
2.03300	-97
2.03667	-97
2.04033	-96
2.04400	-96
2.04767	-97
2.05133	-97
2.05500	-96
2.05867	-96
2.06233	-95
2.06600	-95
2.06967	-95
2.07333	-95
2.07700	-94
2.08067	-94
2.08433	-94
2.08800	-94
2.09167	-93
2.09533	-93
2.09900	-93
2.10267	-93
2.10633	-92
2.11000	-92
2.11367	-91
2.11733	-91
2.12100	-92
2.12467	-92
2.12833	-92
2.13200	-91
2.13567	-91
2.13933	-90
2.14300	-90
2.14667	-90
2.15033	-89
2.15400	-89
2.15767	-89
2.16133	-89
2.16500	-88
2.16867	-88
2.17233	-88
2.17600	-87
2.17967	-86
2.18333	-86
2.18700	-86
2.19067	-86
2.19433	-86
2.19800	-87
2.20167	-87
2.20533	-87
2.20900	-87
2.21267	-87
2.21633	-86
2.22000	-86
2.22367	-85
2.22733	-85
2.23100	-84
2.23467	-83
2.23833	-82
2.24200	-81
2.24567	-80
2.24933	-79
2.25300	-78
2.25667	-78
2.26033	-79
2.26400	-80
2.26767	-81
2.27133	-82
2.27500	-83
2.27867	-83
2.28233	-83
2.28600	-82
2.28967	-81
2.29333	-80
2.29700	-79
2.30067	-78
2.30433	-77
2.30800	-77
2.31167	-76
2.31533	-76
2.31900	-75
2.32267	-75
2.32633	-74
2.33000	-74
2.33367	-74
2.33733	-73
2.34100	-73
2.34467	-72
2.34833	-71
2.35200	-69
2.35567	-68
2.35933	-66
2.36300	-65
2.36667	-63
2.37033	-61
2.37400	-59
2.37767	-56
2.38133	-53
2.38500	-50
2.38867	-46
2.39233	-42
2.39600	-38
2.39967	-34
2.40333	-30
2.40700	-26
2.41067	-22
2.41433	-19
2.41800	-17
2.42167	-15
2.42533	-12
2.42900	-10
2.43267	-7
2.43633	-5
2.44000	-3
2.44367	-1
2.44733	1
2.45100	2
2.45467	3
2.45833	4
2.46200	5
2.46567	5
2.46933	6
2.47300	7
2.47667	8
2.48033	9
2.48400	9
2.48767	10
2.49133	10
2.49500	11
2.49867	11
2.50233	11
2.50600	11
2.50967	11
2.51333	10
2.51700	10
2.52067	10
2.52433	10
2.52800	9
2.53167	9
2.53533	9
2.53900	9
2.54267	9
2.54633	9
2.55000	9
2.55367	9
2.55733	9
2.56100	10
2.56467	11
2.56833	11
2.57200	12
2.57567	13
2.57933	13
2.58300	14
2.58667	14
2.59033	14
2.59400	14
2.59767	14
2.60133	15
2.60500	14
2.60867	15
2.61233	15
2.61600	15
2.61967	15
2.62333	16
2.62700	16
2.63067	16
2.63433	16
2.63800	16
2.64167	16
2.64533	16
2.64900	17
2.65267	17
2.65633	17
2.66000	17
2.66367	18
2.66733	19
2.67100	20
2.67467	20
2.67833	21
2.68200	22
2.68567	23
2.68933	23
2.69300	23
2.69667	23
2.70033	23
2.70400	23
2.70767	22
2.71133	22
2.71500	23
2.71867	23
2.72233	23
2.72600	23
2.72967	24
2.73333	24
2.73700	25
2.74067	26
2.74433	26
2.74800	27
2.75167	27
2.75533	28
2.75900	28
2.76267	28
2.76633	27
2.77000	26
2.77367	26
2.77733	25
2.78100	25
2.78467	24
2.78833	24
2.79200	24
2.79567	24
2.79933	24
2.80300	24
2.80667	24
2.81033	24
2.81400	25
2.81767	25
2.82133	26
2.82500	26
2.82867	26
2.83233	27
2.83600	27
2.83967	27
2.84333	27
2.84700	28
2.85067	28
2.85433	28
2.85800	28
2.86167	27
2.86533	25
2.86900	21
2.87267	15
2.87633	5
2.88000	-8
2.88367	-26
2.88733	-50
2.89100	-78
2.89467	-111
2.89833	-150
2.90200	-193
2.90567	-241
2.90933	-293
2.91300	-348
2.91667	-406
2.92033	-466
2.92400	-528
2.92767	-590
2.93133	-651
2.93500	-712
2.93867	-772
2.94233	-827
2.94600	-880
2.94967	-932
2.95333	-986
2.95700	-1041
2.96067	-1087
2.96433	-1115
2.96800	-1119
2.97167	-1097
2.97533	-1053
2.97900	-992
2.98267	-919
2.98633	-840
2.99000	-758
2.99367	-678
2.99733	-601
3.00100	-529
3.00467	-463
3.00833	-402
3.01200	-348
3.01567	-300
3.01933	-257
3.02300	-220
3.02667	-187
3.03033	-159
3.03400	-135
3.03767	-114
3.04133	-95
3.04500	-80
3.04867	-66
3.05233	-55
3.05600	-45
3.05967	-37
3.06333	-29
3.06700	-23
3.07067	-18
3.07433	-14
3.07800	-10
3.08167	-7
3.08533	-4
3.08900	-1
3.09267	2
3.09633	4
3.10000	6
3.10367	8
3.10733	9
3.11100	10
3.11467	11
3.11833	12
3.12200	13
3.12567	13
3.12933	14
3.13300	14
3.13667	14
3.14033	15
3.14400	15
3.14767	16
3.15133	16
3.15500	17
3.15867	17
3.16233	17
3.16600	18
3.16967	18
3.17333	18
3.17700	19
3.18067	19
3.18433	19
3.18800	19
3.19167	19
3.19533	20
3.19900	20
3.20267	20
3.20633	20
3.21000	21
3.21367	21
3.21733	21
3.22100	21
3.22467	21
3.22833	21
3.23200	22
3.23567	22
3.23933	22
3.24300	22
3.24667	22
3.25033	23
3.25400	23
3.25767	23
3.26133	23
3.26500	23
3.26867	23
3.27233	23
3.27600	23
3.27967	23
3.28333	23
3.28700	23
3.29067	23
3.29433	23
3.29800	24
3.30167	24
3.30533	24
3.30900	24
3.31267	24
3.31633	24
3.32000	23
3.32367	23
3.32733	23
3.33100	23
3.33467	24
3.33833	24
3.34200	24
3.34567	24
3.34933	24
3.35300	24
3.35667	24
3.36033	24
3.36400	24
3.36767	24
3.37133	24
3.37500	24
3.37867	24
3.38233	25
3.38600	25
3.38967	25
3.39333	25
3.39700	25
3.40067	25
3.40433	25
3.40800	25
3.41167	25
3.41533	24
3.41900	24
3.42267	24
3.42633	24
3.43000	24
3.43367	24
3.43733	24
3.44100	24
3.44467	24
3.44833	25
3.45200	25
3.45567	25
3.45933	26
3.46300	26
3.46667	27
3.47033	27
3.47400	27
3.47767	28
3.48133	28
3.48500	28
3.48867	29
3.49233	29
3.49600	29
3.49967	29
3.50333	30
3.50700	30
3.51067	30
3.51433	30
3.51800	30
3.52167	30
3.52533	30
3.52900	30
3.53267	30
3.53633	30
3.54000	30
3.54367	30
3.54733	30
3.55100	30
3.55467	30
3.55833	30
3.56200	30
3.56567	29
3.56933	29
3.57300	29
3.57667	29
3.58033	29
3.58400	30
3.58767	30
3.59133	30
3.59500	30
3.59867	30
3.60233	30
3.60600	30
3.60967	29
3.61333	29
3.61700	29
3.62067	29
3.62433	29
3.62800	29
3.63167	29
3.63533	29
3.63900	29
3.64267	29
3.64633	29
3.65000	29
3.65367	29
3.65733	29
3.66100	29
3.66467	29
3.66833	28
3.67200	28
3.67567	28
3.67933	28
3.68300	27
3.68667	27
3.69033	27
3.69400	27
3.69767	27
3.70133	27
3.70500	27
3.70867	27
3.71233	27
3.71600	26
3.71967	26
3.72333	26
3.72700	26
3.73067	25
3.73433	25
3.73800	25
3.74167	25
3.74533	25
3.74900	25
3.75267	24
3.75633	24
3.76000	24
3.76367	24
3.76733	24
3.77100	24
3.77467	24
3.77833	24
3.78200	24
3.78567	24
3.78933	24
3.79300	24
3.79667	24
3.80033	24
3.80400	24
3.80767	25
3.81133	25
3.81500	25
3.81867	25
3.82233	25
3.82600	26
3.82967	26
3.83333	26
3.83700	26
3.84067	26
3.84433	26
3.84800	27
3.85167	27
3.85533	27
3.85900	27
3.86267	27
3.86633	27
3.87000	28
3.87367	28
3.87733	28
3.88100	28
3.88467	28
3.88833	28
3.89200	28
3.89567	28
3.89933	28
3.90300	28
3.90667	28
3.91033	28
3.91400	28
3.91767	28
3.92133	27
3.92500	27
3.92867	27
3.93233	27
3.93600	27
3.93967	27
3.94333	27
3.94700	27
3.95067	27
3.95433	26
3.95800	26
3.96167	26
3.96533	26
3.96900	26
3.97267	26
3.97633	26
3.98000	26
3.98367	26
3.98733	26
3.99100	26
3.99467	26
3.99833	26

[Chromatogram (Ch3)]
Interval(msec)	220
# of Points	1091
Start Time(min)	0.002
End Time(min)	3.998
R.Time (min)	Intensity
0.00167	1
0.00533	3
0.00900	3
0.01267	3
0.01633	2
0.02000	1
0.02367	1
0.02733	2
0.03100	2
0.03467	2
0.03833	2
0.04200	3
0.04567	4
0.04933	6
0.05300	7
0.05667	7
0.06033	8
0.06400	8
0.06767	7
0.07133	4
0.07500	4
0.07867	4
0.08233	2
0.08600	3
0.08967	7
0.09333	8
0.09700	7
0.10067	5
0.10433	4
0.10800	5
0.11167	6
0.11533	7
0.11900	6
0.12267	7
0.12633	7
0.13000	10
0.13367	12
0.13733	13
0.14100	10
0.14467	7
0.14833	7
0.15200	7
0.15567	7
0.15933	9
0.16300	9
0.16667	6
0.17033	5
0.17400	6
0.17767	7
0.18133	9
0.18500	10
0.18867	10
0.19233	8
0.19600	5
0.19967	6
0.20333	9
0.20700	12
0.21067	14
0.21433	16
0.21800	16
0.22167	16
0.22533	16
0.22900	15
0.23267	13
0.23633	11
0.24000	8
0.24367	6
0.24733	7
0.25100	10
0.25467	15
0.25833	17
0.26200	17
0.26567	16
0.26933	14
0.27300	13
0.27667	12
0.28033	12
0.28400	12
0.28767	11
0.29133	11
0.29500	13
0.29867	14
0.30233	12
0.30600	11
0.30967	10
0.31333	11
0.31700	13
0.32067	13
0.32433	10
0.32800	8
0.33167	8
0.33533	10
0.33900	12
0.34267	12
0.34633	11
0.35000	11
0.35367	10
0.35733	11
0.36100	12
0.36467	11
0.36833	9
0.37200	8
0.37567	12
0.37933	14
0.38300	16
0.38667	16
0.39033	17
0.39400	14
0.39767	13
0.40133	14
0.40500	14
0.40867	14
0.41233	13
0.41600	11
0.41967	10
0.42333	11
0.42700	12
0.43067	13
0.43433	15
0.43800	17
0.44167	18
0.44533	17
0.44900	15
0.45267	15
0.45633	16
0.46000	15
0.46367	15
0.46733	16
0.47100	14
0.47467	12
0.47833	10
0.48200	10
0.48567	9
0.48933	10
0.49300	11
0.49667	11
0.50033	12
0.50400	14
0.50767	15
0.51133	14
0.51500	14
0.51867	14
0.52233	14
0.52600	14
0.52967	12
0.53333	11
0.53700	10
0.54067	11
0.54433	12
0.54800	14
0.55167	16
0.55533	17
0.55900	17
0.56267	16
0.56633	16
0.57000	15
0.57367	14
0.57733	15
0.58100	15
0.58467	15
0.58833	16
0.59200	17
0.59567	17
0.59933	17
0.60300	18
0.60667	18
0.61033	17
0.61400	16
0.61767	16
0.62133	16
0.62500	16
0.62867	16
0.63233	16
0.63600	16
0.63967	17
0.64333	19
0.64700	20
0.65067	19
0.65433	18
0.65800	17
0.66167	18
0.66533	17
0.66900	17
0.67267	17
0.67633	19
0.68000	18
0.68367	17
0.68733	16
0.69100	15
0.69467	16
0.69833	17
0.70200	19
0.70567	20
0.70933	21
0.71300	23
0.71667	22
0.72033	19
0.72400	17
0.72767	15
0.73133	15
0.73500	18
0.73867	20
0.74233	21
0.74600	23
0.74967	23
0.75333	22
0.75700	21
0.76067	20
0.76433	20
0.76800	21
0.77167	22
0.77533	23
0.77900	23
0.78267	23
0.78633	22
0.79000	22
0.79367	22
0.79733	20
0.80100	18
0.80467	17
0.80833	19
0.81200	18
0.81567	18
0.81933	20
0.82300	21
0.82667	20
0.83033	19
0.83400	20
0.83767	21
0.84133	24
0.84500	23
0.84867	22
0.85233	21
0.85600	22
0.85967	22
0.86333	21
0.86700	20
0.87067	21
0.87433	22
0.87800	23
0.88167	21
0.88533	22
0.88900	24
0.89267	24
0.89633	24
0.90000	26
0.90367	26
0.90733	25
0.91100	23
0.91467	21
0.91833	20
0.92200	20
0.92567	20
0.92933	22
0.93300	23
0.93667	22
0.94033	23
0.94400	23
0.94767	22
0.95133	22
0.95500	23
0.95867	22
0.96233	20
0.96600	21
0.96967	22
0.97333	24
0.97700	26
0.98067	25
0.98433	26
0.98800	26
0.99167	27
0.99533	28
0.99900	29
1.00267	29
1.00633	27
1.01000	26
1.01367	28
1.01733	30
1.02100	30
1.02467	32
1.02833	35
1.03200	33
1.03567	29
1.03933	23
1.04300	20
1.04667	22
1.05033	24
1.05400	25
1.05767	26
1.06133	26
1.06500	26
1.06867	25
1.07233	25
1.07600	25
1.07967	24
1.08333	24
1.08700	27
1.09067	29
1.09433	30
1.09800	29
1.10167	25
1.10533	22
1.10900	21
1.11267	22
1.11633	24
1.12000	26
1.12367	27
1.12733	27
1.13100	28
1.13467	29
1.13833	28
1.14200	25
1.14567	26
1.14933	26
1.15300	27
1.15667	28
1.16033	29
1.16400	28
1.16767	27
1.17133	25
1.17500	25
1.17867	24
1.18233	25
1.18600	25
1.18967	26
1.19333	28
1.19700	28
1.20067	29
1.20433	29
1.20800	28
1.21167	27
1.21533	25
1.21900	27
1.22267	29
1.22633	29
1.23000	31
1.23367	33
1.23733	35
1.24100	34
1.24467	33
1.24833	31
1.25200	29
1.25567	29
1.25933	30
1.26300	32
1.26667	33
1.27033	34
1.27400	33
1.27767	32
1.28133	29
1.28500	29
1.28867	28
1.29233	28
1.29600	28
1.29967	28
1.30333	28
1.30700	28
1.31067	27
1.31433	29
1.31800	30
1.32167	31
1.32533	31
1.32900	29
1.33267	28
1.33633	29
1.34000	28
1.34367	29
1.34733	30
1.35100	31
1.35467	31
1.35833	31
1.36200	32
1.36567	33
1.36933	34
1.37300	35
1.37667	34
1.38033	33
1.38400	31
1.38767	29
1.39133	30
1.39500	29
1.39867	26
1.40233	24
1.40600	24
1.40967	22
1.41333	23
1.41700	25
1.42067	27
1.42433	29
1.42800	29
1.43167	27
1.43533	27
1.43900	27
1.44267	29
1.44633	29
1.45000	28
1.45367	28
1.45733	28
1.46100	29
1.46467	30
1.46833	28
1.47200	29
1.47567	30
1.47933	32
1.48300	32
1.48667	32
1.49033	33
1.49400	34
1.49767	34
1.50133	36
1.50500	36
1.50867	35
1.51233	33
1.51600	31
1.51967	30
1.52333	30
1.52700	30
1.53067	30
1.53433	28
1.53800	27
1.54167	28
1.54533	31
1.54900	34
1.55267	33
1.55633	31
1.56000	30
1.56367	29
1.56733	27
1.57100	26
1.57467	28
1.57833	28
1.58200	28
1.58567	28
1.58933	29
1.59300	29
1.59667	28
1.60033	28
1.60400	28
1.60767	27
1.61133	28
1.61500	27
1.61867	28
1.62233	28
1.62600	28
1.62967	29
1.63333	30
1.63700	31
1.64067	32
1.64433	32
1.64800	33
1.65167	35
1.65533	35
1.65900	34
1.66267	32
1.66633	32
1.67000	32
1.67367	31
1.67733	32
1.68100	33
1.68467	35
1.68833	36
1.69200	36
1.69567	36
1.69933	38
1.70300	41
1.70667	42
1.71033	44
1.71400	42
1.71767	41
1.72133	39
1.72500	38
1.72867	40
1.73233	42
1.73600	42
1.73967	41
1.74333	39
1.74700	38
1.75067	37
1.75433	38
1.75800	39
1.76167	39
1.76533	39
1.76900	40
1.77267	40
1.77633	40
1.78000	41
1.78367	42
1.78733	44
1.79100	46
1.79467	45
1.79833	44
1.80200	46
1.80567	49
1.80933	49
1.81300	50
1.81667	49
1.82033	47
1.82400	45
1.82767	46
1.83133	46
1.83500	45
1.83867	46
1.84233	47
1.84600	48
1.84967	50
1.85333	53
1.85700	56
1.86067	57
1.86433	57
1.86800	56
1.87167	55
1.87533	55
1.87900	57
1.88267	60
1.88633	63
1.89000	63
1.89367	61
1.89733	61
1.90100	61
1.90467	61
1.90833	59
1.91200	59
1.91567	61
1.91933	62
1.92300	63
1.92667	65
1.93033	65
1.93400	67
1.93767	70
1.94133	73
1.94500	74
1.94867	74
1.95233	75
1.95600	75
1.95967	74
1.96333	74
1.96700	73
1.97067	74
1.97433	76
1.97800	79
1.98167	81
1.98533	82
1.98900	83
1.99267	82
1.99633	84
2.00000	85
2.00367	86
2.00733	87
2.01100	89
2.01467	89
2.01833	89
2.02200	90
2.02567	89
2.02933	89
2.03300	90
2.03667	93
2.04033	96
2.04400	98
2.04767	98
2.05133	101
2.05500	102
2.05867	103
2.06233	102
2.06600	100
2.06967	102
2.07333	103
2.07700	103
2.08067	101
2.08433	99
2.08800	101
2.09167	103
2.09533	104
2.09900	106
2.10267	108
2.10633	110
2.11000	111
2.11367	111
2.11733	111
2.12100	112
2.12467	113
2.12833	112
2.13200	111
2.13567	111
2.13933	110
2.14300	110
2.14667	112
2.15033	113
2.15400	114
2.15767	115
2.16133	115
2.16500	116
2.16867	118
2.17233	116
2.17600	115
2.17967	116
2.18333	119
2.18700	123
2.19067	126
2.19433	127
2.19800	128
2.20167	127
2.20533	125
2.20900	126
2.21267	128
2.21633	129
2.22000	128
2.22367	129
2.22733	129
2.23100	128
2.23467	127
2.23833	127
2.24200	128
2.24567	130
2.24933	131
2.25300	131
2.25667	132
2.26033	133
2.26400	134
2.26767	136
2.27133	138
2.27500	140
2.27867	143
2.28233	142
2.28600	141
2.28967	138
2.29333	136
2.29700	135
2.30067	136
2.30433	136
2.30800	137
2.31167	138
2.31533	139
2.31900	139
2.32267	139
2.32633	139
2.33000	140
2.33367	141
2.33733	142
2.34100	144
2.34467	145
2.34833	144
2.35200	146
2.35567	146
2.35933	143
2.36300	141
2.36667	141
2.37033	141
2.37400	142
2.37767	143
2.38133	145
2.38500	147
2.38867	147
2.39233	147
2.39600	147
2.39967	145
2.40333	145
2.40700	148
2.41067	151
2.41433	153
2.41800	155
2.42167	155
2.42533	153
2.42900	151
2.43267	152
2.43633	152
2.44000	155
2.44367	193
2.44733	270
2.45100	347
2.45467	408
2.45833	436
2.46200	432
2.46567	417
2.46933	405
2.47300	396
2.47667	385
2.48033	367
2.48400	342
2.48767	314
2.49133	289
2.49500	269
2.49867	257
2.50233	250
2.50600	249
2.50967	254
2.51333	259
2.51700	264
2.52067	267
2.52433	265
2.52800	258
2.53167	247
2.53533	235
2.53900	224
2.54267	213
2.54633	201
2.55000	191
2.55367	187
2.55733	180
2.56100	175
2.56467	174
2.56833	175
2.57200	173
2.57567	173
2.57933	174
2.58300	178
2.58667	182
2.59033	185
2.59400	189
2.59767	193
2.60133	200
2.60500	207
2.60867	214
2.61233	220
2.61600	222
2.61967	223
2.62333	222
2.62700	219
2.63067	214
2.63433	209
2.63800	203
2.64167	194
2.64533	183
2.64900	175
2.65267	167
2.65633	160
2.66000	154
2.66367	148
2.66733	143
2.67100	140
2.67467	137
2.67833	135
2.68200	134
2.68567	134
2.68933	130
2.69300	126
2.69667	120
2.70033	113
2.70400	120
2.70767	143
2.71133	174
2.71500	208
2.71867	241
2.72233	276
2.72600	313
2.72967	352
2.73333	389
2.73700	426
2.74067	459
2.74433	489
2.74800	517
2.75167	542
2.75533	566
2.75900	585
2.76267	602
2.76633	617
2.77000	632
2.77367	647
2.77733	660
2.78100	672
2.78467	684
2.78833	693
2.79200	698
2.79567	703
2.79933	707
2.80300	710
2.80667	712
2.81033	711
2.81400	707
2.81767	699
2.82133	692
2.82500	683
2.82867	674
2.83233	669
2.83600	671
2.83967	690
2.84333	737
2.84700	833
2.85067	1000
2.85433	1257
2.85800	1615
2.86167	2073
2.86533	2613
2.86900	3200
2.87267	3786
2.87633	4321
2.88000	4760
2.88367	5072
2.88733	5242
2.89100	5271
2.89467	5177
2.89833	4982
2.90200	4714
2.90567	4398
2.90933	4060
2.91300	3718
2.91667	3386
2.92033	3070
2.92400	2779
2.92767	2513
2.93133	2273
2.93500	2059
2.93867	1867
2.94233	1698
2.94600	1554
2.94967	1429
2.95333	1320
2.95700	1226
2.96067	1141
2.96433	1066
2.96800	1002
2.97167	948
2.97533	902
2.97900	867
2.98267	837
2.98633	810
2.99000	788
2.99367	768
2.99733	750
3.00100	737
3.00467	728
3.00833	722
3.01200	716
3.01567	709
3.01933	702
3.02300	698
3.02667	696
3.03033	694
3.03400	692
3.03767	693
3.04133	693
3.04500	693
3.04867	693
3.05233	692
3.05600	691
3.05967	690
3.06333	689
3.06700	689
3.07067	690
3.07433	693
3.07800	695
3.08167	695
3.08533	696
3.08900	694
3.09267	691
3.09633	690
3.10000	689
3.10367	687
3.10733	684
3.11100	681
3.11467	681
3.11833	678
3.12200	676
3.12567	673
3.12933	671
3.13300	670
3.13667	668
3.14033	667
3.14400	667
3.14767	666
3.15133	664
3.15500	661
3.15867	661
3.16233	662
3.16600	662
3.16967	663
3.17333	662
3.17700	660
3.18067	659
3.18433	656
3.18800	654
3.19167	654
3.19533	653
3.19900	652
3.20267	652
3.20633	650
3.21000	650
3.21367	650
3.21733	650
3.22100	650
3.22467	650
3.22833	647
3.23200	646
3.23567	643
3.23933	641
3.24300	639
3.24667	639
3.25033	637
3.25400	637
3.25767	637
3.26133	637
3.26500	638
3.26867	638
3.27233	637
3.27600	637
3.27967	635
3.28333	633
3.28700	631
3.29067	629
3.29433	629
3.29800	627
3.30167	627
3.30533	629
3.30900	631
3.31267	630
3.31633	626
3.32000	621
3.32367	618
3.32733	616
3.33100	613
3.33467	608
3.33833	604
3.34200	602
3.34567	602
3.34933	601
3.35300	599
3.35667	596
3.36033	596
3.36400	594
3.36767	594
3.37133	593
3.37500	592
3.37867	591
3.38233	588
3.38600	584
3.38967	582
3.39333	580
3.39700	578
3.40067	574
3.40433	572
3.40800	573
3.41167	573
3.41533	572
3.41900	571
3.42267	569
3.42633	567
3.43000	565
3.43367	563
3.43733	560
3.44100	558
3.44467	556
3.44833	554
3.45200	553
3.45567	552
3.45933	551
3.46300	551
3.46667	550
3.47033	548
3.47400	545
3.47767	543
3.48133	541
3.48500	539
3.48867	537
3.49233	534
3.49600	534
3.49967	533
3.50333	532
3.50700	531
3.51067	529
3.51433	527
3.51800	526
3.52167	523
3.52533	520
3.52900	516
3.53267	514
3.53633	513
3.54000	515
3.54367	515
3.54733	515
3.55100	512
3.55467	509
3.55833	508
3.56200	508
3.56567	506
3.56933	504
3.57300	502
3.57667	500
3.58033	498
3.58400	497
3.58767	496
3.59133	495
3.59500	494
3.59867	494
3.60233	494
3.60600	491
3.60967	487
3.61333	484
3.61700	484
3.62067	484
3.62433	484
3.62800	484
3.63167	484
3.63533	482
3.63900	477
3.64267	473
3.64633	473
3.65000	473
3.65367	473
3.65733	471
3.66100	470
3.66467	469
3.66833	470
3.67200	471
3.67567	470
3.67933	467
3.68300	466
3.68667	468
3.69033	467
3.69400	466
3.69767	463
3.70133	462
3.70500	463
3.70867	464
3.71233	462
3.71600	460
3.71967	460
3.72333	461
3.72700	462
3.73067	463
3.73433	463
3.73800	462
3.74167	462
3.74533	462
3.74900	458
3.75267	456
3.75633	456
3.76000	458
3.76367	458
3.76733	457
3.77100	456
3.77467	455
3.77833	455
3.78200	453
3.78567	451
3.78933	448
3.79300	447
3.79667	445
3.80033	447
3.80400	450
3.80767	451
3.81133	451
3.81500	450
3.81867	446
3.82233	441
3.82600	439
3.82967	440
3.83333	440
3.83700	439
3.84067	440
3.84433	438
3.84800	436
3.85167	436
3.85533	437
3.85900	436
3.86267	435
3.86633	436
3.87000	435
3.87367	432
3.87733	429
3.88100	425
3.88467	424
3.88833	423
3.89200	424
3.89567	425
3.89933	425
3.90300	424
3.90667	423
3.91033	423
3.91400	423
3.91767	423
3.92133	424
3.92500	422
3.92867	419
3.93233	417
3.93600	417
3.93967	417
3.94333	416
3.94700	416
3.95067	416
3.95433	417
3.95800	417
3.96167	418
3.96533	416
3.96900	413
3.97267	410
3.97633	410
3.98000	411
3.98367	413
3.98733	413
3.99100	415
3.99467	414
3.99833	411

[Status Trace (Column Oven Temperature)]
Interval(msec)	1000
# of Points	240
Start Time(min)	0.005
End Time(min)	3.988
Intensity Units	
Intensity Multiplier	1
R.Time (min)	Intensity
0.00470	35.06
0.02137	35.06
0.03803	35.06
0.05470	35.04
0.07137	35.03
0.08803	35.02
0.10470	35.02
0.12137	35.03
0.13803	35.04
0.15470	35.04
0.17137	35.04
0.18803	35.04
0.20470	35.03
0.22137	35.03
0.23803	35.04
0.25470	35.04
0.27137	35.04
0.28803	35.05
0.30470	35.06
0.32137	35.07
0.33803	35.06
0.35470	35.05
0.37137	35.05
0.38803	35.03
0.40470	35.03
0.42137	35.02
0.43803	35.01
0.45470	35.00
0.47137	34.99
0.48803	34.99
0.50470	34.99
0.52137	34.98
0.53803	34.99
0.55470	35.00
0.57137	35.01
0.58803	35.00
0.60470	35.00
0.62137	35.00
0.63803	34.99
0.65470	34.98
0.67137	34.98
0.68803	34.99
0.70470	35.00
0.72137	35.00
0.73803	35.00
0.75470	35.01
0.77137	35.02
0.78803	35.02
0.80470	35.02
0.82137	35.01
0.83803	35.01
0.85470	35.01
0.87137	35.02
0.88803	35.03
0.90470	35.03
0.92137	35.05
0.93803	35.05
0.95470	35.04
0.97137	35.04
0.98803	35.03
1.00470	35.02
1.02137	35.01
1.03803	35.02
1.05470	35.01
1.07137	35.01
1.08803	35.01
1.10470	35.01
1.12137	35.00
1.13803	34.99
1.15470	34.99
1.17137	34.98
1.18803	34.97
1.20470	34.97
1.22137	34.98
1.23803	34.97
1.25470	34.97
1.27137	34.97
1.28803	34.98
1.30470	34.99
1.32137	35.00
1.33803	34.99
1.35470	34.98
1.37137	34.98
1.38803	34.98
1.40470	34.98
1.42137	34.98
1.43803	34.97
1.45470	34.98
1.47137	34.98
1.48803	35.00
1.50470	35.01
1.52137	35.01
1.53803	35.02
1.55470	35.01
1.57137	35.02
1.58803	35.03
1.60470	35.06
1.62137	35.15
1.63803	35.30
1.65470	35.52
1.67137	35.85
1.68803	36.23
1.70470	36.59
1.72137	36.92
1.73803	37.26
1.75470	37.61
1.77137	37.91
1.78803	38.24
1.80470	38.59
1.82137	38.91
1.83803	39.25
1.85470	39.56
1.87137	39.90
1.88803	40.23
1.90470	40.55
1.92137	40.89
1.93803	41.22
1.95470	41.55
1.97137	41.86
1.98803	42.19
2.00470	42.52
2.02137	42.84
2.03803	43.16
2.05470	43.48
2.07137	43.82
2.08803	44.14
2.10470	44.45
2.12137	44.78
2.13803	45.09
2.15470	45.42
2.17137	45.74
2.18803	46.08
2.20470	46.43
2.22137	46.77
2.23803	47.08
2.25470	47.41
2.27137	47.79
2.28803	48.09
2.30470	48.42
2.32137	48.75
2.33803	49.08
2.35470	49.35
2.37137	49.56
2.38803	49.64
2.40470	49.64
2.42137	49.65
2.43803	49.64
2.45470	49.65
2.47137	49.67
2.48803	49.68
2.50470	49.70
2.52137	49.71
2.53803	49.72
2.55470	49.74
2.57137	49.74
2.58803	49.78
2.60470	49.79
2.62137	49.80
2.63803	49.83
2.65470	49.85
2.67137	49.85
2.68803	49.83
2.70470	49.86
2.72137	49.86
2.73803	49.85
2.75470	49.84
2.77137	49.86
2.78803	49.89
2.80470	49.90
2.82137	49.89
2.83803	49.87
2.85470	49.86
2.87137	49.86
2.88803	49.87
2.90470	49.89
2.92137	49.90
2.93803	49.91
2.95470	49.91
2.97137	49.92
2.98803	49.94
3.00470	49.95
3.02137	49.96
3.03803	49.98
3.05470	49.99
3.07137	50.00
3.08803	50.00
3.10470	49.99
3.12137	50.00
3.13803	50.00
3.15470	50.01
3.17137	50.01
3.18803	50.02
3.20470	50.03
3.22137	50.03
3.23803	50.04
3.25470	50.04
3.27137	50.05
3.28803	50.06
3.30470	50.07
3.32137	50.08
3.33803	50.09
3.35470	50.08
3.37137	50.09
3.38803	50.09
3.40470	50.10
3.42137	50.12
3.43803	50.12
3.45470	50.13
3.47137	50.11
3.48803	50.10
3.50470	50.08
3.52137	50.06
3.53803	50.05
3.55470	50.04
3.57137	50.03
3.58803	50.01
3.60470	50.00
3.62137	50.00
3.63803	49.99
3.65470	49.99
3.67137	50.00
3.68803	50.00
3.70470	49.99
3.72137	50.00
3.73803	50.01
3.75470	50.02
3.77137	50.04
3.78803	50.05
3.80470	50.06
3.82137	50.06
3.83803	50.06
3.85470	50.05
3.87137	50.05
3.88803	50.05
3.90470	50.04
3.92137	50.03
3.93803	50.03
3.95470	50.05
3.97137	50.05
3.98803	50.05

[Status Trace (Injection Unit Temperature)]
Interval(msec)	1000
# of Points	240
Start Time(min)	0.005
End Time(min)	3.988
Intensity Units	
Intensity Multiplier	1
R.Time (min)	Intensity
0.00470	99.98
0.02137	99.98
0.03803	99.98
0.05470	99.98
0.07137	99.98
0.08803	99.98
0.10470	99.98
0.12137	99.98
0.13803	99.98
0.15470	99.98
0.17137	99.98
0.18803	99.98
0.20470	99.98
0.22137	99.98
0.23803	99.98
0.25470	99.98
0.27137	99.98
0.28803	99.99
0.30470	99.98
0.32137	99.98
0.33803	99.98
0.35470	99.99
0.37137	99.99
0.38803	99.98
0.40470	99.98
0.42137	99.99
0.43803	99.99
0.45470	99.99
0.47137	99.98
0.48803	99.98
0.50470	99.98
0.52137	99.99
0.53803	99.99
0.55470	99.99
0.57137	99.98
0.58803	99.99
0.60470	99.99
0.62137	99.99
0.63803	99.99
0.65470	99.98
0.67137	99.99
0.68803	99.99
0.70470	99.99
0.72137	99.99
0.73803	99.99
0.75470	99.99
0.77137	99.99
0.78803	99.99
0.80470	99.99
0.82137	99.99
0.83803	99.99
0.85470	99.98
0.87137	99.99
0.88803	99.99
0.90470	99.99
0.92137	99.98
0.93803	99.99
0.95470	99.99
0.97137	99.99
0.98803	99.99
1.00470	99.99
1.02137	99.99
1.03803	99.99
1.05470	99.99
1.07137	99.99
1.08803	99.99
1.10470	99.99
1.12137	99.99
1.13803	99.99
1.15470	99.99
1.17137	99.99
1.18803	99.99
1.20470	99.99
1.22137	99.99
1.23803	99.99
1.25470	99.99
1.27137	99.99
1.28803	99.99
1.30470	99.99
1.32137	99.99
1.33803	99.99
1.35470	99.98
1.37137	99.99
1.38803	99.99
1.40470	99.99
1.42137	99.99
1.43803	99.99
1.45470	99.99
1.47137	99.99
1.48803	99.99
1.50470	99.99
1.52137	99.99
1.53803	99.99
1.55470	99.99
1.57137	99.99
1.58803	99.99
1.60470	99.99
1.62137	99.99
1.63803	99.99
1.65470	99.99
1.67137	99.99
1.68803	99.99
1.70470	99.99
1.72137	99.99
1.73803	99.99
1.75470	99.99
1.77137	99.99
1.78803	99.98
1.80470	99.99
1.82137	99.99
1.83803	99.98
1.85470	99.98
1.87137	99.98
1.88803	99.98
1.90470	99.98
1.92137	99.98
1.93803	99.98
1.95470	99.98
1.97137	99.98
1.98803	99.98
2.00470	99.98
2.02137	99.97
2.03803	99.98
2.05470	99.97
2.07137	99.98
2.08803	99.98
2.10470	99.97
2.12137	99.97
2.13803	99.97
2.15470	99.97
2.17137	99.97
2.18803	99.97
2.20470	99.97
2.22137	99.97
2.23803	99.97
2.25470	99.97
2.27137	99.97
2.28803	99.97
2.30470	99.97
2.32137	99.97
2.33803	99.97
2.35470	99.96
2.37137	99.96
2.38803	99.97
2.40470	99.97
2.42137	99.97
2.43803	99.97
2.45470	99.97
2.47137	99.97
2.48803	99.97
2.50470	99.97
2.52137	99.97
2.53803	99.97
2.55470	99.97
2.57137	99.97
2.58803	99.97
2.60470	99.98
2.62137	99.97
2.63803	99.98
2.65470	99.98
2.67137	99.98
2.68803	99.98
2.70470	99.98
2.72137	99.98
2.73803	99.98
2.75470	99.98
2.77137	99.98
2.78803	99.99
2.80470	99.99
2.82137	99.99
2.83803	99.99
2.85470	99.99
2.87137	100.00
2.88803	99.99
2.90470	100.00
2.92137	100.00
2.93803	100.00
2.95470	100.00
2.97137	100.00
2.98803	100.00
3.00470	100.00
3.02137	100.01
3.03803	100.01
3.05470	100.01
3.07137	100.01
3.08803	100.01
3.10470	100.01
3.12137	100.01
3.13803	100.01
3.15470	100.01
3.17137	100.02
3.18803	100.02
3.20470	100.02
3.22137	100.02
3.23803	100.02
3.25470	100.02
3.27137	100.02
3.28803	100.02
3.30470	100.03
3.32137	100.03
3.33803	100.02
3.35470	100.03
3.37137	100.03
3.38803	100.03
3.40470	100.03
3.42137	100.03
3.43803	100.03
3.45470	100.03
3.47137	100.03
3.48803	100.04
3.50470	100.04
3.52137	100.04
3.53803	100.04
3.55470	100.04
3.57137	100.04
3.58803	100.04
3.60470	100.04
3.62137	100.04
3.63803	100.04
3.65470	100.04
3.67137	100.04
3.68803	100.04
3.70470	100.04
3.72137	100.04
3.73803	100.04
3.75470	100.04
3.77137	100.04
3.78803	100.04
3.80470	100.04
3.82137	100.05
3.83803	100.05
3.85470	100.05
3.87137	100.05
3.88803	100.05
3.90470	100.05
3.92137	100.05
3.93803	100.05
3.95470	100.04
3.97137	100.05
3.98803	100.05

[Status Trace (Carrier Gas Pressure)]
Interval(msec)	1000
# of Points	240
Start Time(min)	0.005
End Time(min)	3.988
Intensity Units	
Intensity Multiplier	1
R.Time (min)	Intensity
0.00470	58.00
0.02137	55.92
0.03803	56.70
0.05470	58.98
0.07137	59.67
0.08803	58.14
0.10470	57.98
0.12137	58.01
0.13803	58.01
0.15470	58.01
0.17137	58.00
0.18803	58.00
0.20470	58.00
0.22137	58.00
0.23803	58.00
0.25470	58.00
0.27137	58.00
0.28803	58.00
0.30470	58.00
0.32137	58.00
0.33803	58.00
0.35470	58.00
0.37137	58.00
0.38803	58.00
0.40470	58.00
0.42137	58.00
0.43803	58.00
0.45470	58.00
0.47137	58.00
0.48803	58.00
0.50470	58.00
0.52137	58.00
0.53803	58.00
0.55470	58.00
0.57137	58.00
0.58803	58.00
0.60470	58.00
0.62137	58.00
0.63803	58.00
0.65470	58.00
0.67137	58.00
0.68803	58.00
0.70470	58.00
0.72137	58.00
0.73803	58.00
0.75470	58.00
0.77137	58.00
0.78803	58.00
0.80470	58.00
0.82137	58.00
0.83803	58.00
0.85470	58.00
0.87137	58.00
0.88803	58.00
0.90470	58.00
0.92137	58.00
0.93803	58.00
0.95470	58.00
0.97137	58.00
0.98803	58.00
1.00470	58.00
1.02137	58.00
1.03803	58.00
1.05470	58.00
1.07137	58.00
1.08803	58.00
1.10470	58.00
1.12137	58.00
1.13803	58.00
1.15470	58.00
1.17137	58.00
1.18803	58.00
1.20470	58.00
1.22137	58.00
1.23803	58.00
1.25470	58.00
1.27137	58.00
1.28803	58.00
1.30470	58.00
1.32137	58.00
1.33803	58.00
1.35470	58.00
1.37137	58.00
1.38803	58.00
1.40470	58.00
1.42137	58.00
1.43803	58.00
1.45470	58.00
1.47137	58.00
1.48803	58.00
1.50470	58.00
1.52137	58.00
1.53803	58.00
1.55470	58.00
1.57137	58.00
1.58803	58.00
1.60470	58.00
1.62137	58.00
1.63803	58.00
1.65470	58.01
1.67137	58.01
1.68803	58.00
1.70470	58.00
1.72137	58.00
1.73803	58.00
1.75470	58.00
1.77137	58.00
1.78803	58.00
1.80470	58.00
1.82137	58.00
1.83803	58.00
1.85470	58.00
1.87137	58.00
1.88803	58.00
1.90470	58.00
1.92137	58.00
1.93803	58.00
1.95470	58.00
1.97137	58.00
1.98803	58.00
2.00470	58.00
2.02137	58.00
2.03803	58.00
2.05470	58.00
2.07137	58.00
2.08803	58.00
2.10470	58.00
2.12137	58.00
2.13803	58.00
2.15470	58.00
2.17137	58.00
2.18803	58.00
2.20470	58.00
2.22137	58.00
2.23803	58.00
2.25470	58.00
2.27137	58.00
2.28803	58.00
2.30470	58.00
2.32137	58.00
2.33803	58.00
2.35470	58.00
2.37137	58.00
2.38803	57.99
2.40470	57.99
2.42137	58.00
2.43803	58.00
2.45470	58.00
2.47137	58.00
2.48803	58.00
2.50470	57.99
2.52137	57.99
2.53803	58.00
2.55470	58.00
2.57137	58.00
2.58803	58.00
2.60470	58.00
2.62137	58.00
2.63803	58.00
2.65470	58.00
2.67137	58.00
2.68803	58.00
2.70470	58.00
2.72137	58.00
2.73803	58.00
2.75470	58.00
2.77137	58.00
2.78803	58.00
2.80470	58.00
2.82137	58.00
2.83803	58.00
2.85470	58.00
2.87137	58.00
2.88803	58.00
2.90470	58.00
2.92137	58.00
2.93803	58.00
2.95470	58.00
2.97137	58.00
2.98803	58.00
3.00470	58.00
3.02137	58.00
3.03803	58.00
3.05470	58.00
3.07137	58.00
3.08803	58.00
3.10470	58.00
3.12137	58.00
3.13803	58.00
3.15470	58.00
3.17137	58.00
3.18803	58.00
3.20470	58.00
3.22137	58.00
3.23803	58.00
3.25470	58.00
3.27137	58.00
3.28803	58.00
3.30470	58.00
3.32137	58.00
3.33803	58.00
3.35470	58.00
3.37137	58.00
3.38803	58.00
3.40470	58.00
3.42137	58.00
3.43803	58.00
3.45470	58.00
3.47137	58.00
3.48803	58.00
3.50470	58.00
3.52137	58.00
3.53803	58.00
3.55470	58.00
3.57137	58.00
3.58803	58.00
3.60470	58.00
3.62137	58.00
3.63803	58.00
3.65470	58.00
3.67137	58.00
3.68803	58.00
3.70470	58.00
3.72137	58.00
3.73803	58.00
3.75470	58.00
3.77137	58.00
3.78803	58.00
3.80470	58.00
3.82137	58.00
3.83803	58.00
3.85470	58.00
3.87137	58.00
3.88803	58.00
3.90470	58.00
3.92137	58.00
3.93803	58.00
3.95470	58.00
3.97137	58.00
3.98803	58.00

[Status Trace (Carrier Gas Flow)]
Interval(msec)	1000
# of Points	240
Start Time(min)	0.005
End Time(min)	3.988
Intensity Units	
Intensity Multiplier	1
R.Time (min)	Intensity
0.00470	34.52
0.02137	34.56
0.03803	34.54
0.05470	34.55
0.07137	34.49
0.08803	34.52
0.10470	34.52
0.12137	34.52
0.13803	34.52
0.15470	34.52
0.17137	34.51
0.18803	34.53
0.20470	34.52
0.22137	34.51
0.23803	34.52
0.25470	34.52
0.27137	34.52
0.28803	34.52
0.30470	34.52
0.32137	34.52
0.33803	34.52
0.35470	34.52
0.37137	34.52
0.38803	34.52
0.40470	34.52
0.42137	34.52
0.43803	34.52
0.45470	34.52
0.47137	34.52
0.48803	34.52
0.50470	34.52
0.52137	34.52
0.53803	34.52
0.55470	34.52
0.57137	34.52
0.58803	34.52
0.60470	34.52
0.62137	34.52
0.63803	34.52
0.65470	34.52
0.67137	34.52
0.68803	34.52
0.70470	34.52
0.72137	34.52
0.73803	34.52
0.75470	34.52
0.77137	34.51
0.78803	34.52
0.80470	34.52
0.82137	34.52
0.83803	34.52
0.85470	34.53
0.87137	34.52
0.88803	34.51
0.90470	34.52
0.92137	34.53
0.93803	34.52
0.95470	34.52
0.97137	34.51
0.98803	34.51
1.00470	34.52
1.02137	34.53
1.03803	34.52
1.05470	34.53
1.07137	34.51
1.08803	34.52
1.10470	34.51
1.12137	34.53
1.13803	34.51
1.15470	34.52
1.17137	34.52
1.18803	34.51
1.20470	34.52
1.22137	34.52
1.23803	34.53
1.25470	34.53
1.27137	34.52
1.28803	34.51
1.30470	34.52
1.32137	34.51
1.33803	34.51
1.35470	34.51
1.37137	34.52
1.38803	34.52
1.40470	34.52
1.42137	34.52
1.43803	34.52
1.45470	34.52
1.47137	34.52
1.48803	34.52
1.50470	34.52
1.52137	34.51
1.53803	34.52
1.55470	34.52
1.57137	34.52
1.58803	34.52
1.60470	34.51
1.62137	34.51
1.63803	34.52
1.65470	34.53
1.67137	34.52
1.68803	34.52
1.70470	34.52
1.72137	34.51
1.73803	34.52
1.75470	34.52
1.77137	34.51
1.78803	34.51
1.80470	34.52
1.82137	34.52
1.83803	34.52
1.85470	34.52
1.87137	34.52
1.88803	34.52
1.90470	34.52
1.92137	34.52
1.93803	34.52
1.95470	34.52
1.97137	34.52
1.98803	34.52
2.00470	34.52
2.02137	34.52
2.03803	34.52
2.05470	34.52
2.07137	34.52
2.08803	34.51
2.10470	34.52
2.12137	34.52
2.13803	34.52
2.15470	34.52
2.17137	34.52
2.18803	34.52
2.20470	34.52
2.22137	34.52
2.23803	34.52
2.25470	34.52
2.27137	34.52
2.28803	34.52
2.30470	34.52
2.32137	34.52
2.33803	34.52
2.35470	34.52
2.37137	34.52
2.38803	34.52
2.40470	34.52
2.42137	34.52
2.43803	34.52
2.45470	34.52
2.47137	34.52
2.48803	34.52
2.50470	34.55
2.52137	34.52
2.53803	34.51
2.55470	34.52
2.57137	34.51
2.58803	34.51
2.60470	34.52
2.62137	34.53
2.63803	34.52
2.65470	34.51
2.67137	34.52
2.68803	34.51
2.70470	34.51
2.72137	34.52
2.73803	34.51
2.75470	34.52
2.77137	34.52
2.78803	34.52
2.80470	34.52
2.82137	34.52
2.83803	34.52
2.85470	34.52
2.87137	34.52
2.88803	34.51
2.90470	34.52
2.92137	34.51
2.93803	34.52
2.95470	34.51
2.97137	34.52
2.98803	34.51
3.00470	34.52
3.02137	34.52
3.03803	34.52
3.05470	34.52
3.07137	34.52
3.08803	34.52
3.10470	34.52
3.12137	34.52
3.13803	34.51
3.15470	34.51
3.17137	34.52
3.18803	34.53
3.20470	34.52
3.22137	34.52
3.23803	34.53
3.25470	34.52
3.27137	34.52
3.28803	34.52
3.30470	34.52
3.32137	34.52
3.33803	34.52
3.35470	34.53
3.37137	34.51
3.38803	34.52
3.40470	34.51
3.42137	34.53
3.43803	34.51
3.45470	34.52
3.47137	34.51
3.48803	34.52
3.50470	34.51
3.52137	34.51
3.53803	34.53
3.55470	34.51
3.57137	34.52
3.58803	34.52
3.60470	34.51
3.62137	34.52
3.63803	34.53
3.65470	34.51
3.67137	34.52
3.68803	34.52
3.70470	34.51
3.72137	34.52
3.73803	34.52
3.75470	34.53
3.77137	34.52
3.78803	34.52
3.80470	34.53
3.82137	34.52
3.83803	34.52
3.85470	34.52
3.87137	34.52
3.88803	34.52
3.90470	34.52
3.92137	34.52
3.93803	34.52
3.95470	34.52
3.97137	34.51
3.98803	34.52

[Status Trace (Column Flow)]
Interval(msec)	1000
# of Points	240
Start Time(min)	0.005
End Time(min)	3.988
Intensity Units	
Intensity Multiplier	1
R.Time (min)	Intensity
0.00470	5.53
0.02137	5.29
0.03803	5.38
0.05470	5.65
0.07137	5.73
0.08803	5.55
0.10470	5.53
0.12137	5.54
0.13803	5.54
0.15470	5.54
0.17137	5.54
0.18803	5.54
0.20470	5.54
0.22137	5.54
0.23803	5.54
0.25470	5.54
0.27137	5.54
0.28803	5.54
0.30470	5.53
0.32137	5.53
0.33803	5.53
0.35470	5.54
0.37137	5.54
0.38803	5.54
0.40470	5.54
0.42137	5.54
0.43803	5.54
0.45470	5.54
0.47137	5.54
0.48803	5.54
0.50470	5.54
0.52137	5.54
0.53803	5.54
0.55470	5.54
0.57137	5.54
0.58803	5.54
0.60470	5.54
0.62137	5.54
0.63803	5.54
0.65470	5.54
0.67137	5.54
0.68803	5.54
0.70470	5.54
0.72137	5.54
0.73803	5.54
0.75470	5.54
0.77137	5.54
0.78803	5.54
0.80470	5.54
0.82137	5.54
0.83803	5.54
0.85470	5.54
0.87137	5.54
0.88803	5.54
0.90470	5.54
0.92137	5.54
0.93803	5.54
0.95470	5.54
0.97137	5.54
0.98803	5.54
1.00470	5.54
1.02137	5.54
1.03803	5.54
1.05470	5.54
1.07137	5.54
1.08803	5.54
1.10470	5.54
1.12137	5.54
1.13803	5.54
1.15470	5.54
1.17137	5.54
1.18803	5.54
1.20470	5.54
1.22137	5.54
1.23803	5.54
1.25470	5.54
1.27137	5.54
1.28803	5.54
1.30470	5.54
1.32137	5.54
1.33803	5.54
1.35470	5.54
1.37137	5.54
1.38803	5.54
1.40470	5.54
1.42137	5.54
1.43803	5.54
1.45470	5.54
1.47137	5.54
1.48803	5.54
1.50470	5.54
1.52137	5.54
1.53803	5.54
1.55470	5.54
1.57137	5.54
1.58803	5.54
1.60470	5.53
1.62137	5.53
1.63803	5.53
1.65470	5.52
1.67137	5.51
1.68803	5.50
1.70470	5.49
1.72137	5.48
1.73803	5.47
1.75470	5.46
1.77137	5.45
1.78803	5.44
1.80470	5.43
1.82137	5.41
1.83803	5.40
1.85470	5.40
1.87137	5.39
1.88803	5.38
1.90470	5.37
1.92137	5.36
1.93803	5.35
1.95470	5.34
1.97137	5.33
1.98803	5.32
2.00470	5.31
2.02137	5.30
2.03803	5.29
2.05470	5.28
2.07137	5.27
2.08803	5.26
2.10470	5.25
2.12137	5.24
2.13803	5.23
2.15470	5.22
2.17137	5.21
2.18803	5.20
2.20470	5.19
2.22137	5.18
2.23803	5.17
2.25470	5.16
2.27137	5.15
2.28803	5.15
2.30470	5.14
2.32137	5.13
2.33803	5.12
2.35470	5.11
2.37137	5.10
2.38803	5.10
2.40470	5.10
2.42137	5.10
2.43803	5.10
2.45470	5.10
2.47137	5.10
2.48803	5.10
2.50470	5.10
2.52137	5.10
2.53803	5.10
2.55470	5.10
2.57137	5.10
2.58803	5.10
2.60470	5.10
2.62137	5.10
2.63803	5.10
2.65470	5.10
2.67137	5.10
2.68803	5.10
2.70470	5.10
2.72137	5.10
2.73803	5.10
2.75470	5.10
2.77137	5.10
2.78803	5.10
2.80470	5.10
2.82137	5.10
2.83803	5.10
2.85470	5.10
2.87137	5.10
2.88803	5.10
2.90470	5.10
2.92137	5.09
2.93803	5.09
2.95470	5.09
2.97137	5.09
2.98803	5.09
3.00470	5.09
3.02137	5.09
3.03803	5.09
3.05470	5.09
3.07137	5.09
3.08803	5.09
3.10470	5.09
3.12137	5.09
3.13803	5.09
3.15470	5.09
3.17137	5.09
3.18803	5.09
3.20470	5.09
3.22137	5.09
3.23803	5.09
3.25470	5.09
3.27137	5.09
3.28803	5.09
3.30470	5.09
3.32137	5.09
3.33803	5.09
3.35470	5.09
3.37137	5.09
3.38803	5.09
3.40470	5.09
3.42137	5.09
3.43803	5.09
3.45470	5.09
3.47137	5.09
3.48803	5.09
3.50470	5.09
3.52137	5.09
3.53803	5.09
3.55470	5.09
3.57137	5.09
3.58803	5.09
3.60470	5.09
3.62137	5.09
3.63803	5.09
3.65470	5.09
3.67137	5.09
3.68803	5.09
3.70470	5.09
3.72137	5.09
3.73803	5.09
3.75470	5.09
3.77137	5.09
3.78803	5.09
3.80470	5.09
3.82137	5.09
3.83803	5.09
3.85470	5.09
3.87137	5.09
3.88803	5.09
3.90470	5.09
3.92137	5.09
3.93803	5.09
3.95470	5.09
3.97137	5.09
3.98803	5.09

[Status Trace (Linear Velocity)]
Interval(msec)	1000
# of Points	240
Start Time(min)	0.005
End Time(min)	3.988
Intensity Units	
Intensity Multiplier	1
R.Time (min)	Intensity
0.00470	39.01
0.02137	37.65
0.03803	38.16
0.05470	39.66
0.07137	40.11
0.08803	39.11
0.10470	39.00
0.12137	39.02
0.13803	39.02
0.15470	39.02
0.17137	39.02
0.18803	39.02
0.20470	39.02
0.22137	39.02
0.23803	39.02
0.25470	39.02
0.27137	39.02
0.28803	39.02
0.30470	39.01
0.32137	39.01
0.33803	39.01
0.35470	39.01
0.37137	39.02
0.38803	39.02
0.40470	39.02
0.42137	39.02
0.43803	39.02
0.45470	39.02
0.47137	39.02
0.48803	39.02
0.50470	39.02
0.52137	39.02
0.53803	39.02
0.55470	39.02
0.57137	39.02
0.58803	39.02
0.60470	39.02
0.62137	39.02
0.63803	39.02
0.65470	39.02
0.67137	39.02
0.68803	39.02
0.70470	39.02
0.72137	39.02
0.73803	39.02
0.75470	39.02
0.77137	39.02
0.78803	39.02
0.80470	39.02
0.82137	39.02
0.83803	39.02
0.85470	39.02
0.87137	39.02
0.88803	39.02
0.90470	39.02
0.92137	39.02
0.93803	39.01
0.95470	39.02
0.97137	39.02
0.98803	39.02
1.00470	39.02
1.02137	39.02
1.03803	39.02
1.05470	39.02
1.07137	39.02
1.08803	39.02
1.10470	39.02
1.12137	39.02
1.13803	39.02
1.15470	39.02
1.17137	39.02
1.18803	39.02
1.20470	39.02
1.22137	39.02
1.23803	39.02
1.25470	39.02
1.27137	39.02
1.28803	39.02
1.30470	39.02
1.32137	39.02
1.33803	39.02
1.35470	39.02
1.37137	39.02
1.38803	39.02
1.40470	39.02
1.42137	39.02
1.43803	39.02
1.45470	39.02
1.47137	39.02
1.48803	39.02
1.50470	39.02
1.52137	39.02
1.53803	39.02
1.55470	39.02
1.57137	39.02
1.58803	39.02
1.60470	39.01
1.62137	39.01
1.63803	38.99
1.65470	38.97
1.67137	38.94
1.68803	38.91
1.70470	38.87
1.72137	38.84
1.73803	38.80
1.75470	38.77
1.77137	38.74
1.78803	38.71
1.80470	38.68
1.82137	38.65
1.83803	38.62
1.85470	38.59
1.87137	38.55
1.88803	38.52
1.90470	38.49
1.92137	38.46
1.93803	38.43
1.95470	38.40
1.97137	38.37
1.98803	38.34
2.00470	38.31
2.02137	38.28
2.03803	38.25
2.05470	38.22
2.07137	38.19
2.08803	38.16
2.10470	38.13
2.12137	38.10
2.13803	38.08
2.15470	38.05
2.17137	38.02
2.18803	37.99
2.20470	37.96
2.22137	37.92
2.23803	37.90
2.25470	37.87
2.27137	37.83
2.28803	37.80
2.30470	37.78
2.32137	37.75
2.33803	37.72
2.35470	37.69
2.37137	37.67
2.38803	37.66
2.40470	37.66
2.42137	37.67
2.43803	37.67
2.45470	37.67
2.47137	37.67
2.48803	37.66
2.50470	37.66
2.52137	37.66
2.53803	37.66
2.55470	37.66
2.57137	37.66
2.58803	37.66
2.60470	37.65
2.62137	37.65
2.63803	37.65
2.65470	37.65
2.67137	37.65
2.68803	37.65
2.70470	37.65
2.72137	37.65
2.73803	37.65
2.75470	37.65
2.77137	37.65
2.78803	37.65
2.80470	37.64
2.82137	37.65
2.83803	37.65
2.85470	37.65
2.87137	37.65
2.88803	37.65
2.90470	37.65
2.92137	37.64
2.93803	37.64
2.95470	37.64
2.97137	37.64
2.98803	37.64
3.00470	37.64
3.02137	37.64
3.03803	37.64
3.05470	37.64
3.07137	37.64
3.08803	37.64
3.10470	37.64
3.12137	37.64
3.13803	37.64
3.15470	37.64
3.17137	37.63
3.18803	37.63
3.20470	37.63
3.22137	37.63
3.23803	37.63
3.25470	37.63
3.27137	37.63
3.28803	37.63
3.30470	37.63
3.32137	37.63
3.33803	37.63
3.35470	37.63
3.37137	37.63
3.38803	37.63
3.40470	37.63
3.42137	37.63
3.43803	37.62
3.45470	37.62
3.47137	37.63
3.48803	37.63
3.50470	37.63
3.52137	37.63
3.53803	37.63
3.55470	37.63
3.57137	37.63
3.58803	37.63
3.60470	37.64
3.62137	37.64
3.63803	37.64
3.65470	37.64
3.67137	37.64
3.68803	37.64
3.70470	37.64
3.72137	37.64
3.73803	37.63
3.75470	37.63
3.77137	37.63
3.78803	37.63
3.80470	37.63
3.82137	37.63
3.83803	37.63
3.85470	37.63
3.87137	37.63
3.88803	37.63
3.90470	37.63
3.92137	37.63
3.93803	37.63
3.95470	37.63
3.97137	37.63
3.98803	37.63

