[Header]
Application Name	LabSolutions
Version	5.110
Data File Name	C:\Users\User\Desktop\Junior\UIC Prairie Sampling\5.18.23\05182023_062.gcd
Output Date	6/5/2023
Output Time	2:17:28 PM

[File Information]
Type	Data File
Generated	5/24/2023 7:08:32 PM
Generated by	System Administrator
Modified	5/24/2023 7:16:00 PM
Modified by	System Administrator

[Sample Information]
Operator Name	System Administrator
Acquired	5/24/2023 7:11:59 PM
Sample Type	0:Unknown
Level	0
Sample Name	062
Sample ID	062
ISTD Amount1	1
ISTD Amount2	1
ISTD Amount3	1
ISTD Amount4	1
ISTD Amount5	1
ISTD Amount6	1
ISTD Amount7	1
ISTD Amount8	1
ISTD Amount9	1
ISTD Amount10	1
ISTD Amount11	1
ISTD Amount12	1
ISTD Amount13	1
ISTD Amount14	1
ISTD Amount15	1
ISTD Amount16	1
ISTD Amount17	1
ISTD Amount18	1
ISTD Amount19	1
ISTD Amount20	1
ISTD Amount21	1
ISTD Amount22	1
ISTD Amount23	1
ISTD Amount24	1
ISTD Amount25	1
ISTD Amount26	1
ISTD Amount27	1
ISTD Amount28	1
ISTD Amount29	1
ISTD Amount30	1
ISTD Amount31	1
ISTD Amount32	1
Sample Amount	1
Dilution Factor	1
Vial#	61
Injection Volume	1
Injection Count	1
Bar Code	

[Original Files]
Data File	C:\Users\User\Desktop\Junior\UIC Prairie Sampling\5.18.23\05182023_062.gcd
Method File	C:\LabSolutions\Data\GHG_4min_2022\ghg3_togas_w_acet_4 min_new_int.gcm
Batch File	C:\LabSolutions\Data\AutoSamplerTesting\05182023.gcb
Report Format File	c:\LabSolutions\System\DEFAULT.lsr

[File Description]


[Configuration]
Instrument Name	C0B7VH3-Instrument1
Instrument #	1
Line #	1
# of Detectors	3
Detector ID	DET#1	DET#2	DET#3
Detector Name	FID	PTCD	ECD
# of Channels	1	1	1

[Peak Table(Ch1)]
# of Peaks	4
Peak#	R.Time	I.Time	F.Time	Area	Height	A/H	Conc.	Mark	ID#	Name	k'	Plate #	Plate Ht.	Tailing	Resolution	Sep.Factor	Area Ratio	Height Ratio	Conc. %	Norm Conc.
1	1.472	1.428	1.523	3718	1838	2.023	0.000	   	1	CO	0.000	9743	15.395	1.184	0.000	0.000	0	0	0.000	0.000
2	1.564	1.523	1.641	21073	10648	1.979	102.734	 V 	2	CH4	0.062	11438	13.114	1.140	1.552	0.000	0	0	24.169	24.169
3	1.989	1.941	2.466	1672558	799975	2.091	322.333	   	3	CO2	0.351	17293	8.674	1.296	7.149	5.640	0	0	75.831	75.831
4	3.162	3.129	3.390	356	38	9.244	0.000	   	5	Acetylene	1.148	8583	17.476	4.023	11.910	3.270	0	0	0.000	0.000

[Peak Table(Ch2)]
# of Peaks	0

[Peak Table(Ch3)]
# of Peaks	5
Peak#	R.Time	I.Time	F.Time	Area	Height	A/H	Conc.	Mark	ID#	Name	k'	Plate #	Plate Ht.	Tailing	Resolution	Sep.Factor	Area Ratio	Height Ratio	Conc. %	Norm Conc.
1	2.458	2.440	2.513	704	297	2.370	0.000	   			0.000	19128	7.842	0.000	0.000	0.000	0	0	0.000	0.000
2	2.524	2.513	2.550	108	69	1.575	0.000	 V 			0.027	18255	8.217	0.000	0.905	0.000	0	0	0.000	0.000
3	2.612	2.557	2.667	2443	531	4.596	0.000	   			0.063	2766	54.239	0.000	0.644	2.333	0	0	0.000	0.000
4	2.755	2.667	2.829	4105	460	8.923	0.061	 V 	1	N2O	0.121	55	2712.552	0.000	0.170	1.929	0	0	11.125	11.125
5	2.891	2.829	3.892	32793	5002	6.556	0.485	 V 	1	N2O	0.176	12091	12.406	0.000	0.171	1.457	0	0	88.875	88.875

[Compound Results(Ch1)]
# of IDs	6
ID#	Name	R.Time	Area	Height	Conc.	Curve	3rd	2nd	1st	Constant	Area Ratio	Height Ratio	Conc. %	Norm Conc.
1	CO	1.472	3718	1838	0.000	Linear	0.000000e+00	0.000000e+00	0.000000e+00	0.000000e+00	0	0	0.000	0.000
2	CH4	1.564	21073	10648	102.734	Linear	0.000000e+00	0.000000e+00	2.051179e+002	0.000000e+00	0	0	24.169	24.169
3	CO2	1.989	1672558	799975	322.333	Linear	0.000000e+00	0.000000e+00	5.188919e+003	0.000000e+00	0	0	75.831	75.831
4	Ethylene	0.000	0	0	0.000	Linear	0.000000e+00	0.000000e+00	0.000000e+00	0.000000e+00	0	0	0.000	0.000
5	Acetylene	3.162	356	38	0.000	Linear	0.000000e+00	0.000000e+00	0.000000e+00	0.000000e+00	0	0	0.000	0.000
6	Ethane	0.000	0	0	0.000	Linear	0.000000e+00	0.000000e+00	0.000000e+00	0.000000e+00	0	0	0.000	0.000

[Compound Results(Ch2)]
# of IDs	5
ID#	Name	R.Time	Area	Height	Conc.	Curve	3rd	2nd	1st	Constant	Area Ratio	Height Ratio	Conc. %	Norm Conc.
1	Hydrogen	0.000	0	0	0.000	Linear	0.000000e+00	0.000000e+00	0.000000e+00	0.000000e+00	0	0	0.000	0.000
2	Oxygen	0.000	0	0	0.000	Linear	0.000000e+00	0.000000e+00	0.000000e+00	0.000000e+00	0	0	0.000	0.000
3	Nitrogen	0.000	0	0	0.000	Linear	0.000000e+00	0.000000e+00	0.000000e+00	0.000000e+00	0	0	0.000	0.000
4	Methane	0.000	0	0	0.000	Linear	0.000000e+00	0.000000e+00	0.000000e+00	0.000000e+00	0	0	0.000	0.000
5	Carbon Monoxide	0.000	0	0	0.000	Linear	0.000000e+00	0.000000e+00	0.000000e+00	0.000000e+00	0	0	0.000	0.000

[Compound Results(Ch3)]
# of IDs	2
ID#	Name	R.Time	Area	Height	Conc.	Curve	3rd	2nd	1st	Constant	Area Ratio	Height Ratio	Conc. %	Norm Conc.
1	N2O	2.891	36898	5462	0.546	Linear	0.000000e+00	0.000000e+00	6.759880e+004	0.000000e+00	0	0	100.000	100.000
2	SF6	0.000	0	0	0.000	Linear	0.000000e+00	0.000000e+00	0.000000e+00	0.000000e+00	0	0	0.000	0.000

[Group Results(Ch1)]
# of Groups	0

[Group Results(Ch2)]
# of Groups	0

[Group Results(Ch3)]
# of Groups	0

[Chromatogram (Ch1)]
Interval(msec)	220
# of Points	1091
Start Time(min)	0.002
End Time(min)	3.998
R.Time (min)	Intensity
0.00167	-9
0.00533	-12
0.00900	-11
0.01267	-10
0.01633	-12
0.02000	-8
0.02367	-3
0.02733	-4
0.03100	-4
0.03467	-1
0.03833	4
0.04200	9
0.04567	10
0.04933	8
0.05300	3
0.05667	-3
0.06033	-9
0.06400	-15
0.06767	-16
0.07133	-13
0.07500	-12
0.07867	-15
0.08233	-20
0.08600	-21
0.08967	-22
0.09333	-25
0.09700	-24
0.10067	-18
0.10433	-11
0.10800	-7
0.11167	-7
0.11533	-6
0.11900	-3
0.12267	0
0.12633	3
0.13000	5
0.13367	9
0.13733	8
0.14100	3
0.14467	-1
0.14833	-5
0.15200	-6
0.15567	-3
0.15933	-4
0.16300	-6
0.16667	-6
0.17033	-4
0.17400	0
0.17767	7
0.18133	8
0.18500	5
0.18867	2
0.19233	-2
0.19600	-7
0.19967	-9
0.20333	-3
0.20700	8
0.21067	18
0.21433	25
0.21800	25
0.22167	19
0.22533	13
0.22900	9
0.23267	1
0.23633	-8
0.24000	-15
0.24367	-17
0.24733	-16
0.25100	-11
0.25467	-0
0.25833	9
0.26200	14
0.26567	15
0.26933	12
0.27300	5
0.27667	1
0.28033	4
0.28400	7
0.28767	12
0.29133	16
0.29500	16
0.29867	15
0.30233	10
0.30600	4
0.30967	-1
0.31333	-5
0.31700	-8
0.32067	-7
0.32433	-5
0.32800	-4
0.33167	-5
0.33533	-6
0.33900	-4
0.34267	-1
0.34633	1
0.35000	6
0.35367	13
0.35733	18
0.36100	22
0.36467	21
0.36833	15
0.37200	9
0.37567	4
0.37933	-1
0.38300	-1
0.38667	1
0.39033	4
0.39400	6
0.39767	8
0.40133	7
0.40500	3
0.40867	2
0.41233	3
0.41600	8
0.41967	10
0.42333	11
0.42700	11
0.43067	9
0.43433	7
0.43800	7
0.44167	7
0.44533	6
0.44900	4
0.45267	2
0.45633	1
0.46000	-1
0.46367	-2
0.46733	-2
0.47100	-2
0.47467	-3
0.47833	-2
0.48200	4
0.48567	10
0.48933	12
0.49300	9
0.49667	4
0.50033	-4
0.50400	-9
0.50767	-8
0.51133	-5
0.51500	-4
0.51867	-2
0.52233	2
0.52600	4
0.52967	5
0.53333	7
0.53700	9
0.54067	7
0.54433	4
0.54800	2
0.55167	-1
0.55533	-2
0.55900	-1
0.56267	-3
0.56633	-7
0.57000	-9
0.57367	-9
0.57733	-9
0.58100	-4
0.58467	0
0.58833	-1
0.59200	-1
0.59567	-1
0.59933	-1
0.60300	2
0.60667	4
0.61033	7
0.61400	8
0.61767	8
0.62133	6
0.62500	4
0.62867	3
0.63233	3
0.63600	1
0.63967	1
0.64333	1
0.64700	1
0.65067	-1
0.65433	-2
0.65800	-3
0.66167	-3
0.66533	-2
0.66900	-1
0.67267	0
0.67633	1
0.68000	0
0.68367	-3
0.68733	-4
0.69100	-3
0.69467	-7
0.69833	-13
0.70200	-14
0.70567	-14
0.70933	-13
0.71300	-11
0.71667	-8
0.72033	-5
0.72400	-2
0.72767	1
0.73133	2
0.73500	3
0.73867	4
0.74233	5
0.74600	7
0.74967	8
0.75333	8
0.75700	6
0.76067	2
0.76433	3
0.76800	5
0.77167	6
0.77533	7
0.77900	10
0.78267	12
0.78633	11
0.79000	9
0.79367	6
0.79733	4
0.80100	2
0.80467	0
0.80833	-5
0.81200	-12
0.81567	-13
0.81933	-9
0.82300	-1
0.82667	4
0.83033	2
0.83400	-5
0.83767	-12
0.84133	-16
0.84500	-17
0.84867	-18
0.85233	-21
0.85600	-25
0.85967	-29
0.86333	-29
0.86700	-25
0.87067	-21
0.87433	-20
0.87800	-20
0.88167	-21
0.88533	-23
0.88900	-24
0.89267	-22
0.89633	-20
0.90000	-16
0.90367	-10
0.90733	-2
0.91100	6
0.91467	10
0.91833	10
0.92200	9
0.92567	6
0.92933	-2
0.93300	-15
0.93667	-27
0.94033	-31
0.94400	-28
0.94767	-22
0.95133	-15
0.95500	-9
0.95867	-2
0.96233	2
0.96600	0
0.96967	-6
0.97333	-13
0.97700	-19
0.98067	-25
0.98433	-29
0.98800	-28
0.99167	-25
0.99533	-20
0.99900	-19
1.00267	-20
1.00633	-16
1.01000	-7
1.01367	-3
1.01733	-5
1.02100	-10
1.02467	-16
1.02833	-21
1.03200	-24
1.03567	-24
1.03933	-24
1.04300	-21
1.04667	-18
1.05033	-18
1.05400	-20
1.05767	-22
1.06133	-22
1.06500	-24
1.06867	-23
1.07233	-20
1.07600	-20
1.07967	-24
1.08333	-29
1.08700	-27
1.09067	-23
1.09433	-21
1.09800	-22
1.10167	-24
1.10533	-24
1.10900	-23
1.11267	-23
1.11633	-24
1.12000	-29
1.12367	-31
1.12733	-29
1.13100	-23
1.13467	-17
1.13833	-11
1.14200	-8
1.14567	-7
1.14933	-7
1.15300	-8
1.15667	-8
1.16033	-7
1.16400	-7
1.16767	-7
1.17133	-12
1.17500	-20
1.17867	-27
1.18233	-29
1.18600	-26
1.18967	-22
1.19333	-17
1.19700	-13
1.20067	-15
1.20433	-22
1.20800	-25
1.21167	-26
1.21533	-22
1.21900	-18
1.22267	-14
1.22633	-10
1.23000	-9
1.23367	-15
1.23733	-24
1.24100	-35
1.24467	-45
1.24833	-49
1.25200	-48
1.25567	-46
1.25933	-42
1.26300	-40
1.26667	-42
1.27033	-49
1.27400	-55
1.27767	-60
1.28133	-60
1.28500	-58
1.28867	-55
1.29233	-53
1.29600	-51
1.29967	-46
1.30333	-43
1.30700	-40
1.31067	-37
1.31433	-33
1.31800	-27
1.32167	-26
1.32533	-30
1.32900	-34
1.33267	-35
1.33633	-32
1.34000	-24
1.34367	-16
1.34733	-13
1.35100	-18
1.35467	-29
1.35833	-40
1.36200	-45
1.36567	-43
1.36933	-39
1.37300	-35
1.37667	-33
1.38033	-35
1.38400	-41
1.38767	-48
1.39133	-49
1.39500	-46
1.39867	-42
1.40233	-39
1.40600	-37
1.40967	-37
1.41333	-38
1.41700	-37
1.42067	-35
1.42433	-32
1.42800	-30
1.43167	-27
1.43533	-16
1.43900	9
1.44267	36
1.44633	102
1.45000	293
1.45367	605
1.45733	956
1.46100	1273
1.46467	1533
1.46833	1720
1.47200	1806
1.47567	1761
1.47933	1585
1.48300	1319
1.48667	1023
1.49033	749
1.49400	524
1.49767	353
1.50133	227
1.50500	137
1.50867	76
1.51233	35
1.51600	13
1.51967	1
1.52333	-6
1.52700	-9
1.53067	31
1.53433	258
1.53800	963
1.54167	2372
1.54533	4340
1.54900	6436
1.55267	8276
1.55633	9664
1.56000	10490
1.56367	10613
1.56733	9934
1.57100	8569
1.57467	6850
1.57833	5142
1.58200	3681
1.58567	2545
1.58933	1712
1.59300	1124
1.59667	717
1.60033	443
1.60400	265
1.60767	154
1.61133	90
1.61500	53
1.61867	26
1.62233	3
1.62600	-14
1.62967	-22
1.63333	-27
1.63700	-31
1.64067	-39
1.64433	-44
1.64800	-43
1.65167	-39
1.65533	-35
1.65900	-35
1.66267	-41
1.66633	-54
1.67000	-68
1.67367	-78
1.67733	-82
1.68100	-82
1.68467	-83
1.68833	-85
1.69200	-85
1.69567	-81
1.69933	-74
1.70300	-68
1.70667	-63
1.71033	-58
1.71400	-55
1.71767	-54
1.72133	-52
1.72500	-49
1.72867	-46
1.73233	-46
1.73600	-48
1.73967	-48
1.74333	-47
1.74700	-47
1.75067	-50
1.75433	-55
1.75800	-59
1.76167	-61
1.76533	-56
1.76900	-47
1.77267	-39
1.77633	-36
1.78000	-38
1.78367	-42
1.78733	-44
1.79100	-43
1.79467	-39
1.79833	-36
1.80200	-36
1.80567	-37
1.80933	-40
1.81300	-44
1.81667	-49
1.82033	-53
1.82400	-51
1.82767	-49
1.83133	-49
1.83500	-50
1.83867	-51
1.84233	-56
1.84600	-59
1.84967	-57
1.85333	-54
1.85700	-52
1.86067	-49
1.86433	-48
1.86800	-47
1.87167	-45
1.87533	-43
1.87900	-43
1.88267	-43
1.88633	-43
1.89000	-44
1.89367	-45
1.89733	-47
1.90100	-50
1.90467	-51
1.90833	-49
1.91200	-44
1.91567	-39
1.91933	-36
1.92300	-36
1.92667	-37
1.93033	-41
1.93400	-52
1.93767	-61
1.94133	-59
1.94500	-39
1.94867	89
1.95233	839
1.95600	4339
1.95967	16629
1.96333	49601
1.96700	118009
1.97067	228887
1.97433	372619
1.97800	525541
1.98167	660735
1.98533	756824
1.98900	799953
1.99267	785629
1.99633	719454
2.00000	616562
2.00367	497445
2.00733	381192
2.01100	280453
2.01467	200404
2.01833	140652
2.02200	97962
2.02567	68346
2.02933	48168
2.03300	34545
2.03667	25361
2.04033	19137
2.04400	14871
2.04767	11894
2.05133	9774
2.05500	8228
2.05867	7071
2.06233	6182
2.06600	5481
2.06967	4919
2.07333	4459
2.07700	4077
2.08067	3750
2.08433	3469
2.08800	3225
2.09167	3009
2.09533	2816
2.09900	2641
2.10267	2484
2.10633	2347
2.11000	2225
2.11367	2111
2.11733	2008
2.12100	1914
2.12467	1830
2.12833	1752
2.13200	1679
2.13567	1615
2.13933	1558
2.14300	1505
2.14667	1452
2.15033	1399
2.15400	1346
2.15767	1293
2.16133	1239
2.16500	1189
2.16867	1148
2.17233	1109
2.17600	1069
2.17967	1032
2.18333	1001
2.18700	974
2.19067	953
2.19433	936
2.19800	923
2.20167	907
2.20533	882
2.20900	855
2.21267	827
2.21633	804
2.22000	784
2.22367	764
2.22733	742
2.23100	723
2.23467	711
2.23833	700
2.24200	688
2.24567	678
2.24933	669
2.25300	658
2.25667	646
2.26033	632
2.26400	617
2.26767	604
2.27133	596
2.27500	590
2.27867	583
2.28233	575
2.28600	567
2.28967	557
2.29333	544
2.29700	529
2.30067	519
2.30433	512
2.30800	510
2.31167	509
2.31533	508
2.31900	506
2.32267	501
2.32633	493
2.33000	483
2.33367	472
2.33733	463
2.34100	457
2.34467	454
2.34833	452
2.35200	449
2.35567	444
2.35933	436
2.36300	425
2.36667	416
2.37033	410
2.37400	402
2.37767	394
2.38133	386
2.38500	381
2.38867	380
2.39233	381
2.39600	385
2.39967	389
2.40333	395
2.40700	398
2.41067	400
2.41433	402
2.41800	403
2.42167	404
2.42533	404
2.42900	398
2.43267	387
2.43633	375
2.44000	368
2.44367	361
2.44733	353
2.45100	349
2.45467	346
2.45833	345
2.46200	344
2.46567	343
2.46933	340
2.47300	336
2.47667	335
2.48033	338
2.48400	342
2.48767	347
2.49133	350
2.49500	354
2.49867	354
2.50233	350
2.50600	346
2.50967	347
2.51333	352
2.51700	356
2.52067	358
2.52433	358
2.52800	356
2.53167	353
2.53533	349
2.53900	346
2.54267	344
2.54633	341
2.55000	336
2.55367	332
2.55733	331
2.56100	333
2.56467	336
2.56833	337
2.57200	337
2.57567	335
2.57933	332
2.58300	332
2.58667	335
2.59033	334
2.59400	331
2.59767	327
2.60133	325
2.60500	324
2.60867	325
2.61233	328
2.61600	325
2.61967	318
2.62333	312
2.62700	312
2.63067	315
2.63433	320
2.63800	328
2.64167	340
2.64533	349
2.64900	352
2.65267	348
2.65633	343
2.66000	337
2.66367	330
2.66733	325
2.67100	323
2.67467	320
2.67833	317
2.68200	316
2.68567	318
2.68933	320
2.69300	321
2.69667	325
2.70033	332
2.70400	336
2.70767	338
2.71133	341
2.71500	343
2.71867	344
2.72233	341
2.72600	335
2.72967	329
2.73333	324
2.73700	323
2.74067	328
2.74433	337
2.74800	348
2.75167	355
2.75533	357
2.75900	357
2.76267	354
2.76633	350
2.77000	342
2.77367	332
2.77733	324
2.78100	323
2.78467	326
2.78833	329
2.79200	333
2.79567	339
2.79933	346
2.80300	354
2.80667	362
2.81033	363
2.81400	359
2.81767	357
2.82133	353
2.82500	348
2.82867	343
2.83233	341
2.83600	346
2.83967	355
2.84333	360
2.84700	355
2.85067	348
2.85433	343
2.85800	342
2.86167	341
2.86533	344
2.86900	349
2.87267	358
2.87633	374
2.88000	393
2.88367	408
2.88733	410
2.89100	399
2.89467	380
2.89833	362
2.90200	349
2.90567	343
2.90933	340
2.91300	339
2.91667	341
2.92033	345
2.92400	350
2.92767	354
2.93133	357
2.93500	361
2.93867	368
2.94233	373
2.94600	377
2.94967	381
2.95333	383
2.95700	385
2.96067	385
2.96433	383
2.96800	383
2.97167	386
2.97533	387
2.97900	390
2.98267	394
2.98633	394
2.99000	392
2.99367	387
2.99733	383
3.00100	382
3.00467	385
3.00833	391
3.01200	395
3.01567	396
3.01933	395
3.02300	394
3.02667	393
3.03033	391
3.03400	390
3.03767	391
3.04133	388
3.04500	385
3.04867	382
3.05233	382
3.05600	385
3.05967	387
3.06333	387
3.06700	387
3.07067	386
3.07433	383
3.07800	380
3.08167	375
3.08533	366
3.08900	358
3.09267	356
3.09633	358
3.10000	364
3.10367	369
3.10733	369
3.11100	366
3.11467	363
3.11833	360
3.12200	360
3.12567	363
3.12933	369
3.13300	376
3.13667	382
3.14033	386
3.14400	386
3.14767	387
3.15133	394
3.15500	399
3.15867	403
3.16233	405
3.16600	405
3.16967	402
3.17333	400
3.17700	395
3.18067	390
3.18433	390
3.18800	390
3.19167	388
3.19533	389
3.19900	389
3.20267	387
3.20633	387
3.21000	389
3.21367	389
3.21733	386
3.22100	380
3.22467	375
3.22833	374
3.23200	377
3.23567	380
3.23933	380
3.24300	381
3.24667	386
3.25033	391
3.25400	394
3.25767	394
3.26133	390
3.26500	385
3.26867	379
3.27233	373
3.27600	372
3.27967	374
3.28333	377
3.28700	382
3.29067	385
3.29433	386
3.29800	386
3.30167	385
3.30533	385
3.30900	385
3.31267	384
3.31633	380
3.32000	376
3.32367	371
3.32733	373
3.33100	380
3.33467	384
3.33833	380
3.34200	375
3.34567	372
3.34933	371
3.35300	372
3.35667	376
3.36033	379
3.36400	380
3.36767	379
3.37133	376
3.37500	371
3.37867	366
3.38233	362
3.38600	356
3.38967	351
3.39333	349
3.39700	350
3.40067	355
3.40433	358
3.40800	356
3.41167	351
3.41533	352
3.41900	359
3.42267	368
3.42633	374
3.43000	376
3.43367	375
3.43733	368
3.44100	359
3.44467	352
3.44833	350
3.45200	350
3.45567	352
3.45933	355
3.46300	357
3.46667	362
3.47033	368
3.47400	370
3.47767	368
3.48133	364
3.48500	360
3.48867	357
3.49233	354
3.49600	351
3.49967	349
3.50333	347
3.50700	343
3.51067	338
3.51433	334
3.51800	333
3.52167	336
3.52533	340
3.52900	343
3.53267	344
3.53633	343
3.54000	342
3.54367	344
3.54733	344
3.55100	343
3.55467	344
3.55833	344
3.56200	342
3.56567	341
3.56933	341
3.57300	343
3.57667	345
3.58033	346
3.58400	347
3.58767	345
3.59133	338
3.59500	331
3.59867	327
3.60233	327
3.60600	328
3.60967	328
3.61333	330
3.61700	333
3.62067	337
3.62433	341
3.62800	342
3.63167	342
3.63533	338
3.63900	334
3.64267	329
3.64633	322
3.65000	319
3.65367	320
3.65733	323
3.66100	327
3.66467	332
3.66833	336
3.67200	338
3.67567	339
3.67933	336
3.68300	333
3.68667	331
3.69033	330
3.69400	328
3.69767	326
3.70133	327
3.70500	329
3.70867	330
3.71233	327
3.71600	325
3.71967	323
3.72333	319
3.72700	316
3.73067	319
3.73433	322
3.73800	321
3.74167	316
3.74533	311
3.74900	306
3.75267	302
3.75633	300
3.76000	296
3.76367	295
3.76733	300
3.77100	307
3.77467	313
3.77833	316
3.78200	314
3.78567	312
3.78933	315
3.79300	316
3.79667	314
3.80033	313
3.80400	316
3.80767	322
3.81133	328
3.81500	330
3.81867	331
3.82233	330
3.82600	325
3.82967	318
3.83333	310
3.83700	303
3.84067	298
3.84433	297
3.84800	296
3.85167	296
3.85533	300
3.85900	308
3.86267	311
3.86633	307
3.87000	305
3.87367	305
3.87733	309
3.88100	315
3.88467	321
3.88833	326
3.89200	329
3.89567	330
3.89933	329
3.90300	328
3.90667	325
3.91033	316
3.91400	309
3.91767	305
3.92133	303
3.92500	297
3.92867	296
3.93233	299
3.93600	307
3.93967	314
3.94333	316
3.94700	316
3.95067	312
3.95433	304
3.95800	298
3.96167	294
3.96533	295
3.96900	295
3.97267	296
3.97633	297
3.98000	303
3.98367	312
3.98733	323
3.99100	331
3.99467	331
3.99833	323

[Chromatogram (Ch2)]
Interval(msec)	220
# of Points	1091
Start Time(min)	0.002
End Time(min)	3.998
R.Time (min)	Intensity
0.00167	-1
0.00533	-1
0.00900	-1
0.01267	-1
0.01633	-1
0.02000	-1
0.02367	-1
0.02733	-1
0.03100	-2
0.03467	-2
0.03833	-2
0.04200	-2
0.04567	-1
0.04933	-1
0.05300	-1
0.05667	-0
0.06033	0
0.06400	0
0.06767	1
0.07133	1
0.07500	1
0.07867	1
0.08233	2
0.08600	2
0.08967	2
0.09333	3
0.09700	3
0.10067	3
0.10433	4
0.10800	4
0.11167	4
0.11533	4
0.11900	4
0.12267	4
0.12633	4
0.13000	4
0.13367	4
0.13733	4
0.14100	4
0.14467	4
0.14833	4
0.15200	3
0.15567	3
0.15933	3
0.16300	3
0.16667	3
0.17033	4
0.17400	4
0.17767	4
0.18133	4
0.18500	4
0.18867	3
0.19233	3
0.19600	3
0.19967	3
0.20333	3
0.20700	3
0.21067	3
0.21433	3
0.21800	3
0.22167	3
0.22533	4
0.22900	4
0.23267	4
0.23633	5
0.24000	5
0.24367	6
0.24733	6
0.25100	6
0.25467	7
0.25833	7
0.26200	7
0.26567	7
0.26933	7
0.27300	7
0.27667	7
0.28033	7
0.28400	7
0.28767	7
0.29133	7
0.29500	7
0.29867	7
0.30233	7
0.30600	7
0.30967	7
0.31333	7
0.31700	7
0.32067	6
0.32433	6
0.32800	6
0.33167	5
0.33533	5
0.33900	4
0.34267	4
0.34633	4
0.35000	4
0.35367	3
0.35733	3
0.36100	3
0.36467	3
0.36833	3
0.37200	3
0.37567	3
0.37933	3
0.38300	3
0.38667	3
0.39033	3
0.39400	3
0.39767	3
0.40133	3
0.40500	3
0.40867	2
0.41233	2
0.41600	2
0.41967	2
0.42333	3
0.42700	3
0.43067	3
0.43433	3
0.43800	3
0.44167	2
0.44533	2
0.44900	1
0.45267	1
0.45633	1
0.46000	1
0.46367	1
0.46733	1
0.47100	1
0.47467	1
0.47833	1
0.48200	1
0.48567	1
0.48933	1
0.49300	1
0.49667	1
0.50033	1
0.50400	1
0.50767	1
0.51133	1
0.51500	1
0.51867	1
0.52233	1
0.52600	1
0.52967	1
0.53333	1
0.53700	1
0.54067	1
0.54433	1
0.54800	1
0.55167	1
0.55533	1
0.55900	1
0.56267	1
0.56633	1
0.57000	1
0.57367	0
0.57733	0
0.58100	0
0.58467	0
0.58833	0
0.59200	0
0.59567	1
0.59933	1
0.60300	1
0.60667	1
0.61033	1
0.61400	1
0.61767	1
0.62133	1
0.62500	1
0.62867	1
0.63233	1
0.63600	0
0.63967	0
0.64333	0
0.64700	0
0.65067	0
0.65433	0
0.65800	0
0.66167	0
0.66533	1
0.66900	1
0.67267	1
0.67633	1
0.68000	1
0.68367	1
0.68733	1
0.69100	1
0.69467	1
0.69833	1
0.70200	1
0.70567	1
0.70933	1
0.71300	0
0.71667	0
0.72033	-0
0.72400	-0
0.72767	-1
0.73133	-1
0.73500	-1
0.73867	-1
0.74233	-2
0.74600	-2
0.74967	-2
0.75333	-2
0.75700	-2
0.76067	-2
0.76433	-2
0.76800	-2
0.77167	-1
0.77533	-1
0.77900	-1
0.78267	-1
0.78633	-0
0.79000	-0
0.79367	0
0.79733	0
0.80100	0
0.80467	0
0.80833	0
0.81200	0
0.81567	0
0.81933	0
0.82300	0
0.82667	0
0.83033	0
0.83400	0
0.83767	0
0.84133	0
0.84500	1
0.84867	1
0.85233	1
0.85600	1
0.85967	1
0.86333	1
0.86700	1
0.87067	1
0.87433	1
0.87800	1
0.88167	1
0.88533	1
0.88900	1
0.89267	1
0.89633	1
0.90000	1
0.90367	1
0.90733	1
0.91100	1
0.91467	1
0.91833	1
0.92200	1
0.92567	1
0.92933	1
0.93300	1
0.93667	1
0.94033	0
0.94400	0
0.94767	-0
0.95133	-0
0.95500	-1
0.95867	-1
0.96233	-1
0.96600	-1
0.96967	-1
0.97333	-0
0.97700	-0
0.98067	-1
0.98433	-1
0.98800	-1
0.99167	-1
0.99533	-1
0.99900	-1
1.00267	-2
1.00633	-2
1.01000	-2
1.01367	-2
1.01733	-1
1.02100	-1
1.02467	-1
1.02833	-1
1.03200	-1
1.03567	-1
1.03933	-1
1.04300	-1
1.04667	-1
1.05033	-1
1.05400	-1
1.05767	-1
1.06133	-1
1.06500	-1
1.06867	-1
1.07233	-1
1.07600	-1
1.07967	-1
1.08333	-1
1.08700	-1
1.09067	-1
1.09433	-1
1.09800	-1
1.10167	-1
1.10533	-0
1.10900	-0
1.11267	-0
1.11633	-0
1.12000	-0
1.12367	-0
1.12733	-0
1.13100	0
1.13467	0
1.13833	0
1.14200	0
1.14567	1
1.14933	0
1.15300	0
1.15667	0
1.16033	0
1.16400	0
1.16767	0
1.17133	1
1.17500	1
1.17867	1
1.18233	1
1.18600	0
1.18967	0
1.19333	-0
1.19700	-0
1.20067	-0
1.20433	-0
1.20800	-1
1.21167	-1
1.21533	-1
1.21900	-1
1.22267	-1
1.22633	-1
1.23000	-1
1.23367	-1
1.23733	-1
1.24100	-1
1.24467	-1
1.24833	-1
1.25200	-1
1.25567	-1
1.25933	-1
1.26300	-1
1.26667	-1
1.27033	-1
1.27400	-1
1.27767	-1
1.28133	-0
1.28500	-0
1.28867	-0
1.29233	-0
1.29600	-0
1.29967	-0
1.30333	-0
1.30700	-1
1.31067	-1
1.31433	-1
1.31800	-2
1.32167	-2
1.32533	-2
1.32900	-2
1.33267	-2
1.33633	-2
1.34000	-2
1.34367	-2
1.34733	-2
1.35100	-2
1.35467	-2
1.35833	-2
1.36200	-2
1.36567	-2
1.36933	-2
1.37300	-3
1.37667	-3
1.38033	-3
1.38400	-3
1.38767	-3
1.39133	-3
1.39500	-2
1.39867	-2
1.40233	-2
1.40600	-2
1.40967	-2
1.41333	-1
1.41700	-1
1.42067	-1
1.42433	-1
1.42800	-1
1.43167	-1
1.43533	-1
1.43900	-1
1.44267	-1
1.44633	-1
1.45000	-2
1.45367	-2
1.45733	-2
1.46100	-2
1.46467	-2
1.46833	-2
1.47200	-2
1.47567	-1
1.47933	-1
1.48300	-1
1.48667	-1
1.49033	-1
1.49400	-1
1.49767	-1
1.50133	-0
1.50500	-0
1.50867	-1
1.51233	-1
1.51600	-1
1.51967	-1
1.52333	-1
1.52700	-1
1.53067	-1
1.53433	-1
1.53800	-1
1.54167	-1
1.54533	-1
1.54900	-1
1.55267	-2
1.55633	-2
1.56000	-2
1.56367	-2
1.56733	-2
1.57100	-3
1.57467	-3
1.57833	-3
1.58200	-3
1.58567	-4
1.58933	-4
1.59300	-5
1.59667	-6
1.60033	-7
1.60400	-8
1.60767	-9
1.61133	-11
1.61500	-13
1.61867	-15
1.62233	-17
1.62600	-20
1.62967	-23
1.63333	-26
1.63700	-28
1.64067	-31
1.64433	-34
1.64800	-37
1.65167	-40
1.65533	-43
1.65900	-46
1.66267	-49
1.66633	-52
1.67000	-55
1.67367	-59
1.67733	-63
1.68100	-67
1.68467	-71
1.68833	-75
1.69200	-79
1.69567	-82
1.69933	-85
1.70300	-87
1.70667	-89
1.71033	-91
1.71400	-92
1.71767	-93
1.72133	-94
1.72500	-95
1.72867	-96
1.73233	-97
1.73600	-98
1.73967	-99
1.74333	-100
1.74700	-101
1.75067	-102
1.75433	-103
1.75800	-103
1.76167	-103
1.76533	-104
1.76900	-104
1.77267	-104
1.77633	-104
1.78000	-104
1.78367	-103
1.78733	-103
1.79100	-102
1.79467	-102
1.79833	-102
1.80200	-102
1.80567	-103
1.80933	-103
1.81300	-103
1.81667	-103
1.82033	-103
1.82400	-103
1.82767	-103
1.83133	-104
1.83500	-104
1.83867	-104
1.84233	-104
1.84600	-105
1.84967	-105
1.85333	-105
1.85700	-105
1.86067	-105
1.86433	-105
1.86800	-105
1.87167	-105
1.87533	-104
1.87900	-104
1.88267	-104
1.88633	-104
1.89000	-104
1.89367	-104
1.89733	-104
1.90100	-104
1.90467	-103
1.90833	-103
1.91200	-103
1.91567	-102
1.91933	-102
1.92300	-102
1.92667	-102
1.93033	-102
1.93400	-101
1.93767	-101
1.94133	-101
1.94500	-101
1.94867	-101
1.95233	-100
1.95600	-99
1.95967	-99
1.96333	-98
1.96700	-98
1.97067	-98
1.97433	-98
1.97800	-98
1.98167	-98
1.98533	-98
1.98900	-98
1.99267	-98
1.99633	-98
2.00000	-98
2.00367	-98
2.00733	-98
2.01100	-98
2.01467	-98
2.01833	-98
2.02200	-98
2.02567	-97
2.02933	-97
2.03300	-96
2.03667	-95
2.04033	-94
2.04400	-93
2.04767	-93
2.05133	-93
2.05500	-93
2.05867	-93
2.06233	-93
2.06600	-93
2.06967	-92
2.07333	-91
2.07700	-91
2.08067	-90
2.08433	-90
2.08800	-90
2.09167	-90
2.09533	-89
2.09900	-89
2.10267	-88
2.10633	-88
2.11000	-88
2.11367	-88
2.11733	-88
2.12100	-89
2.12467	-89
2.12833	-89
2.13200	-89
2.13567	-88
2.13933	-87
2.14300	-86
2.14667	-85
2.15033	-84
2.15400	-84
2.15767	-84
2.16133	-84
2.16500	-84
2.16867	-84
2.17233	-83
2.17600	-83
2.17967	-83
2.18333	-83
2.18700	-83
2.19067	-83
2.19433	-83
2.19800	-83
2.20167	-83
2.20533	-84
2.20900	-84
2.21267	-84
2.21633	-83
2.22000	-82
2.22367	-81
2.22733	-80
2.23100	-79
2.23467	-79
2.23833	-78
2.24200	-78
2.24567	-78
2.24933	-78
2.25300	-78
2.25667	-77
2.26033	-77
2.26400	-76
2.26767	-75
2.27133	-75
2.27500	-75
2.27867	-74
2.28233	-74
2.28600	-75
2.28967	-74
2.29333	-74
2.29700	-74
2.30067	-74
2.30433	-74
2.30800	-74
2.31167	-74
2.31533	-74
2.31900	-74
2.32267	-73
2.32633	-73
2.33000	-72
2.33367	-72
2.33733	-71
2.34100	-70
2.34467	-70
2.34833	-70
2.35200	-71
2.35567	-71
2.35933	-71
2.36300	-70
2.36667	-68
2.37033	-66
2.37400	-63
2.37767	-60
2.38133	-56
2.38500	-52
2.38867	-47
2.39233	-42
2.39600	-38
2.39967	-33
2.40333	-29
2.40700	-25
2.41067	-21
2.41433	-18
2.41800	-14
2.42167	-12
2.42533	-9
2.42900	-7
2.43267	-5
2.43633	-2
2.44000	-0
2.44367	2
2.44733	4
2.45100	6
2.45467	8
2.45833	9
2.46200	10
2.46567	11
2.46933	12
2.47300	13
2.47667	14
2.48033	15
2.48400	15
2.48767	16
2.49133	15
2.49500	15
2.49867	15
2.50233	15
2.50600	15
2.50967	15
2.51333	15
2.51700	15
2.52067	14
2.52433	14
2.52800	13
2.53167	13
2.53533	13
2.53900	12
2.54267	12
2.54633	13
2.55000	13
2.55367	13
2.55733	13
2.56100	13
2.56467	13
2.56833	14
2.57200	15
2.57567	16
2.57933	16
2.58300	17
2.58667	18
2.59033	18
2.59400	19
2.59767	19
2.60133	20
2.60500	20
2.60867	21
2.61233	21
2.61600	21
2.61967	21
2.62333	21
2.62700	22
2.63067	22
2.63433	22
2.63800	23
2.64167	23
2.64533	24
2.64900	24
2.65267	24
2.65633	24
2.66000	24
2.66367	24
2.66733	25
2.67100	25
2.67467	25
2.67833	26
2.68200	26
2.68567	26
2.68933	26
2.69300	27
2.69667	26
2.70033	26
2.70400	26
2.70767	26
2.71133	26
2.71500	26
2.71867	26
2.72233	27
2.72600	27
2.72967	27
2.73333	27
2.73700	27
2.74067	27
2.74433	27
2.74800	27
2.75167	28
2.75533	28
2.75900	29
2.76267	30
2.76633	30
2.77000	31
2.77367	31
2.77733	31
2.78100	32
2.78467	32
2.78833	32
2.79200	32
2.79567	31
2.79933	31
2.80300	31
2.80667	30
2.81033	30
2.81400	30
2.81767	29
2.82133	29
2.82500	29
2.82867	29
2.83233	29
2.83600	29
2.83967	30
2.84333	30
2.84700	30
2.85067	30
2.85433	30
2.85800	30
2.86167	29
2.86533	27
2.86900	23
2.87267	17
2.87633	8
2.88000	-5
2.88367	-23
2.88733	-46
2.89100	-74
2.89467	-107
2.89833	-145
2.90200	-188
2.90567	-235
2.90933	-286
2.91300	-341
2.91667	-398
2.92033	-458
2.92400	-519
2.92767	-580
2.93133	-642
2.93500	-702
2.93867	-761
2.94233	-817
2.94600	-869
2.94967	-921
2.95333	-976
2.95700	-1031
2.96067	-1078
2.96433	-1106
2.96800	-1111
2.97167	-1090
2.97533	-1046
2.97900	-985
2.98267	-913
2.98633	-834
2.99000	-753
2.99367	-673
2.99733	-596
3.00100	-524
3.00467	-458
3.00833	-398
3.01200	-344
3.01567	-296
3.01933	-253
3.02300	-216
3.02667	-183
3.03033	-155
3.03400	-131
3.03767	-110
3.04133	-92
3.04500	-76
3.04867	-63
3.05233	-51
3.05600	-41
3.05967	-33
3.06333	-26
3.06700	-19
3.07067	-14
3.07433	-9
3.07800	-5
3.08167	-2
3.08533	1
3.08900	3
3.09267	5
3.09633	7
3.10000	8
3.10367	10
3.10733	11
3.11100	12
3.11467	13
3.11833	14
3.12200	15
3.12567	16
3.12933	16
3.13300	17
3.13667	18
3.14033	18
3.14400	19
3.14767	20
3.15133	20
3.15500	20
3.15867	20
3.16233	21
3.16600	21
3.16967	22
3.17333	22
3.17700	22
3.18067	22
3.18433	23
3.18800	23
3.19167	23
3.19533	23
3.19900	23
3.20267	23
3.20633	23
3.21000	23
3.21367	23
3.21733	23
3.22100	23
3.22467	24
3.22833	24
3.23200	24
3.23567	24
3.23933	25
3.24300	25
3.24667	25
3.25033	25
3.25400	25
3.25767	25
3.26133	25
3.26500	25
3.26867	25
3.27233	25
3.27600	26
3.27967	26
3.28333	26
3.28700	26
3.29067	26
3.29433	27
3.29800	27
3.30167	27
3.30533	26
3.30900	26
3.31267	26
3.31633	26
3.32000	26
3.32367	26
3.32733	27
3.33100	27
3.33467	27
3.33833	27
3.34200	27
3.34567	27
3.34933	27
3.35300	27
3.35667	27
3.36033	27
3.36400	27
3.36767	28
3.37133	28
3.37500	28
3.37867	28
3.38233	28
3.38600	28
3.38967	28
3.39333	28
3.39700	28
3.40067	28
3.40433	28
3.40800	28
3.41167	29
3.41533	29
3.41900	28
3.42267	28
3.42633	28
3.43000	28
3.43367	28
3.43733	28
3.44100	28
3.44467	29
3.44833	29
3.45200	29
3.45567	29
3.45933	29
3.46300	29
3.46667	30
3.47033	30
3.47400	30
3.47767	30
3.48133	30
3.48500	30
3.48867	30
3.49233	30
3.49600	31
3.49967	31
3.50333	31
3.50700	31
3.51067	31
3.51433	32
3.51800	32
3.52167	32
3.52533	32
3.52900	32
3.53267	33
3.53633	33
3.54000	33
3.54367	33
3.54733	32
3.55100	32
3.55467	32
3.55833	32
3.56200	32
3.56567	32
3.56933	32
3.57300	32
3.57667	32
3.58033	32
3.58400	32
3.58767	32
3.59133	32
3.59500	31
3.59867	31
3.60233	31
3.60600	30
3.60967	30
3.61333	30
3.61700	30
3.62067	30
3.62433	29
3.62800	29
3.63167	29
3.63533	29
3.63900	28
3.64267	28
3.64633	28
3.65000	27
3.65367	27
3.65733	28
3.66100	28
3.66467	28
3.66833	28
3.67200	28
3.67567	28
3.67933	29
3.68300	29
3.68667	29
3.69033	30
3.69400	30
3.69767	30
3.70133	30
3.70500	30
3.70867	30
3.71233	30
3.71600	29
3.71967	29
3.72333	29
3.72700	29
3.73067	30
3.73433	30
3.73800	30
3.74167	30
3.74533	30
3.74900	30
3.75267	31
3.75633	31
3.76000	31
3.76367	31
3.76733	31
3.77100	31
3.77467	31
3.77833	31
3.78200	31
3.78567	31
3.78933	31
3.79300	31
3.79667	31
3.80033	31
3.80400	31
3.80767	31
3.81133	30
3.81500	30
3.81867	31
3.82233	31
3.82600	31
3.82967	31
3.83333	30
3.83700	30
3.84067	30
3.84433	30
3.84800	30
3.85167	30
3.85533	30
3.85900	30
3.86267	30
3.86633	30
3.87000	30
3.87367	30
3.87733	30
3.88100	29
3.88467	29
3.88833	29
3.89200	29
3.89567	29
3.89933	29
3.90300	29
3.90667	30
3.91033	30
3.91400	30
3.91767	30
3.92133	30
3.92500	30
3.92867	30
3.93233	29
3.93600	29
3.93967	29
3.94333	29
3.94700	29
3.95067	29
3.95433	29
3.95800	29
3.96167	29
3.96533	29
3.96900	29
3.97267	29
3.97633	29
3.98000	29
3.98367	29
3.98733	29
3.99100	29
3.99467	29
3.99833	29

[Chromatogram (Ch3)]
Interval(msec)	220
# of Points	1091
Start Time(min)	0.002
End Time(min)	3.998
R.Time (min)	Intensity
0.00167	2
0.00533	5
0.00900	6
0.01267	6
0.01633	6
0.02000	6
0.02367	6
0.02733	6
0.03100	5
0.03467	6
0.03833	3
0.04200	1
0.04567	2
0.04933	3
0.05300	2
0.05667	2
0.06033	1
0.06400	1
0.06767	1
0.07133	-0
0.07500	-1
0.07867	2
0.08233	4
0.08600	5
0.08967	5
0.09333	4
0.09700	5
0.10067	5
0.10433	5
0.10800	5
0.11167	4
0.11533	3
0.11900	5
0.12267	8
0.12633	8
0.13000	6
0.13367	4
0.13733	3
0.14100	3
0.14467	3
0.14833	2
0.15200	2
0.15567	5
0.15933	7
0.16300	7
0.16667	6
0.17033	4
0.17400	5
0.17767	4
0.18133	4
0.18500	3
0.18867	3
0.19233	4
0.19600	5
0.19967	5
0.20333	6
0.20700	6
0.21067	4
0.21433	3
0.21800	2
0.22167	1
0.22533	1
0.22900	3
0.23267	4
0.23633	5
0.24000	7
0.24367	7
0.24733	8
0.25100	9
0.25467	10
0.25833	12
0.26200	12
0.26567	12
0.26933	11
0.27300	8
0.27667	6
0.28033	4
0.28400	3
0.28767	4
0.29133	4
0.29500	4
0.29867	5
0.30233	5
0.30600	7
0.30967	8
0.31333	10
0.31700	12
0.32067	12
0.32433	13
0.32800	13
0.33167	12
0.33533	10
0.33900	8
0.34267	7
0.34633	8
0.35000	7
0.35367	6
0.35733	7
0.36100	7
0.36467	8
0.36833	8
0.37200	8
0.37567	8
0.37933	6
0.38300	7
0.38667	8
0.39033	7
0.39400	6
0.39767	6
0.40133	7
0.40500	7
0.40867	6
0.41233	6
0.41600	7
0.41967	10
0.42333	11
0.42700	13
0.43067	12
0.43433	11
0.43800	10
0.44167	8
0.44533	6
0.44900	6
0.45267	7
0.45633	8
0.46000	8
0.46367	6
0.46733	6
0.47100	8
0.47467	9
0.47833	10
0.48200	10
0.48567	8
0.48933	6
0.49300	7
0.49667	7
0.50033	7
0.50400	7
0.50767	5
0.51133	6
0.51500	7
0.51867	7
0.52233	8
0.52600	7
0.52967	7
0.53333	7
0.53700	8
0.54067	11
0.54433	12
0.54800	12
0.55167	11
0.55533	10
0.55900	9
0.56267	7
0.56633	5
0.57000	5
0.57367	3
0.57733	3
0.58100	4
0.58467	7
0.58833	9
0.59200	10
0.59567	8
0.59933	8
0.60300	10
0.60667	11
0.61033	11
0.61400	11
0.61767	11
0.62133	10
0.62500	12
0.62867	12
0.63233	9
0.63600	7
0.63967	8
0.64333	11
0.64700	12
0.65067	12
0.65433	13
0.65800	13
0.66167	11
0.66533	11
0.66900	10
0.67267	9
0.67633	9
0.68000	8
0.68367	8
0.68733	10
0.69100	10
0.69467	11
0.69833	14
0.70200	17
0.70567	18
0.70933	17
0.71300	16
0.71667	14
0.72033	13
0.72400	13
0.72767	12
0.73133	10
0.73500	7
0.73867	8
0.74233	9
0.74600	12
0.74967	13
0.75333	12
0.75700	10
0.76067	9
0.76433	9
0.76800	8
0.77167	9
0.77533	10
0.77900	12
0.78267	10
0.78633	8
0.79000	9
0.79367	10
0.79733	11
0.80100	14
0.80467	16
0.80833	14
0.81200	13
0.81567	14
0.81933	15
0.82300	16
0.82667	17
0.83033	15
0.83400	14
0.83767	15
0.84133	17
0.84500	17
0.84867	15
0.85233	15
0.85600	15
0.85967	13
0.86333	13
0.86700	14
0.87067	14
0.87433	13
0.87800	11
0.88167	11
0.88533	13
0.88900	14
0.89267	15
0.89633	17
0.90000	17
0.90367	15
0.90733	16
0.91100	17
0.91467	18
0.91833	17
0.92200	18
0.92567	17
0.92933	17
0.93300	17
0.93667	18
0.94033	18
0.94400	16
0.94767	16
0.95133	16
0.95500	17
0.95867	16
0.96233	16
0.96600	14
0.96967	13
0.97333	13
0.97700	15
0.98067	17
0.98433	19
0.98800	20
0.99167	19
0.99533	18
0.99900	16
1.00267	16
1.00633	16
1.01000	16
1.01367	17
1.01733	19
1.02100	20
1.02467	20
1.02833	21
1.03200	19
1.03567	20
1.03933	21
1.04300	22
1.04667	23
1.05033	23
1.05400	24
1.05767	25
1.06133	24
1.06500	25
1.06867	25
1.07233	25
1.07600	23
1.07967	21
1.08333	20
1.08700	20
1.09067	20
1.09433	22
1.09800	23
1.10167	22
1.10533	20
1.10900	18
1.11267	19
1.11633	19
1.12000	20
1.12367	19
1.12733	16
1.13100	16
1.13467	16
1.13833	15
1.14200	15
1.14567	17
1.14933	19
1.15300	20
1.15667	20
1.16033	20
1.16400	21
1.16767	21
1.17133	20
1.17500	20
1.17867	19
1.18233	19
1.18600	21
1.18967	21
1.19333	22
1.19700	22
1.20067	21
1.20433	21
1.20800	22
1.21167	22
1.21533	21
1.21900	19
1.22267	19
1.22633	19
1.23000	21
1.23367	21
1.23733	20
1.24100	21
1.24467	21
1.24833	20
1.25200	19
1.25567	20
1.25933	20
1.26300	20
1.26667	21
1.27033	21
1.27400	22
1.27767	19
1.28133	17
1.28500	20
1.28867	24
1.29233	25
1.29600	24
1.29967	23
1.30333	21
1.30700	21
1.31067	21
1.31433	19
1.31800	18
1.32167	20
1.32533	22
1.32900	25
1.33267	26
1.33633	26
1.34000	26
1.34367	26
1.34733	26
1.35100	26
1.35467	26
1.35833	25
1.36200	25
1.36567	22
1.36933	22
1.37300	23
1.37667	23
1.38033	22
1.38400	22
1.38767	23
1.39133	22
1.39500	21
1.39867	22
1.40233	24
1.40600	27
1.40967	29
1.41333	28
1.41700	26
1.42067	24
1.42433	23
1.42800	24
1.43167	25
1.43533	25
1.43900	25
1.44267	26
1.44633	27
1.45000	25
1.45367	23
1.45733	20
1.46100	18
1.46467	18
1.46833	21
1.47200	23
1.47567	23
1.47933	23
1.48300	22
1.48667	22
1.49033	23
1.49400	24
1.49767	25
1.50133	23
1.50500	22
1.50867	22
1.51233	24
1.51600	24
1.51967	25
1.52333	25
1.52700	25
1.53067	24
1.53433	23
1.53800	24
1.54167	24
1.54533	25
1.54900	27
1.55267	28
1.55633	28
1.56000	27
1.56367	25
1.56733	25
1.57100	24
1.57467	25
1.57833	24
1.58200	20
1.58567	19
1.58933	21
1.59300	21
1.59667	22
1.60033	23
1.60400	23
1.60767	23
1.61133	24
1.61500	26
1.61867	28
1.62233	29
1.62600	29
1.62967	28
1.63333	26
1.63700	26
1.64067	27
1.64433	28
1.64800	28
1.65167	27
1.65533	28
1.65900	29
1.66267	30
1.66633	30
1.67000	29
1.67367	26
1.67733	27
1.68100	29
1.68467	29
1.68833	31
1.69200	34
1.69567	34
1.69933	34
1.70300	34
1.70667	32
1.71033	31
1.71400	33
1.71767	37
1.72133	38
1.72500	38
1.72867	36
1.73233	36
1.73600	37
1.73967	39
1.74333	38
1.74700	38
1.75067	38
1.75433	40
1.75800	41
1.76167	43
1.76533	42
1.76900	41
1.77267	42
1.77633	42
1.78000	43
1.78367	43
1.78733	42
1.79100	41
1.79467	40
1.79833	42
1.80200	45
1.80567	46
1.80933	46
1.81300	45
1.81667	45
1.82033	46
1.82400	45
1.82767	44
1.83133	44
1.83500	45
1.83867	48
1.84233	51
1.84600	51
1.84967	51
1.85333	52
1.85700	51
1.86067	50
1.86433	51
1.86800	52
1.87167	52
1.87533	53
1.87900	54
1.88267	55
1.88633	58
1.89000	60
1.89367	61
1.89733	63
1.90100	65
1.90467	65
1.90833	65
1.91200	65
1.91567	65
1.91933	64
1.92300	64
1.92667	63
1.93033	64
1.93400	65
1.93767	66
1.94133	65
1.94500	65
1.94867	63
1.95233	63
1.95600	65
1.95967	68
1.96333	71
1.96700	71
1.97067	69
1.97433	69
1.97800	72
1.98167	73
1.98533	74
1.98900	76
1.99267	76
1.99633	75
2.00000	78
2.00367	82
2.00733	85
2.01100	85
2.01467	85
2.01833	84
2.02200	85
2.02567	89
2.02933	91
2.03300	92
2.03667	91
2.04033	92
2.04400	92
2.04767	91
2.05133	91
2.05500	92
2.05867	95
2.06233	95
2.06600	96
2.06967	99
2.07333	99
2.07700	100
2.08067	101
2.08433	101
2.08800	101
2.09167	101
2.09533	100
2.09900	101
2.10267	102
2.10633	101
2.11000	103
2.11367	107
2.11733	111
2.12100	112
2.12467	112
2.12833	113
2.13200	114
2.13567	114
2.13933	114
2.14300	115
2.14667	115
2.15033	114
2.15400	114
2.15767	115
2.16133	116
2.16500	114
2.16867	113
2.17233	115
2.17600	115
2.17967	116
2.18333	118
2.18700	118
2.19067	116
2.19433	116
2.19800	117
2.20167	116
2.20533	116
2.20900	118
2.21267	118
2.21633	118
2.22000	117
2.22367	119
2.22733	122
2.23100	124
2.23467	123
2.23833	123
2.24200	125
2.24567	127
2.24933	128
2.25300	128
2.25667	129
2.26033	129
2.26400	128
2.26767	128
2.27133	128
2.27500	129
2.27867	128
2.28233	128
2.28600	131
2.28967	132
2.29333	132
2.29700	132
2.30067	132
2.30433	131
2.30800	132
2.31167	132
2.31533	131
2.31900	129
2.32267	129
2.32633	131
2.33000	133
2.33367	133
2.33733	133
2.34100	133
2.34467	134
2.34833	135
2.35200	136
2.35567	136
2.35933	136
2.36300	138
2.36667	139
2.37033	138
2.37400	136
2.37767	134
2.38133	132
2.38500	131
2.38867	129
2.39233	131
2.39600	134
2.39967	137
2.40333	140
2.40700	142
2.41067	143
2.41433	143
2.41800	143
2.42167	145
2.42533	146
2.42900	146
2.43267	144
2.43633	143
2.44000	147
2.44367	191
2.44733	278
2.45100	359
2.45467	418
2.45833	446
2.46200	440
2.46567	418
2.46933	396
2.47300	380
2.47667	365
2.48033	347
2.48400	324
2.48767	298
2.49133	271
2.49500	248
2.49867	230
2.50233	216
2.50600	209
2.50967	206
2.51333	206
2.51700	212
2.52067	220
2.52433	224
2.52800	224
2.53167	219
2.53533	211
2.53900	202
2.54267	190
2.54633	172
2.55000	158
2.55367	154
2.55733	164
2.56100	188
2.56467	219
2.56833	254
2.57200	291
2.57567	331
2.57933	375
2.58300	424
2.58667	476
2.59033	527
2.59400	574
2.59767	617
2.60133	652
2.60500	678
2.60867	694
2.61233	700
2.61600	700
2.61967	694
2.62333	684
2.62700	672
2.63067	661
2.63433	646
2.63800	631
2.64167	616
2.64533	602
2.64900	590
2.65267	581
2.65633	576
2.66000	571
2.66367	570
2.66733	569
2.67100	570
2.67467	573
2.67833	574
2.68200	575
2.68567	576
2.68933	578
2.69300	582
2.69667	586
2.70033	592
2.70400	597
2.70767	599
2.71133	602
2.71500	605
2.71867	609
2.72233	612
2.72600	615
2.72967	618
2.73333	620
2.73700	624
2.74067	629
2.74433	634
2.74800	637
2.75167	639
2.75533	640
2.75900	638
2.76267	636
2.76633	632
2.77000	628
2.77367	625
2.77733	622
2.78100	618
2.78467	613
2.78833	609
2.79200	604
2.79567	599
2.79933	595
2.80300	592
2.80667	589
2.81033	585
2.81400	580
2.81767	577
2.82133	573
2.82500	571
2.82867	568
2.83233	570
2.83600	580
2.83967	607
2.84333	664
2.84700	775
2.85067	960
2.85433	1238
2.85800	1618
2.86167	2100
2.86533	2656
2.86900	3246
2.87267	3822
2.87633	4339
2.88000	4757
2.88367	5044
2.88733	5188
2.89100	5193
2.89467	5079
2.89833	4865
2.90200	4583
2.90567	4261
2.90933	3921
2.91300	3582
2.91667	3257
2.92033	2949
2.92400	2663
2.92767	2402
2.93133	2169
2.93500	1962
2.93867	1779
2.94233	1618
2.94600	1475
2.94967	1348
2.95333	1239
2.95700	1144
2.96067	1063
2.96433	992
2.96800	931
2.97167	878
2.97533	831
2.97900	790
2.98267	755
2.98633	724
2.99000	698
2.99367	678
2.99733	660
3.00100	646
3.00467	635
3.00833	623
3.01200	611
3.01567	603
3.01933	598
3.02300	593
3.02667	591
3.03033	590
3.03400	585
3.03767	578
3.04133	575
3.04500	572
3.04867	571
3.05233	570
3.05600	572
3.05967	574
3.06333	576
3.06700	578
3.07067	576
3.07433	574
3.07800	572
3.08167	569
3.08533	569
3.08900	570
3.09267	572
3.09633	574
3.10000	575
3.10367	573
3.10733	571
3.11100	572
3.11467	573
3.11833	573
3.12200	573
3.12567	573
3.12933	573
3.13300	573
3.13667	572
3.14033	573
3.14400	576
3.14767	577
3.15133	577
3.15500	576
3.15867	574
3.16233	572
3.16600	572
3.16967	572
3.17333	573
3.17700	573
3.18067	573
3.18433	573
3.18800	573
3.19167	570
3.19533	568
3.19900	567
3.20267	568
3.20633	567
3.21000	566
3.21367	567
3.21733	567
3.22100	567
3.22467	564
3.22833	563
3.23200	563
3.23567	564
3.23933	564
3.24300	563
3.24667	562
3.25033	561
3.25400	562
3.25767	563
3.26133	565
3.26500	565
3.26867	563
3.27233	561
3.27600	560
3.27967	560
3.28333	559
3.28700	556
3.29067	554
3.29433	552
3.29800	550
3.30167	548
3.30533	544
3.30900	541
3.31267	539
3.31633	539
3.32000	536
3.32367	535
3.32733	536
3.33100	536
3.33467	535
3.33833	535
3.34200	536
3.34567	537
3.34933	537
3.35300	534
3.35667	531
3.36033	528
3.36400	528
3.36767	526
3.37133	525
3.37500	523
3.37867	519
3.38233	514
3.38600	509
3.38967	505
3.39333	504
3.39700	503
3.40067	502
3.40433	500
3.40800	496
3.41167	492
3.41533	489
3.41900	486
3.42267	484
3.42633	484
3.43000	483
3.43367	480
3.43733	477
3.44100	474
3.44467	475
3.44833	475
3.45200	473
3.45567	469
3.45933	464
3.46300	461
3.46667	460
3.47033	458
3.47400	458
3.47767	457
3.48133	455
3.48500	451
3.48867	449
3.49233	448
3.49600	446
3.49967	445
3.50333	443
3.50700	442
3.51067	442
3.51433	442
3.51800	439
3.52167	435
3.52533	430
3.52900	426
3.53267	425
3.53633	424
3.54000	422
3.54367	421
3.54733	420
3.55100	417
3.55467	412
3.55833	409
3.56200	407
3.56567	406
3.56933	406
3.57300	405
3.57667	404
3.58033	404
3.58400	403
3.58767	399
3.59133	397
3.59500	396
3.59867	397
3.60233	398
3.60600	396
3.60967	394
3.61333	395
3.61700	392
3.62067	389
3.62433	386
3.62800	385
3.63167	383
3.63533	382
3.63900	382
3.64267	380
3.64633	376
3.65000	374
3.65367	372
3.65733	370
3.66100	368
3.66467	365
3.66833	363
3.67200	364
3.67567	366
3.67933	364
3.68300	363
3.68667	360
3.69033	355
3.69400	353
3.69767	351
3.70133	348
3.70500	347
3.70867	347
3.71233	347
3.71600	346
3.71967	342
3.72333	339
3.72700	336
3.73067	334
3.73433	331
3.73800	331
3.74167	330
3.74533	329
3.74900	327
3.75267	326
3.75633	325
3.76000	321
3.76367	317
3.76733	316
3.77100	314
3.77467	312
3.77833	311
3.78200	310
3.78567	309
3.78933	309
3.79300	311
3.79667	311
3.80033	308
3.80400	305
3.80767	302
3.81133	301
3.81500	300
3.81867	299
3.82233	296
3.82600	293
3.82967	291
3.83333	289
3.83700	287
3.84067	285
3.84433	285
3.84800	283
3.85167	280
3.85533	278
3.85900	276
3.86267	274
3.86633	275
3.87000	274
3.87367	274
3.87733	273
3.88100	270
3.88467	269
3.88833	269
3.89200	269
3.89567	267
3.89933	266
3.90300	265
3.90667	266
3.91033	266
3.91400	264
3.91767	262
3.92133	262
3.92500	262
3.92867	260
3.93233	259
3.93600	260
3.93967	261
3.94333	260
3.94700	257
3.95067	256
3.95433	254
3.95800	254
3.96167	254
3.96533	252
3.96900	250
3.97267	248
3.97633	246
3.98000	246
3.98367	244
3.98733	244
3.99100	245
3.99467	243
3.99833	242

[Status Trace (Column Oven Temperature)]
Interval(msec)	1000
# of Points	240
Start Time(min)	0.008
End Time(min)	3.991
Intensity Units	
Intensity Multiplier	1
R.Time (min)	Intensity
0.00815	35.10
0.02482	35.12
0.04148	35.12
0.05815	35.13
0.07482	35.13
0.09148	35.11
0.10815	35.10
0.12482	35.09
0.14148	35.09
0.15815	35.09
0.17482	35.08
0.19148	35.08
0.20815	35.08
0.22482	35.07
0.24148	35.04
0.25815	35.02
0.27482	35.01
0.29148	34.99
0.30815	34.98
0.32482	34.97
0.34148	34.97
0.35815	34.96
0.37482	34.96
0.39148	34.96
0.40815	34.95
0.42482	34.96
0.44148	34.97
0.45815	34.97
0.47482	34.97
0.49148	34.99
0.50815	34.99
0.52482	34.99
0.54148	34.99
0.55815	34.99
0.57482	34.99
0.59148	34.99
0.60815	34.98
0.62482	34.98
0.64148	34.98
0.65815	34.99
0.67482	34.98
0.69148	34.99
0.70815	34.99
0.72482	35.00
0.74148	35.01
0.75815	35.01
0.77482	35.02
0.79148	35.01
0.80815	35.01
0.82482	35.01
0.84148	35.00
0.85815	35.00
0.87482	34.99
0.89148	34.98
0.90815	34.98
0.92482	34.98
0.94148	34.98
0.95815	34.98
0.97482	34.99
0.99148	35.00
1.00815	35.00
1.02482	35.00
1.04148	35.00
1.05815	34.99
1.07482	35.00
1.09148	35.00
1.10815	35.00
1.12482	34.99
1.14148	34.98
1.15815	34.98
1.17482	34.98
1.19148	34.97
1.20815	34.97
1.22482	34.97
1.24148	34.97
1.25815	34.97
1.27482	34.98
1.29148	34.98
1.30815	34.98
1.32482	34.99
1.34148	34.99
1.35815	35.01
1.37482	35.01
1.39148	35.01
1.40815	35.01
1.42482	35.01
1.44148	35.01
1.45815	35.01
1.47482	35.00
1.49148	35.00
1.50815	34.99
1.52482	34.99
1.54148	34.99
1.55815	35.00
1.57482	35.01
1.59148	35.03
1.60815	35.10
1.62482	35.22
1.64148	35.41
1.65815	35.65
1.67482	35.95
1.69148	36.30
1.70815	36.65
1.72482	36.99
1.74148	37.34
1.75815	37.68
1.77482	38.01
1.79148	38.33
1.80815	38.67
1.82482	39.00
1.84148	39.33
1.85815	39.67
1.87482	39.99
1.89148	40.33
1.90815	40.66
1.92482	40.98
1.94148	41.31
1.95815	41.63
1.97482	41.96
1.99148	42.29
2.00815	42.61
2.02482	42.94
2.04148	43.24
2.05815	43.58
2.07482	43.90
2.09148	44.23
2.10815	44.55
2.12482	44.89
2.14148	45.21
2.15815	45.52
2.17482	45.85
2.19148	46.17
2.20815	46.52
2.22482	46.83
2.24148	47.16
2.25815	47.49
2.27482	47.81
2.29148	48.16
2.30815	48.49
2.32482	48.81
2.34148	49.14
2.35815	49.46
2.37482	49.67
2.39148	49.72
2.40815	49.71
2.42482	49.73
2.44148	49.72
2.45815	49.72
2.47482	49.72
2.49148	49.74
2.50815	49.75
2.52482	49.76
2.54148	49.75
2.55815	49.79
2.57482	49.81
2.59148	49.82
2.60815	49.82
2.62482	49.82
2.64148	49.81
2.65815	49.82
2.67482	49.82
2.69148	49.83
2.70815	49.84
2.72482	49.85
2.74148	49.86
2.75815	49.86
2.77482	49.84
2.79148	49.85
2.80815	49.87
2.82482	49.87
2.84148	49.87
2.85815	49.86
2.87482	49.86
2.89148	49.86
2.90815	49.85
2.92482	49.86
2.94148	49.87
2.95815	49.89
2.97482	49.91
2.99148	49.92
3.00815	49.93
3.02482	49.94
3.04148	49.95
3.05815	49.96
3.07482	49.97
3.09148	49.98
3.10815	49.99
3.12482	49.99
3.14148	50.00
3.15815	50.00
3.17482	50.01
3.19148	50.02
3.20815	50.02
3.22482	50.03
3.24148	50.04
3.25815	50.04
3.27482	50.05
3.29148	50.06
3.30815	50.07
3.32482	50.07
3.34148	50.08
3.35815	50.08
3.37482	50.09
3.39148	50.09
3.40815	50.09
3.42482	50.10
3.44148	50.11
3.45815	50.10
3.47482	50.10
3.49148	50.10
3.50815	50.08
3.52482	50.06
3.54148	50.05
3.55815	50.04
3.57482	50.03
3.59148	50.03
3.60815	50.03
3.62482	50.05
3.64148	50.06
3.65815	50.07
3.67482	50.08
3.69148	50.07
3.70815	50.08
3.72482	50.07
3.74148	50.07
3.75815	50.06
3.77482	50.05
3.79148	50.05
3.80815	50.04
3.82482	50.03
3.84148	50.02
3.85815	50.01
3.87482	50.02
3.89148	50.02
3.90815	50.02
3.92482	50.03
3.94148	50.04
3.95815	50.04
3.97482	50.05
3.99148	50.05

[Status Trace (Injection Unit Temperature)]
Interval(msec)	1000
# of Points	240
Start Time(min)	0.008
End Time(min)	3.991
Intensity Units	
Intensity Multiplier	1
R.Time (min)	Intensity
0.00815	99.98
0.02482	99.98
0.04148	99.98
0.05815	99.98
0.07482	99.98
0.09148	99.98
0.10815	99.98
0.12482	99.98
0.14148	99.98
0.15815	99.98
0.17482	99.98
0.19148	99.98
0.20815	99.99
0.22482	99.98
0.24148	99.98
0.25815	99.99
0.27482	99.99
0.29148	99.99
0.30815	99.99
0.32482	99.98
0.34148	99.98
0.35815	99.97
0.37482	99.99
0.39148	99.99
0.40815	99.99
0.42482	99.99
0.44148	99.99
0.45815	99.99
0.47482	99.99
0.49148	99.99
0.50815	99.99
0.52482	99.99
0.54148	99.99
0.55815	99.99
0.57482	99.98
0.59148	99.99
0.60815	99.98
0.62482	99.99
0.64148	99.99
0.65815	99.98
0.67482	99.99
0.69148	99.99
0.70815	99.98
0.72482	99.99
0.74148	99.98
0.75815	99.98
0.77482	99.98
0.79148	99.98
0.80815	99.98
0.82482	99.99
0.84148	99.98
0.85815	99.99
0.87482	99.98
0.89148	99.98
0.90815	99.98
0.92482	99.98
0.94148	99.98
0.95815	99.98
0.97482	99.99
0.99148	99.99
1.00815	99.98
1.02482	99.98
1.04148	99.98
1.05815	99.98
1.07482	99.98
1.09148	99.98
1.10815	99.98
1.12482	99.98
1.14148	99.99
1.15815	99.98
1.17482	99.99
1.19148	99.98
1.20815	99.99
1.22482	99.99
1.24148	99.98
1.25815	99.99
1.27482	99.99
1.29148	99.99
1.30815	99.99
1.32482	99.99
1.34148	99.99
1.35815	99.99
1.37482	99.99
1.39148	99.98
1.40815	99.98
1.42482	99.99
1.44148	99.98
1.45815	99.99
1.47482	99.99
1.49148	99.99
1.50815	99.98
1.52482	99.98
1.54148	99.98
1.55815	99.99
1.57482	99.98
1.59148	99.98
1.60815	99.99
1.62482	99.99
1.64148	99.99
1.65815	99.99
1.67482	99.99
1.69148	99.98
1.70815	99.99
1.72482	99.98
1.74148	99.99
1.75815	99.99
1.77482	99.99
1.79148	99.99
1.80815	99.98
1.82482	99.98
1.84148	99.99
1.85815	99.99
1.87482	99.98
1.89148	99.98
1.90815	99.98
1.92482	99.98
1.94148	99.98
1.95815	99.98
1.97482	99.98
1.99148	99.98
2.00815	99.98
2.02482	99.98
2.04148	99.98
2.05815	99.98
2.07482	99.98
2.09148	99.98
2.10815	99.98
2.12482	99.98
2.14148	99.97
2.15815	99.98
2.17482	99.97
2.19148	99.98
2.20815	99.97
2.22482	99.97
2.24148	99.97
2.25815	99.97
2.27482	99.97
2.29148	99.97
2.30815	99.97
2.32482	99.97
2.34148	99.97
2.35815	99.97
2.37482	99.97
2.39148	99.97
2.40815	99.97
2.42482	99.97
2.44148	99.96
2.45815	99.97
2.47482	99.97
2.49148	99.97
2.50815	99.97
2.52482	99.97
2.54148	99.97
2.55815	99.97
2.57482	99.97
2.59148	99.97
2.60815	99.97
2.62482	99.97
2.64148	99.97
2.65815	99.97
2.67482	99.98
2.69148	99.98
2.70815	99.98
2.72482	99.99
2.74148	99.98
2.75815	99.99
2.77482	99.99
2.79148	99.99
2.80815	99.99
2.82482	100.00
2.84148	100.00
2.85815	100.00
2.87482	100.00
2.89148	100.00
2.90815	100.00
2.92482	100.00
2.94148	100.01
2.95815	100.01
2.97482	100.01
2.99148	100.01
3.00815	100.01
3.02482	100.01
3.04148	100.02
3.05815	100.02
3.07482	100.02
3.09148	100.02
3.10815	100.02
3.12482	100.02
3.14148	100.03
3.15815	100.02
3.17482	100.03
3.19148	100.03
3.20815	100.03
3.22482	100.02
3.24148	100.03
3.25815	100.03
3.27482	100.03
3.29148	100.04
3.30815	100.03
3.32482	100.03
3.34148	100.04
3.35815	100.03
3.37482	100.03
3.39148	100.04
3.40815	100.04
3.42482	100.04
3.44148	100.04
3.45815	100.03
3.47482	100.04
3.49148	100.04
3.50815	100.05
3.52482	100.04
3.54148	100.04
3.55815	100.05
3.57482	100.05
3.59148	100.05
3.60815	100.05
3.62482	100.05
3.64148	100.05
3.65815	100.05
3.67482	100.05
3.69148	100.05
3.70815	100.05
3.72482	100.05
3.74148	100.05
3.75815	100.06
3.77482	100.05
3.79148	100.06
3.80815	100.05
3.82482	100.05
3.84148	100.05
3.85815	100.05
3.87482	100.05
3.89148	100.05
3.90815	100.05
3.92482	100.05
3.94148	100.05
3.95815	100.05
3.97482	100.05
3.99148	100.05

[Status Trace (Carrier Gas Pressure)]
Interval(msec)	1000
# of Points	240
Start Time(min)	0.008
End Time(min)	3.991
Intensity Units	
Intensity Multiplier	1
R.Time (min)	Intensity
0.00815	58.00
0.02482	55.36
0.04148	57.24
0.05815	59.34
0.07482	59.27
0.09148	58.03
0.10815	57.98
0.12482	58.01
0.14148	58.01
0.15815	58.00
0.17482	58.00
0.19148	58.00
0.20815	58.00
0.22482	58.00
0.24148	58.00
0.25815	58.00
0.27482	58.00
0.29148	58.00
0.30815	58.00
0.32482	58.00
0.34148	58.00
0.35815	58.00
0.37482	58.00
0.39148	58.00
0.40815	58.00
0.42482	58.00
0.44148	58.00
0.45815	58.00
0.47482	58.00
0.49148	58.00
0.50815	58.00
0.52482	58.00
0.54148	58.00
0.55815	58.00
0.57482	58.00
0.59148	58.00
0.60815	58.00
0.62482	58.00
0.64148	58.00
0.65815	58.00
0.67482	58.00
0.69148	58.00
0.70815	58.00
0.72482	58.00
0.74148	58.00
0.75815	58.00
0.77482	58.00
0.79148	58.00
0.80815	58.00
0.82482	58.00
0.84148	58.00
0.85815	58.00
0.87482	58.00
0.89148	58.00
0.90815	58.00
0.92482	58.00
0.94148	58.00
0.95815	58.00
0.97482	58.00
0.99148	58.00
1.00815	58.00
1.02482	58.00
1.04148	58.00
1.05815	58.00
1.07482	58.00
1.09148	58.00
1.10815	58.00
1.12482	58.00
1.14148	58.00
1.15815	58.00
1.17482	58.00
1.19148	58.00
1.20815	58.00
1.22482	58.00
1.24148	58.00
1.25815	58.00
1.27482	58.00
1.29148	58.00
1.30815	58.00
1.32482	58.00
1.34148	58.00
1.35815	58.00
1.37482	58.00
1.39148	58.00
1.40815	58.00
1.42482	58.00
1.44148	58.00
1.45815	58.00
1.47482	58.00
1.49148	58.00
1.50815	58.00
1.52482	58.00
1.54148	58.00
1.55815	58.00
1.57482	58.00
1.59148	58.00
1.60815	58.00
1.62482	58.00
1.64148	58.00
1.65815	58.00
1.67482	58.00
1.69148	58.01
1.70815	58.00
1.72482	58.00
1.74148	58.00
1.75815	58.00
1.77482	58.00
1.79148	58.00
1.80815	58.00
1.82482	58.00
1.84148	58.00
1.85815	58.00
1.87482	58.00
1.89148	58.00
1.90815	58.00
1.92482	58.00
1.94148	58.00
1.95815	58.00
1.97482	58.00
1.99148	58.00
2.00815	58.00
2.02482	58.00
2.04148	58.00
2.05815	58.00
2.07482	58.00
2.09148	58.00
2.10815	58.00
2.12482	58.00
2.14148	58.00
2.15815	58.00
2.17482	58.00
2.19148	58.00
2.20815	58.00
2.22482	58.00
2.24148	58.00
2.25815	58.00
2.27482	58.00
2.29148	58.00
2.30815	58.00
2.32482	58.00
2.34148	58.00
2.35815	58.00
2.37482	57.99
2.39148	57.99
2.40815	57.99
2.42482	58.00
2.44148	58.00
2.45815	58.00
2.47482	58.00
2.49148	58.00
2.50815	58.00
2.52482	57.99
2.54148	58.00
2.55815	58.00
2.57482	58.00
2.59148	58.00
2.60815	58.00
2.62482	58.00
2.64148	58.00
2.65815	58.00
2.67482	58.00
2.69148	58.00
2.70815	58.00
2.72482	58.00
2.74148	58.00
2.75815	58.00
2.77482	58.00
2.79148	58.00
2.80815	58.00
2.82482	58.00
2.84148	58.00
2.85815	58.00
2.87482	58.00
2.89148	58.00
2.90815	58.00
2.92482	58.00
2.94148	58.00
2.95815	58.00
2.97482	58.00
2.99148	58.00
3.00815	58.00
3.02482	58.00
3.04148	58.00
3.05815	58.00
3.07482	58.00
3.09148	58.00
3.10815	58.00
3.12482	58.00
3.14148	58.00
3.15815	58.00
3.17482	58.00
3.19148	58.00
3.20815	58.00
3.22482	58.00
3.24148	58.00
3.25815	58.00
3.27482	58.00
3.29148	58.00
3.30815	58.00
3.32482	58.00
3.34148	58.00
3.35815	58.00
3.37482	58.00
3.39148	58.00
3.40815	58.00
3.42482	58.00
3.44148	58.00
3.45815	58.00
3.47482	58.00
3.49148	58.00
3.50815	58.00
3.52482	58.00
3.54148	58.00
3.55815	58.00
3.57482	58.00
3.59148	58.00
3.60815	58.00
3.62482	58.00
3.64148	58.00
3.65815	58.00
3.67482	58.00
3.69148	58.00
3.70815	58.00
3.72482	58.00
3.74148	58.00
3.75815	58.00
3.77482	58.00
3.79148	58.00
3.80815	58.00
3.82482	58.00
3.84148	58.00
3.85815	58.00
3.87482	58.00
3.89148	58.00
3.90815	58.00
3.92482	58.00
3.94148	58.00
3.95815	58.00
3.97482	58.00
3.99148	58.00

[Status Trace (Carrier Gas Flow)]
Interval(msec)	1000
# of Points	240
Start Time(min)	0.008
End Time(min)	3.991
Intensity Units	
Intensity Multiplier	1
R.Time (min)	Intensity
0.00815	34.52
0.02482	34.54
0.04148	34.54
0.05815	34.55
0.07482	34.50
0.09148	34.52
0.10815	34.52
0.12482	34.52
0.14148	34.51
0.15815	34.52
0.17482	34.52
0.19148	34.52
0.20815	34.52
0.22482	34.52
0.24148	34.52
0.25815	34.52
0.27482	34.52
0.29148	34.52
0.30815	34.52
0.32482	34.52
0.34148	34.52
0.35815	34.52
0.37482	34.51
0.39148	34.51
0.40815	34.53
0.42482	34.52
0.44148	34.52
0.45815	34.52
0.47482	34.52
0.49148	34.52
0.50815	34.51
0.52482	34.52
0.54148	34.52
0.55815	34.52
0.57482	34.52
0.59148	34.52
0.60815	34.51
0.62482	34.53
0.64148	34.52
0.65815	34.52
0.67482	34.52
0.69148	34.52
0.70815	34.52
0.72482	34.52
0.74148	34.51
0.75815	34.52
0.77482	34.52
0.79148	34.52
0.80815	34.52
0.82482	34.52
0.84148	34.52
0.85815	34.51
0.87482	34.52
0.89148	34.52
0.90815	34.52
0.92482	34.52
0.94148	34.52
0.95815	34.52
0.97482	34.51
0.99148	34.52
1.00815	34.52
1.02482	34.52
1.04148	34.52
1.05815	34.52
1.07482	34.52
1.09148	34.52
1.10815	34.52
1.12482	34.52
1.14148	34.52
1.15815	34.52
1.17482	34.52
1.19148	34.52
1.20815	34.52
1.22482	34.52
1.24148	34.52
1.25815	34.51
1.27482	34.52
1.29148	34.52
1.30815	34.52
1.32482	34.52
1.34148	34.52
1.35815	34.52
1.37482	34.52
1.39148	34.52
1.40815	34.52
1.42482	34.52
1.44148	34.52
1.45815	34.52
1.47482	34.52
1.49148	34.52
1.50815	34.52
1.52482	34.52
1.54148	34.52
1.55815	34.52
1.57482	34.52
1.59148	34.52
1.60815	34.52
1.62482	34.51
1.64148	34.52
1.65815	34.52
1.67482	34.52
1.69148	34.51
1.70815	34.53
1.72482	34.53
1.74148	34.52
1.75815	34.52
1.77482	34.52
1.79148	34.52
1.80815	34.51
1.82482	34.51
1.84148	34.52
1.85815	34.52
1.87482	34.52
1.89148	34.51
1.90815	34.52
1.92482	34.52
1.94148	34.52
1.95815	34.52
1.97482	34.52
1.99148	34.52
2.00815	34.52
2.02482	34.51
2.04148	34.51
2.05815	34.52
2.07482	34.51
2.09148	34.52
2.10815	34.51
2.12482	34.53
2.14148	34.52
2.15815	34.51
2.17482	34.53
2.19148	34.53
2.20815	34.52
2.22482	34.51
2.24148	34.51
2.25815	34.51
2.27482	34.51
2.29148	34.51
2.30815	34.51
2.32482	34.52
2.34148	34.51
2.35815	34.52
2.37482	34.52
2.39148	34.52
2.40815	34.52
2.42482	34.52
2.44148	34.52
2.45815	34.52
2.47482	34.52
2.49148	34.52
2.50815	34.38
2.52482	34.52
2.54148	34.52
2.55815	34.52
2.57482	34.52
2.59148	34.51
2.60815	34.52
2.62482	34.52
2.64148	34.52
2.65815	34.52
2.67482	34.52
2.69148	34.52
2.70815	34.52
2.72482	34.52
2.74148	34.52
2.75815	34.52
2.77482	34.51
2.79148	34.52
2.80815	34.52
2.82482	34.52
2.84148	34.52
2.85815	34.52
2.87482	34.52
2.89148	34.52
2.90815	34.52
2.92482	34.52
2.94148	34.52
2.95815	34.52
2.97482	34.52
2.99148	34.52
3.00815	34.51
3.02482	34.52
3.04148	34.52
3.05815	34.52
3.07482	34.52
3.09148	34.52
3.10815	34.52
3.12482	34.52
3.14148	34.52
3.15815	34.52
3.17482	34.52
3.19148	34.52
3.20815	34.52
3.22482	34.52
3.24148	34.52
3.25815	34.52
3.27482	34.52
3.29148	34.52
3.30815	34.52
3.32482	34.51
3.34148	34.52
3.35815	34.52
3.37482	34.52
3.39148	34.51
3.40815	34.52
3.42482	34.52
3.44148	34.51
3.45815	34.51
3.47482	34.52
3.49148	34.52
3.50815	34.52
3.52482	34.53
3.54148	34.53
3.55815	34.52
3.57482	34.52
3.59148	34.52
3.60815	34.52
3.62482	34.52
3.64148	34.52
3.65815	34.52
3.67482	34.52
3.69148	34.52
3.70815	34.52
3.72482	34.52
3.74148	34.52
3.75815	34.52
3.77482	34.52
3.79148	34.52
3.80815	34.52
3.82482	34.52
3.84148	34.53
3.85815	34.52
3.87482	34.52
3.89148	34.52
3.90815	34.51
3.92482	34.52
3.94148	34.51
3.95815	34.52
3.97482	34.52
3.99148	34.52

[Status Trace (Column Flow)]
Interval(msec)	1000
# of Points	240
Start Time(min)	0.008
End Time(min)	3.991
Intensity Units	
Intensity Multiplier	1
R.Time (min)	Intensity
0.00815	5.53
0.02482	5.22
0.04148	5.44
0.05815	5.68
0.07482	5.68
0.09148	5.53
0.10815	5.53
0.12482	5.53
0.14148	5.53
0.15815	5.53
0.17482	5.53
0.19148	5.53
0.20815	5.53
0.22482	5.53
0.24148	5.53
0.25815	5.53
0.27482	5.53
0.29148	5.53
0.30815	5.53
0.32482	5.53
0.34148	5.53
0.35815	5.53
0.37482	5.53
0.39148	5.53
0.40815	5.53
0.42482	5.53
0.44148	5.53
0.45815	5.53
0.47482	5.53
0.49148	5.53
0.50815	5.53
0.52482	5.53
0.54148	5.53
0.55815	5.53
0.57482	5.53
0.59148	5.53
0.60815	5.53
0.62482	5.53
0.64148	5.53
0.65815	5.53
0.67482	5.53
0.69148	5.53
0.70815	5.53
0.72482	5.53
0.74148	5.53
0.75815	5.53
0.77482	5.53
0.79148	5.53
0.80815	5.53
0.82482	5.53
0.84148	5.53
0.85815	5.53
0.87482	5.53
0.89148	5.53
0.90815	5.53
0.92482	5.53
0.94148	5.53
0.95815	5.53
0.97482	5.53
0.99148	5.53
1.00815	5.53
1.02482	5.53
1.04148	5.53
1.05815	5.53
1.07482	5.53
1.09148	5.53
1.10815	5.53
1.12482	5.53
1.14148	5.53
1.15815	5.53
1.17482	5.53
1.19148	5.53
1.20815	5.53
1.22482	5.53
1.24148	5.53
1.25815	5.53
1.27482	5.53
1.29148	5.53
1.30815	5.53
1.32482	5.53
1.34148	5.53
1.35815	5.53
1.37482	5.53
1.39148	5.53
1.40815	5.53
1.42482	5.53
1.44148	5.53
1.45815	5.53
1.47482	5.53
1.49148	5.53
1.50815	5.53
1.52482	5.53
1.54148	5.53
1.55815	5.53
1.57482	5.53
1.59148	5.53
1.60815	5.53
1.62482	5.52
1.64148	5.52
1.65815	5.51
1.67482	5.50
1.69148	5.49
1.70815	5.48
1.72482	5.47
1.74148	5.46
1.75815	5.45
1.77482	5.44
1.79148	5.43
1.80815	5.42
1.82482	5.41
1.84148	5.40
1.85815	5.39
1.87482	5.38
1.89148	5.37
1.90815	5.36
1.92482	5.35
1.94148	5.34
1.95815	5.33
1.97482	5.32
1.99148	5.31
2.00815	5.30
2.02482	5.29
2.04148	5.28
2.05815	5.27
2.07482	5.26
2.09148	5.25
2.10815	5.24
2.12482	5.23
2.14148	5.22
2.15815	5.21
2.17482	5.20
2.19148	5.20
2.20815	5.19
2.22482	5.18
2.24148	5.17
2.25815	5.16
2.27482	5.15
2.29148	5.14
2.30815	5.13
2.32482	5.12
2.34148	5.11
2.35815	5.10
2.37482	5.10
2.39148	5.09
2.40815	5.09
2.42482	5.09
2.44148	5.09
2.45815	5.09
2.47482	5.09
2.49148	5.09
2.50815	5.09
2.52482	5.09
2.54148	5.09
2.55815	5.09
2.57482	5.09
2.59148	5.09
2.60815	5.09
2.62482	5.09
2.64148	5.09
2.65815	5.09
2.67482	5.09
2.69148	5.09
2.70815	5.09
2.72482	5.09
2.74148	5.09
2.75815	5.09
2.77482	5.09
2.79148	5.09
2.80815	5.09
2.82482	5.09
2.84148	5.09
2.85815	5.09
2.87482	5.09
2.89148	5.09
2.90815	5.09
2.92482	5.09
2.94148	5.09
2.95815	5.09
2.97482	5.09
2.99148	5.09
3.00815	5.09
3.02482	5.09
3.04148	5.09
3.05815	5.09
3.07482	5.09
3.09148	5.09
3.10815	5.09
3.12482	5.09
3.14148	5.09
3.15815	5.09
3.17482	5.09
3.19148	5.09
3.20815	5.09
3.22482	5.09
3.24148	5.09
3.25815	5.09
3.27482	5.09
3.29148	5.09
3.30815	5.09
3.32482	5.09
3.34148	5.09
3.35815	5.09
3.37482	5.09
3.39148	5.08
3.40815	5.08
3.42482	5.08
3.44148	5.08
3.45815	5.08
3.47482	5.08
3.49148	5.08
3.50815	5.09
3.52482	5.09
3.54148	5.09
3.55815	5.09
3.57482	5.09
3.59148	5.09
3.60815	5.09
3.62482	5.09
3.64148	5.09
3.65815	5.09
3.67482	5.09
3.69148	5.09
3.70815	5.09
3.72482	5.09
3.74148	5.09
3.75815	5.09
3.77482	5.09
3.79148	5.09
3.80815	5.09
3.82482	5.09
3.84148	5.09
3.85815	5.09
3.87482	5.09
3.89148	5.09
3.90815	5.09
3.92482	5.09
3.94148	5.09
3.95815	5.09
3.97482	5.09
3.99148	5.09

[Status Trace (Linear Velocity)]
Interval(msec)	1000
# of Points	240
Start Time(min)	0.008
End Time(min)	3.991
Intensity Units	
Intensity Multiplier	1
R.Time (min)	Intensity
0.00815	39.01
0.02482	37.27
0.04148	38.51
0.05815	39.88
0.07482	39.84
0.09148	39.03
0.10815	39.00
0.12482	39.02
0.14148	39.02
0.15815	39.01
0.17482	39.01
0.19148	39.01
0.20815	39.01
0.22482	39.01
0.24148	39.02
0.25815	39.02
0.27482	39.02
0.29148	39.02
0.30815	39.02
0.32482	39.02
0.34148	39.02
0.35815	39.02
0.37482	39.02
0.39148	39.02
0.40815	39.02
0.42482	39.02
0.44148	39.02
0.45815	39.02
0.47482	39.02
0.49148	39.02
0.50815	39.02
0.52482	39.02
0.54148	39.02
0.55815	39.02
0.57482	39.02
0.59148	39.02
0.60815	39.02
0.62482	39.02
0.64148	39.02
0.65815	39.02
0.67482	39.02
0.69148	39.02
0.70815	39.02
0.72482	39.02
0.74148	39.02
0.75815	39.02
0.77482	39.02
0.79148	39.02
0.80815	39.02
0.82482	39.02
0.84148	39.02
0.85815	39.02
0.87482	39.02
0.89148	39.02
0.90815	39.02
0.92482	39.02
0.94148	39.02
0.95815	39.02
0.97482	39.02
0.99148	39.02
1.00815	39.02
1.02482	39.02
1.04148	39.02
1.05815	39.02
1.07482	39.02
1.09148	39.02
1.10815	39.02
1.12482	39.02
1.14148	39.02
1.15815	39.02
1.17482	39.02
1.19148	39.02
1.20815	39.02
1.22482	39.02
1.24148	39.02
1.25815	39.02
1.27482	39.02
1.29148	39.02
1.30815	39.02
1.32482	39.02
1.34148	39.02
1.35815	39.02
1.37482	39.02
1.39148	39.02
1.40815	39.02
1.42482	39.02
1.44148	39.02
1.45815	39.02
1.47482	39.02
1.49148	39.02
1.50815	39.02
1.52482	39.02
1.54148	39.02
1.55815	39.02
1.57482	39.02
1.59148	39.02
1.60815	39.01
1.62482	39.00
1.64148	38.98
1.65815	38.96
1.67482	38.93
1.69148	38.90
1.70815	38.86
1.72482	38.83
1.74148	38.80
1.75815	38.76
1.77482	38.73
1.79148	38.70
1.80815	38.67
1.82482	38.64
1.84148	38.61
1.85815	38.58
1.87482	38.55
1.89148	38.51
1.90815	38.48
1.92482	38.45
1.94148	38.42
1.95815	38.39
1.97482	38.36
1.99148	38.33
2.00815	38.30
2.02482	38.27
2.04148	38.24
2.05815	38.21
2.07482	38.18
2.09148	38.15
2.10815	38.12
2.12482	38.09
2.14148	38.06
2.15815	38.04
2.17482	38.01
2.19148	37.98
2.20815	37.95
2.22482	37.92
2.24148	37.89
2.25815	37.86
2.27482	37.83
2.29148	37.80
2.30815	37.77
2.32482	37.74
2.34148	37.71
2.35815	37.68
2.37482	37.66
2.39148	37.65
2.40815	37.66
2.42482	37.66
2.44148	37.66
2.45815	37.66
2.47482	37.66
2.49148	37.66
2.50815	37.65
2.52482	37.65
2.54148	37.66
2.55815	37.66
2.57482	37.65
2.59148	37.65
2.60815	37.65
2.62482	37.65
2.64148	37.65
2.65815	37.65
2.67482	37.65
2.69148	37.65
2.70815	37.65
2.72482	37.65
2.74148	37.65
2.75815	37.65
2.77482	37.65
2.79148	37.65
2.80815	37.65
2.82482	37.65
2.84148	37.65
2.85815	37.65
2.87482	37.65
2.89148	37.65
2.90815	37.65
2.92482	37.65
2.94148	37.65
2.95815	37.64
2.97482	37.64
2.99148	37.64
3.00815	37.64
3.02482	37.64
3.04148	37.64
3.05815	37.64
3.07482	37.64
3.09148	37.64
3.10815	37.64
3.12482	37.64
3.14148	37.64
3.15815	37.63
3.17482	37.63
3.19148	37.63
3.20815	37.63
3.22482	37.63
3.24148	37.63
3.25815	37.63
3.27482	37.63
3.29148	37.63
3.30815	37.63
3.32482	37.63
3.34148	37.63
3.35815	37.63
3.37482	37.63
3.39148	37.63
3.40815	37.63
3.42482	37.63
3.44148	37.63
3.45815	37.63
3.47482	37.63
3.49148	37.63
3.50815	37.63
3.52482	37.63
3.54148	37.63
3.55815	37.63
3.57482	37.63
3.59148	37.63
3.60815	37.63
3.62482	37.63
3.64148	37.63
3.65815	37.63
3.67482	37.63
3.69148	37.63
3.70815	37.63
3.72482	37.63
3.74148	37.63
3.75815	37.63
3.77482	37.63
3.79148	37.63
3.80815	37.63
3.82482	37.63
3.84148	37.63
3.85815	37.63
3.87482	37.63
3.89148	37.63
3.90815	37.63
3.92482	37.63
3.94148	37.63
3.95815	37.63
3.97482	37.63
3.99148	37.63

