[Header]
Application Name	LabSolutions
Version	5.110
Data File Name	C:\Users\User\Desktop\Junior\UIC Prairie Sampling\5.18.23\05182023_005.gcd
Output Date	6/5/2023
Output Time	2:17:24 PM

[File Information]
Type	Data File
Generated	5/24/2023 12:09:02 PM
Generated by	System Administrator
Modified	5/24/2023 12:16:08 PM
Modified by	System Administrator

[Sample Information]
Operator Name	System Administrator
Acquired	5/24/2023 12:12:06 PM
Sample Type	0:Unknown
Level	0
Sample Name	005
Sample ID	005
ISTD Amount1	1
ISTD Amount2	1
ISTD Amount3	1
ISTD Amount4	1
ISTD Amount5	1
ISTD Amount6	1
ISTD Amount7	1
ISTD Amount8	1
ISTD Amount9	1
ISTD Amount10	1
ISTD Amount11	1
ISTD Amount12	1
ISTD Amount13	1
ISTD Amount14	1
ISTD Amount15	1
ISTD Amount16	1
ISTD Amount17	1
ISTD Amount18	1
ISTD Amount19	1
ISTD Amount20	1
ISTD Amount21	1
ISTD Amount22	1
ISTD Amount23	1
ISTD Amount24	1
ISTD Amount25	1
ISTD Amount26	1
ISTD Amount27	1
ISTD Amount28	1
ISTD Amount29	1
ISTD Amount30	1
ISTD Amount31	1
ISTD Amount32	1
Sample Amount	1
Dilution Factor	1
Vial#	4
Injection Volume	1
Injection Count	1
Bar Code	

[Original Files]
Data File	C:\Users\User\Desktop\Junior\UIC Prairie Sampling\5.18.23\05182023_005.gcd
Method File	C:\LabSolutions\Data\GHG_4min_2022\ghg3_togas_w_acet_4 min_new_int.gcm
Batch File	C:\LabSolutions\Data\AutoSamplerTesting\05182023.gcb
Report Format File	c:\LabSolutions\System\DEFAULT.lsr

[File Description]


[Configuration]
Instrument Name	C0B7VH3-Instrument1
Instrument #	1
Line #	1
# of Detectors	3
Detector ID	DET#1	DET#2	DET#3
Detector Name	FID	PTCD	ECD
# of Channels	1	1	1

[Peak Table(Ch1)]
# of Peaks	3
Peak#	R.Time	I.Time	F.Time	Area	Height	A/H	Conc.	Mark	ID#	Name	k'	Plate #	Plate Ht.	Tailing	Resolution	Sep.Factor	Area Ratio	Height Ratio	Conc. %	Norm Conc.
1	1.479	1.457	1.512	497	309	1.608	0.000	   	1	CO	0.000	14574	10.293	1.236	0.000	0.000	0	0	0.000	0.000
2	1.564	1.531	1.626	18099	9235	1.960	88.238	   	2	CH4	0.057	11523	13.017	1.157	1.572	0.000	0	0	19.068	19.068
3	1.989	1.941	2.499	1943306	926863	2.097	374.511	   	3	CO2	0.345	17322	8.660	1.317	7.166	6.043	0	0	80.932	80.932

[Peak Table(Ch2)]
# of Peaks	0

[Peak Table(Ch3)]
# of Peaks	5
Peak#	R.Time	I.Time	F.Time	Area	Height	A/H	Conc.	Mark	ID#	Name	k'	Plate #	Plate Ht.	Tailing	Resolution	Sep.Factor	Area Ratio	Height Ratio	Conc. %	Norm Conc.
1	2.458	2.440	2.499	683	279	2.451	0.000	   			0.000	16078	9.329	0.000	0.000	0.000	0	0	0.000	0.000
2	2.513	2.499	2.565	410	150	2.728	0.000	 V 			0.022	5442	27.565	0.000	0.514	0.000	0	0	0.000	0.000
3	2.612	2.565	2.667	450	126	3.580	0.000	 V 			0.063	9381	15.989	0.000	0.811	2.800	0	0	0.000	0.000
4	2.891	2.821	3.071	49998	13229	3.779	0.740	   	1	N2O	0.176	13079	11.469	1.554	2.667	2.810	0	0	100.000	100.000
5	3.199	3.074	3.936	9315	349	26.705	0.000	   	2	SF6	0.301	332	451.265	3.474	0.767	1.712	0	0	0.000	0.000

[Compound Results(Ch1)]
# of IDs	6
ID#	Name	R.Time	Area	Height	Conc.	Curve	3rd	2nd	1st	Constant	Area Ratio	Height Ratio	Conc. %	Norm Conc.
1	CO	1.479	497	309	0.000	Linear	0.000000e+00	0.000000e+00	0.000000e+00	0.000000e+00	0	0	0.000	0.000
2	CH4	1.564	18099	9235	88.238	Linear	0.000000e+00	0.000000e+00	2.051179e+002	0.000000e+00	0	0	19.068	19.068
3	CO2	1.989	1943306	926863	374.511	Linear	0.000000e+00	0.000000e+00	5.188919e+003	0.000000e+00	0	0	80.932	80.932
4	Ethylene	0.000	0	0	0.000	Linear	0.000000e+00	0.000000e+00	0.000000e+00	0.000000e+00	0	0	0.000	0.000
5	Acetylene	0.000	0	0	0.000	Linear	0.000000e+00	0.000000e+00	0.000000e+00	0.000000e+00	0	0	0.000	0.000
6	Ethane	0.000	0	0	0.000	Linear	0.000000e+00	0.000000e+00	0.000000e+00	0.000000e+00	0	0	0.000	0.000

[Compound Results(Ch2)]
# of IDs	5
ID#	Name	R.Time	Area	Height	Conc.	Curve	3rd	2nd	1st	Constant	Area Ratio	Height Ratio	Conc. %	Norm Conc.
1	Hydrogen	0.000	0	0	0.000	Linear	0.000000e+00	0.000000e+00	0.000000e+00	0.000000e+00	0	0	0.000	0.000
2	Oxygen	0.000	0	0	0.000	Linear	0.000000e+00	0.000000e+00	0.000000e+00	0.000000e+00	0	0	0.000	0.000
3	Nitrogen	0.000	0	0	0.000	Linear	0.000000e+00	0.000000e+00	0.000000e+00	0.000000e+00	0	0	0.000	0.000
4	Methane	0.000	0	0	0.000	Linear	0.000000e+00	0.000000e+00	0.000000e+00	0.000000e+00	0	0	0.000	0.000
5	Carbon Monoxide	0.000	0	0	0.000	Linear	0.000000e+00	0.000000e+00	0.000000e+00	0.000000e+00	0	0	0.000	0.000

[Compound Results(Ch3)]
# of IDs	2
ID#	Name	R.Time	Area	Height	Conc.	Curve	3rd	2nd	1st	Constant	Area Ratio	Height Ratio	Conc. %	Norm Conc.
1	N2O	2.891	49998	13229	0.740	Linear	0.000000e+00	0.000000e+00	6.759880e+004	0.000000e+00	0	0	100.000	100.000
2	SF6	3.199	9315	349	0.000	Linear	0.000000e+00	0.000000e+00	0.000000e+00	0.000000e+00	0	0	0.000	0.000

[Group Results(Ch1)]
# of Groups	0

[Group Results(Ch2)]
# of Groups	0

[Group Results(Ch3)]
# of Groups	0

[Chromatogram (Ch1)]
Interval(msec)	220
# of Points	1091
Start Time(min)	0.002
End Time(min)	3.998
R.Time (min)	Intensity
0.00167	-5
0.00533	-9
0.00900	-9
0.01267	-8
0.01633	-6
0.02000	-3
0.02367	-1
0.02733	-0
0.03100	-3
0.03467	-6
0.03833	-5
0.04200	-2
0.04567	-0
0.04933	-3
0.05300	-9
0.05667	-10
0.06033	-10
0.06400	-14
0.06767	-15
0.07133	-15
0.07500	-15
0.07867	-15
0.08233	-14
0.08600	-10
0.08967	-7
0.09333	-6
0.09700	-6
0.10067	-8
0.10433	-9
0.10800	-8
0.11167	-3
0.11533	2
0.11900	5
0.12267	4
0.12633	1
0.13000	-5
0.13367	-14
0.13733	-17
0.14100	-20
0.14467	-23
0.14833	-21
0.15200	-16
0.15567	-11
0.15933	-11
0.16300	-11
0.16667	-10
0.17033	-9
0.17400	-5
0.17767	-4
0.18133	-3
0.18500	1
0.18867	7
0.19233	10
0.19600	9
0.19967	6
0.20333	7
0.20700	11
0.21067	12
0.21433	8
0.21800	-3
0.22167	-15
0.22533	-22
0.22900	-25
0.23267	-24
0.23633	-16
0.24000	-9
0.24367	-5
0.24733	-3
0.25100	-2
0.25467	1
0.25833	1
0.26200	-4
0.26567	-7
0.26933	-6
0.27300	-3
0.27667	2
0.28033	6
0.28400	10
0.28767	14
0.29133	13
0.29500	7
0.29867	-2
0.30233	-11
0.30600	-16
0.30967	-16
0.31333	-13
0.31700	-11
0.32067	-9
0.32433	-5
0.32800	-1
0.33167	-0
0.33533	-0
0.33900	-2
0.34267	-2
0.34633	0
0.35000	2
0.35367	1
0.35733	-1
0.36100	-2
0.36467	-3
0.36833	-5
0.37200	-6
0.37567	-12
0.37933	-22
0.38300	-27
0.38667	-24
0.39033	-17
0.39400	-9
0.39767	-4
0.40133	-3
0.40500	-5
0.40867	-5
0.41233	-6
0.41600	-9
0.41967	-9
0.42333	-6
0.42700	-4
0.43067	-9
0.43433	-18
0.43800	-25
0.44167	-30
0.44533	-34
0.44900	-35
0.45267	-32
0.45633	-25
0.46000	-17
0.46367	-10
0.46733	-6
0.47100	-3
0.47467	-2
0.47833	-1
0.48200	0
0.48567	1
0.48933	-1
0.49300	-7
0.49667	-11
0.50033	-14
0.50400	-12
0.50767	-8
0.51133	-4
0.51500	-4
0.51867	-7
0.52233	-11
0.52600	-13
0.52967	-13
0.53333	-13
0.53700	-17
0.54067	-25
0.54433	-35
0.54800	-39
0.55167	-40
0.55533	-41
0.55900	-42
0.56267	-39
0.56633	-34
0.57000	-25
0.57367	-16
0.57733	-8
0.58100	-1
0.58467	5
0.58833	9
0.59200	11
0.59567	9
0.59933	9
0.60300	9
0.60667	7
0.61033	0
0.61400	-8
0.61767	-17
0.62133	-26
0.62500	-34
0.62867	-40
0.63233	-44
0.63600	-43
0.63967	-38
0.64333	-31
0.64700	-22
0.65067	-13
0.65433	-7
0.65800	-4
0.66167	-5
0.66533	-10
0.66900	-18
0.67267	-22
0.67633	-21
0.68000	-16
0.68367	-13
0.68733	-12
0.69100	-12
0.69467	-8
0.69833	-6
0.70200	-7
0.70567	-7
0.70933	-5
0.71300	-6
0.71667	-11
0.72033	-21
0.72400	-30
0.72767	-38
0.73133	-44
0.73500	-45
0.73867	-44
0.74233	-44
0.74600	-43
0.74967	-41
0.75333	-39
0.75700	-38
0.76067	-36
0.76433	-32
0.76800	-24
0.77167	-17
0.77533	-15
0.77900	-17
0.78267	-15
0.78633	-10
0.79000	-8
0.79367	-10
0.79733	-13
0.80100	-19
0.80467	-26
0.80833	-35
0.81200	-46
0.81567	-58
0.81933	-68
0.82300	-72
0.82667	-71
0.83033	-70
0.83400	-71
0.83767	-71
0.84133	-68
0.84500	-59
0.84867	-51
0.85233	-44
0.85600	-35
0.85967	-28
0.86333	-26
0.86700	-25
0.87067	-22
0.87433	-21
0.87800	-25
0.88167	-30
0.88533	-39
0.88900	-46
0.89267	-47
0.89633	-45
0.90000	-40
0.90367	-33
0.90733	-29
0.91100	-26
0.91467	-23
0.91833	-18
0.92200	-14
0.92567	-12
0.92933	-12
0.93300	-12
0.93667	-14
0.94033	-16
0.94400	-18
0.94767	-19
0.95133	-21
0.95500	-26
0.95867	-27
0.96233	-21
0.96600	-14
0.96967	-9
0.97333	-6
0.97700	-5
0.98067	-9
0.98433	-17
0.98800	-27
0.99167	-30
0.99533	-30
0.99900	-30
1.00267	-32
1.00633	-31
1.01000	-27
1.01367	-22
1.01733	-18
1.02100	-18
1.02467	-21
1.02833	-24
1.03200	-26
1.03567	-32
1.03933	-37
1.04300	-38
1.04667	-38
1.05033	-34
1.05400	-27
1.05767	-17
1.06133	-7
1.06500	-1
1.06867	-6
1.07233	-16
1.07600	-26
1.07967	-29
1.08333	-26
1.08700	-22
1.09067	-17
1.09433	-13
1.09800	-8
1.10167	-5
1.10533	-6
1.10900	-10
1.11267	-15
1.11633	-13
1.12000	-8
1.12367	-2
1.12733	-1
1.13100	-7
1.13467	-21
1.13833	-35
1.14200	-43
1.14567	-45
1.14933	-45
1.15300	-47
1.15667	-49
1.16033	-49
1.16400	-45
1.16767	-38
1.17133	-30
1.17500	-22
1.17867	-17
1.18233	-21
1.18600	-30
1.18967	-36
1.19333	-36
1.19700	-30
1.20067	-27
1.20433	-25
1.20800	-25
1.21167	-24
1.21533	-21
1.21900	-13
1.22267	-8
1.22633	-11
1.23000	-17
1.23367	-19
1.23733	-20
1.24100	-22
1.24467	-26
1.24833	-30
1.25200	-33
1.25567	-38
1.25933	-40
1.26300	-38
1.26667	-31
1.27033	-22
1.27400	-17
1.27767	-14
1.28133	-12
1.28500	-14
1.28867	-23
1.29233	-33
1.29600	-43
1.29967	-50
1.30333	-53
1.30700	-50
1.31067	-43
1.31433	-40
1.31800	-38
1.32167	-39
1.32533	-43
1.32900	-47
1.33267	-49
1.33633	-49
1.34000	-51
1.34367	-51
1.34733	-48
1.35100	-44
1.35467	-39
1.35833	-35
1.36200	-29
1.36567	-25
1.36933	-22
1.37300	-20
1.37667	-18
1.38033	-16
1.38400	-17
1.38767	-22
1.39133	-24
1.39500	-23
1.39867	-19
1.40233	-17
1.40600	-19
1.40967	-24
1.41333	-34
1.41700	-43
1.42067	-48
1.42433	-50
1.42800	-50
1.43167	-43
1.43533	-30
1.43900	-7
1.44267	7
1.44633	-12
1.45000	-34
1.45367	-29
1.45733	-5
1.46100	30
1.46467	81
1.46833	150
1.47200	223
1.47567	275
1.47933	293
1.48300	273
1.48667	229
1.49033	176
1.49400	125
1.49767	80
1.50133	46
1.50500	18
1.50867	-12
1.51233	-34
1.51600	-44
1.51967	-49
1.52333	-53
1.52700	-50
1.53067	-20
1.53433	146
1.53800	691
1.54167	1831
1.54533	3488
1.54900	5307
1.55267	6946
1.55633	8213
1.56000	9006
1.56367	9215
1.56733	8738
1.57100	7632
1.57467	6166
1.57833	4661
1.58200	3342
1.58567	2303
1.58933	1536
1.59300	995
1.59667	630
1.60033	394
1.60400	244
1.60767	150
1.61133	88
1.61500	43
1.61867	12
1.62233	-9
1.62600	-20
1.62967	-26
1.63333	-27
1.63700	-29
1.64067	-36
1.64433	-46
1.64800	-53
1.65167	-57
1.65533	-58
1.65900	-59
1.66267	-58
1.66633	-55
1.67000	-48
1.67367	-38
1.67733	-33
1.68100	-34
1.68467	-40
1.68833	-48
1.69200	-60
1.69567	-72
1.69933	-82
1.70300	-88
1.70667	-93
1.71033	-96
1.71400	-94
1.71767	-89
1.72133	-82
1.72500	-73
1.72867	-68
1.73233	-62
1.73600	-52
1.73967	-43
1.74333	-42
1.74700	-49
1.75067	-59
1.75433	-67
1.75800	-73
1.76167	-76
1.76533	-72
1.76900	-64
1.77267	-57
1.77633	-55
1.78000	-55
1.78367	-53
1.78733	-50
1.79100	-49
1.79467	-52
1.79833	-58
1.80200	-64
1.80567	-66
1.80933	-66
1.81300	-65
1.81667	-63
1.82033	-62
1.82400	-63
1.82767	-66
1.83133	-71
1.83500	-72
1.83867	-69
1.84233	-63
1.84600	-58
1.84967	-53
1.85333	-49
1.85700	-46
1.86067	-45
1.86433	-46
1.86800	-50
1.87167	-56
1.87533	-62
1.87900	-64
1.88267	-63
1.88633	-61
1.89000	-60
1.89367	-61
1.89733	-63
1.90100	-62
1.90467	-60
1.90833	-57
1.91200	-56
1.91567	-56
1.91933	-57
1.92300	-57
1.92667	-60
1.93033	-62
1.93400	-62
1.93767	-59
1.94133	-53
1.94500	-34
1.94867	85
1.95233	809
1.95600	4299
1.95967	16960
1.96333	51891
1.96700	126203
1.97067	249616
1.97433	413021
1.97800	590494
1.98167	750974
1.98533	868689
1.98900	926843
1.99267	918412
1.99633	848351
2.00000	733074
2.00367	595825
2.00733	459286
2.01100	339339
2.01467	243077
2.01833	170721
2.02200	118780
2.02567	82639
2.02933	57989
2.03300	41353
2.03667	30156
2.04033	22579
2.04400	17395
2.04767	13791
2.05133	11235
2.05500	9383
2.05867	8011
2.06233	6968
2.06600	6154
2.06967	5505
2.07333	4977
2.07700	4536
2.08067	4157
2.08433	3830
2.08800	3542
2.09167	3291
2.09533	3073
2.09900	2882
2.10267	2709
2.10633	2551
2.11000	2404
2.11367	2277
2.11733	2170
2.12100	2072
2.12467	1978
2.12833	1891
2.13200	1808
2.13567	1727
2.13933	1652
2.14300	1584
2.14667	1524
2.15033	1466
2.15400	1410
2.15767	1356
2.16133	1305
2.16500	1262
2.16867	1223
2.17233	1184
2.17600	1144
2.17967	1108
2.18333	1079
2.18700	1057
2.19067	1032
2.19433	1000
2.19800	967
2.20167	935
2.20533	905
2.20900	882
2.21267	864
2.21633	845
2.22000	822
2.22367	798
2.22733	776
2.23100	757
2.23467	739
2.23833	726
2.24200	715
2.24567	701
2.24933	686
2.25300	669
2.25667	655
2.26033	642
2.26400	629
2.26767	616
2.27133	603
2.27500	595
2.27867	589
2.28233	583
2.28600	581
2.28967	581
2.29333	584
2.29700	582
2.30067	569
2.30433	546
2.30800	522
2.31167	504
2.31533	493
2.31900	486
2.32267	482
2.32633	478
2.33000	472
2.33367	466
2.33733	457
2.34100	451
2.34467	448
2.34833	445
2.35200	442
2.35567	440
2.35933	434
2.36300	423
2.36667	413
2.37033	407
2.37400	405
2.37767	406
2.38133	406
2.38500	403
2.38867	396
2.39233	391
2.39600	389
2.39967	387
2.40333	385
2.40700	384
2.41067	383
2.41433	380
2.41800	372
2.42167	364
2.42533	358
2.42900	355
2.43267	353
2.43633	356
2.44000	360
2.44367	363
2.44733	362
2.45100	356
2.45467	348
2.45833	341
2.46200	338
2.46567	342
2.46933	345
2.47300	344
2.47667	341
2.48033	340
2.48400	337
2.48767	334
2.49133	332
2.49500	329
2.49867	327
2.50233	329
2.50600	330
2.50967	333
2.51333	336
2.51700	339
2.52067	339
2.52433	336
2.52800	329
2.53167	319
2.53533	312
2.53900	312
2.54267	318
2.54633	323
2.55000	326
2.55367	324
2.55733	319
2.56100	313
2.56467	310
2.56833	311
2.57200	314
2.57567	313
2.57933	308
2.58300	305
2.58667	305
2.59033	308
2.59400	312
2.59767	313
2.60133	309
2.60500	304
2.60867	303
2.61233	305
2.61600	312
2.61967	322
2.62333	327
2.62700	324
2.63067	316
2.63433	308
2.63800	304
2.64167	303
2.64533	306
2.64900	308
2.65267	309
2.65633	311
2.66000	311
2.66367	310
2.66733	311
2.67100	318
2.67467	325
2.67833	330
2.68200	332
2.68567	330
2.68933	326
2.69300	322
2.69667	320
2.70033	319
2.70400	317
2.70767	313
2.71133	311
2.71500	311
2.71867	311
2.72233	312
2.72600	312
2.72967	314
2.73333	314
2.73700	312
2.74067	310
2.74433	308
2.74800	312
2.75167	318
2.75533	323
2.75900	328
2.76267	329
2.76633	328
2.77000	326
2.77367	321
2.77733	320
2.78100	318
2.78467	319
2.78833	323
2.79200	329
2.79567	329
2.79933	323
2.80300	320
2.80667	319
2.81033	314
2.81400	312
2.81767	317
2.82133	325
2.82500	333
2.82867	336
2.83233	335
2.83600	333
2.83967	333
2.84333	332
2.84700	328
2.85067	324
2.85433	323
2.85800	324
2.86167	331
2.86533	344
2.86900	356
2.87267	365
2.87633	369
2.88000	366
2.88367	358
2.88733	347
2.89100	339
2.89467	336
2.89833	337
2.90200	339
2.90567	341
2.90933	341
2.91300	341
2.91667	340
2.92033	339
2.92400	340
2.92767	343
2.93133	349
2.93500	355
2.93867	358
2.94233	356
2.94600	353
2.94967	351
2.95333	352
2.95700	353
2.96067	359
2.96433	364
2.96800	367
2.97167	369
2.97533	370
2.97900	373
2.98267	374
2.98633	370
2.99000	363
2.99367	357
2.99733	353
3.00100	349
3.00467	347
3.00833	345
3.01200	344
3.01567	346
3.01933	346
3.02300	346
3.02667	345
3.03033	345
3.03400	343
3.03767	341
3.04133	342
3.04500	347
3.04867	350
3.05233	351
3.05600	352
3.05967	354
3.06333	355
3.06700	355
3.07067	354
3.07433	357
3.07800	358
3.08167	357
3.08533	359
3.08900	361
3.09267	361
3.09633	362
3.10000	364
3.10367	367
3.10733	372
3.11100	370
3.11467	362
3.11833	356
3.12200	356
3.12567	360
3.12933	362
3.13300	363
3.13667	362
3.14033	358
3.14400	358
3.14767	361
3.15133	362
3.15500	358
3.15867	351
3.16233	343
3.16600	336
3.16967	331
3.17333	335
3.17700	341
3.18067	343
3.18433	344
3.18800	346
3.19167	350
3.19533	358
3.19900	366
3.20267	367
3.20633	365
3.21000	361
3.21367	358
3.21733	358
3.22100	359
3.22467	361
3.22833	360
3.23200	355
3.23567	351
3.23933	350
3.24300	355
3.24667	360
3.25033	363
3.25400	361
3.25767	352
3.26133	343
3.26500	338
3.26867	336
3.27233	338
3.27600	341
3.27967	344
3.28333	347
3.28700	353
3.29067	362
3.29433	368
3.29800	372
3.30167	373
3.30533	372
3.30900	362
3.31267	345
3.31633	330
3.32000	321
3.32367	316
3.32733	316
3.33100	321
3.33467	327
3.33833	330
3.34200	333
3.34567	337
3.34933	343
3.35300	343
3.35667	341
3.36033	340
3.36400	340
3.36767	338
3.37133	337
3.37500	338
3.37867	336
3.38233	334
3.38600	334
3.38967	336
3.39333	342
3.39700	347
3.40067	349
3.40433	349
3.40800	349
3.41167	347
3.41533	342
3.41900	337
3.42267	333
3.42633	335
3.43000	339
3.43367	340
3.43733	335
3.44100	327
3.44467	319
3.44833	316
3.45200	319
3.45567	325
3.45933	328
3.46300	329
3.46667	327
3.47033	327
3.47400	332
3.47767	336
3.48133	336
3.48500	338
3.48867	341
3.49233	344
3.49600	345
3.49967	342
3.50333	337
3.50700	331
3.51067	323
3.51433	318
3.51800	320
3.52167	324
3.52533	323
3.52900	315
3.53267	309
3.53633	304
3.54000	302
3.54367	298
3.54733	298
3.55100	299
3.55467	298
3.55833	297
3.56200	297
3.56567	298
3.56933	301
3.57300	303
3.57667	305
3.58033	305
3.58400	303
3.58767	301
3.59133	305
3.59500	311
3.59867	317
3.60233	323
3.60600	327
3.60967	324
3.61333	318
3.61700	312
3.62067	306
3.62433	300
3.62800	295
3.63167	291
3.63533	288
3.63900	289
3.64267	292
3.64633	297
3.65000	298
3.65367	298
3.65733	300
3.66100	302
3.66467	301
3.66833	296
3.67200	296
3.67567	301
3.67933	305
3.68300	306
3.68667	308
3.69033	308
3.69400	304
3.69767	303
3.70133	299
3.70500	291
3.70867	285
3.71233	284
3.71600	286
3.71967	291
3.72333	292
3.72700	288
3.73067	287
3.73433	294
3.73800	300
3.74167	305
3.74533	306
3.74900	309
3.75267	313
3.75633	312
3.76000	303
3.76367	292
3.76733	284
3.77100	275
3.77467	270
3.77833	270
3.78200	269
3.78567	269
3.78933	268
3.79300	268
3.79667	268
3.80033	271
3.80400	274
3.80767	278
3.81133	284
3.81500	290
3.81867	293
3.82233	292
3.82600	288
3.82967	281
3.83333	273
3.83700	268
3.84067	266
3.84433	268
3.84800	273
3.85167	278
3.85533	282
3.85900	284
3.86267	283
3.86633	278
3.87000	273
3.87367	271
3.87733	269
3.88100	269
3.88467	269
3.88833	269
3.89200	268
3.89567	264
3.89933	259
3.90300	255
3.90667	253
3.91033	255
3.91400	258
3.91767	260
3.92133	263
3.92500	270
3.92867	280
3.93233	286
3.93600	286
3.93967	282
3.94333	279
3.94700	275
3.95067	264
3.95433	252
3.95800	244
3.96167	240
3.96533	239
3.96900	241
3.97267	243
3.97633	249
3.98000	256
3.98367	259
3.98733	258
3.99100	253
3.99467	245
3.99833	240

[Chromatogram (Ch2)]
Interval(msec)	220
# of Points	1091
Start Time(min)	0.002
End Time(min)	3.998
R.Time (min)	Intensity
0.00167	0
0.00533	0
0.00900	0
0.01267	0
0.01633	0
0.02000	0
0.02367	0
0.02733	0
0.03100	0
0.03467	0
0.03833	0
0.04200	-0
0.04567	-0
0.04933	-0
0.05300	-0
0.05667	-1
0.06033	-1
0.06400	-1
0.06767	-1
0.07133	-1
0.07500	-1
0.07867	-1
0.08233	-1
0.08600	-2
0.08967	-2
0.09333	-1
0.09700	-1
0.10067	-0
0.10433	0
0.10800	0
0.11167	0
0.11533	0
0.11900	0
0.12267	0
0.12633	1
0.13000	1
0.13367	1
0.13733	1
0.14100	1
0.14467	1
0.14833	1
0.15200	1
0.15567	1
0.15933	1
0.16300	1
0.16667	1
0.17033	1
0.17400	1
0.17767	1
0.18133	1
0.18500	1
0.18867	1
0.19233	1
0.19600	1
0.19967	1
0.20333	1
0.20700	1
0.21067	1
0.21433	1
0.21800	2
0.22167	2
0.22533	2
0.22900	2
0.23267	2
0.23633	2
0.24000	2
0.24367	2
0.24733	3
0.25100	3
0.25467	3
0.25833	3
0.26200	3
0.26567	3
0.26933	3
0.27300	3
0.27667	4
0.28033	4
0.28400	4
0.28767	3
0.29133	3
0.29500	3
0.29867	3
0.30233	3
0.30600	3
0.30967	2
0.31333	2
0.31700	2
0.32067	1
0.32433	1
0.32800	1
0.33167	0
0.33533	0
0.33900	0
0.34267	1
0.34633	1
0.35000	1
0.35367	1
0.35733	1
0.36100	1
0.36467	1
0.36833	1
0.37200	1
0.37567	1
0.37933	1
0.38300	1
0.38667	1
0.39033	1
0.39400	1
0.39767	1
0.40133	1
0.40500	1
0.40867	1
0.41233	1
0.41600	1
0.41967	1
0.42333	1
0.42700	1
0.43067	1
0.43433	1
0.43800	1
0.44167	1
0.44533	1
0.44900	1
0.45267	1
0.45633	0
0.46000	0
0.46367	-0
0.46733	-0
0.47100	-0
0.47467	-0
0.47833	-0
0.48200	0
0.48567	0
0.48933	1
0.49300	1
0.49667	1
0.50033	1
0.50400	1
0.50767	0
0.51133	-0
0.51500	-0
0.51867	-0
0.52233	-1
0.52600	-1
0.52967	-1
0.53333	-1
0.53700	-1
0.54067	-1
0.54433	-2
0.54800	-2
0.55167	-3
0.55533	-3
0.55900	-3
0.56267	-3
0.56633	-3
0.57000	-3
0.57367	-3
0.57733	-3
0.58100	-2
0.58467	-2
0.58833	-2
0.59200	-1
0.59567	-1
0.59933	-1
0.60300	-0
0.60667	-0
0.61033	0
0.61400	0
0.61767	0
0.62133	0
0.62500	1
0.62867	1
0.63233	1
0.63600	1
0.63967	1
0.64333	1
0.64700	1
0.65067	1
0.65433	1
0.65800	1
0.66167	1
0.66533	1
0.66900	0
0.67267	0
0.67633	0
0.68000	-0
0.68367	-0
0.68733	-1
0.69100	-1
0.69467	-1
0.69833	-1
0.70200	-2
0.70567	-2
0.70933	-2
0.71300	-2
0.71667	-2
0.72033	-2
0.72400	-2
0.72767	-2
0.73133	-2
0.73500	-2
0.73867	-1
0.74233	-1
0.74600	-1
0.74967	-0
0.75333	-0
0.75700	0
0.76067	0
0.76433	0
0.76800	1
0.77167	1
0.77533	1
0.77900	1
0.78267	1
0.78633	1
0.79000	1
0.79367	1
0.79733	1
0.80100	1
0.80467	1
0.80833	1
0.81200	1
0.81567	1
0.81933	1
0.82300	1
0.82667	1
0.83033	1
0.83400	1
0.83767	1
0.84133	1
0.84500	1
0.84867	1
0.85233	1
0.85600	0
0.85967	1
0.86333	0
0.86700	0
0.87067	0
0.87433	-0
0.87800	-0
0.88167	-1
0.88533	-1
0.88900	-1
0.89267	-1
0.89633	-1
0.90000	-1
0.90367	-1
0.90733	-1
0.91100	-1
0.91467	-1
0.91833	-1
0.92200	-2
0.92567	-2
0.92933	-2
0.93300	-2
0.93667	-2
0.94033	-2
0.94400	-2
0.94767	-2
0.95133	-2
0.95500	-2
0.95867	-2
0.96233	-2
0.96600	-2
0.96967	-2
0.97333	-2
0.97700	-2
0.98067	-3
0.98433	-3
0.98800	-3
0.99167	-2
0.99533	-2
0.99900	-2
1.00267	-2
1.00633	-1
1.01000	-1
1.01367	-1
1.01733	-1
1.02100	-1
1.02467	-1
1.02833	-1
1.03200	-1
1.03567	-1
1.03933	-1
1.04300	-2
1.04667	-2
1.05033	-2
1.05400	-2
1.05767	-2
1.06133	-2
1.06500	-2
1.06867	-2
1.07233	-2
1.07600	-2
1.07967	-2
1.08333	-2
1.08700	-2
1.09067	-1
1.09433	-1
1.09800	-1
1.10167	-1
1.10533	-1
1.10900	-1
1.11267	-1
1.11633	-2
1.12000	-2
1.12367	-2
1.12733	-2
1.13100	-2
1.13467	-2
1.13833	-3
1.14200	-3
1.14567	-3
1.14933	-3
1.15300	-3
1.15667	-3
1.16033	-3
1.16400	-3
1.16767	-3
1.17133	-3
1.17500	-3
1.17867	-3
1.18233	-2
1.18600	-2
1.18967	-2
1.19333	-2
1.19700	-2
1.20067	-2
1.20433	-2
1.20800	-2
1.21167	-3
1.21533	-3
1.21900	-3
1.22267	-2
1.22633	-2
1.23000	-2
1.23367	-2
1.23733	-2
1.24100	-2
1.24467	-2
1.24833	-1
1.25200	-1
1.25567	-1
1.25933	-1
1.26300	-1
1.26667	-1
1.27033	-1
1.27400	-2
1.27767	-2
1.28133	-2
1.28500	-3
1.28867	-3
1.29233	-4
1.29600	-4
1.29967	-4
1.30333	-4
1.30700	-4
1.31067	-4
1.31433	-4
1.31800	-4
1.32167	-4
1.32533	-4
1.32900	-4
1.33267	-4
1.33633	-4
1.34000	-4
1.34367	-4
1.34733	-4
1.35100	-4
1.35467	-4
1.35833	-4
1.36200	-4
1.36567	-4
1.36933	-4
1.37300	-4
1.37667	-4
1.38033	-4
1.38400	-3
1.38767	-3
1.39133	-3
1.39500	-3
1.39867	-3
1.40233	-3
1.40600	-3
1.40967	-2
1.41333	-2
1.41700	-2
1.42067	-2
1.42433	-2
1.42800	-2
1.43167	-2
1.43533	-2
1.43900	-2
1.44267	-2
1.44633	-2
1.45000	-2
1.45367	-2
1.45733	-2
1.46100	-2
1.46467	-2
1.46833	-2
1.47200	-3
1.47567	-3
1.47933	-3
1.48300	-3
1.48667	-4
1.49033	-4
1.49400	-4
1.49767	-4
1.50133	-4
1.50500	-5
1.50867	-5
1.51233	-5
1.51600	-5
1.51967	-5
1.52333	-5
1.52700	-4
1.53067	-4
1.53433	-4
1.53800	-4
1.54167	-4
1.54533	-4
1.54900	-3
1.55267	-3
1.55633	-3
1.56000	-4
1.56367	-4
1.56733	-4
1.57100	-4
1.57467	-4
1.57833	-3
1.58200	-3
1.58567	-3
1.58933	-3
1.59300	-3
1.59667	-3
1.60033	-4
1.60400	-5
1.60767	-7
1.61133	-8
1.61500	-10
1.61867	-13
1.62233	-15
1.62600	-18
1.62967	-21
1.63333	-24
1.63700	-27
1.64067	-31
1.64433	-34
1.64800	-37
1.65167	-41
1.65533	-44
1.65900	-48
1.66267	-51
1.66633	-55
1.67000	-60
1.67367	-64
1.67733	-69
1.68100	-74
1.68467	-78
1.68833	-82
1.69200	-86
1.69567	-89
1.69933	-92
1.70300	-94
1.70667	-96
1.71033	-97
1.71400	-99
1.71767	-100
1.72133	-101
1.72500	-101
1.72867	-102
1.73233	-102
1.73600	-103
1.73967	-103
1.74333	-104
1.74700	-104
1.75067	-104
1.75433	-104
1.75800	-104
1.76167	-104
1.76533	-104
1.76900	-105
1.77267	-105
1.77633	-106
1.78000	-106
1.78367	-106
1.78733	-106
1.79100	-106
1.79467	-106
1.79833	-106
1.80200	-106
1.80567	-106
1.80933	-106
1.81300	-106
1.81667	-107
1.82033	-107
1.82400	-108
1.82767	-108
1.83133	-108
1.83500	-108
1.83867	-108
1.84233	-108
1.84600	-107
1.84967	-107
1.85333	-107
1.85700	-107
1.86067	-106
1.86433	-106
1.86800	-106
1.87167	-105
1.87533	-105
1.87900	-105
1.88267	-105
1.88633	-105
1.89000	-105
1.89367	-105
1.89733	-105
1.90100	-105
1.90467	-104
1.90833	-104
1.91200	-103
1.91567	-103
1.91933	-103
1.92300	-102
1.92667	-102
1.93033	-102
1.93400	-102
1.93767	-102
1.94133	-102
1.94500	-102
1.94867	-102
1.95233	-101
1.95600	-101
1.95967	-101
1.96333	-101
1.96700	-102
1.97067	-102
1.97433	-102
1.97800	-102
1.98167	-102
1.98533	-102
1.98900	-102
1.99267	-102
1.99633	-101
2.00000	-100
2.00367	-99
2.00733	-99
2.01100	-98
2.01467	-98
2.01833	-98
2.02200	-98
2.02567	-98
2.02933	-98
2.03300	-98
2.03667	-98
2.04033	-97
2.04400	-96
2.04767	-95
2.05133	-95
2.05500	-94
2.05867	-93
2.06233	-93
2.06600	-92
2.06967	-92
2.07333	-92
2.07700	-92
2.08067	-93
2.08433	-93
2.08800	-93
2.09167	-93
2.09533	-93
2.09900	-93
2.10267	-92
2.10633	-92
2.11000	-92
2.11367	-91
2.11733	-91
2.12100	-91
2.12467	-91
2.12833	-91
2.13200	-90
2.13567	-90
2.13933	-90
2.14300	-89
2.14667	-89
2.15033	-89
2.15400	-88
2.15767	-88
2.16133	-88
2.16500	-88
2.16867	-88
2.17233	-87
2.17600	-86
2.17967	-86
2.18333	-86
2.18700	-85
2.19067	-85
2.19433	-85
2.19800	-85
2.20167	-85
2.20533	-85
2.20900	-84
2.21267	-84
2.21633	-83
2.22000	-83
2.22367	-82
2.22733	-81
2.23100	-81
2.23467	-81
2.23833	-81
2.24200	-82
2.24567	-82
2.24933	-83
2.25300	-83
2.25667	-83
2.26033	-83
2.26400	-82
2.26767	-81
2.27133	-80
2.27500	-79
2.27867	-78
2.28233	-77
2.28600	-77
2.28967	-76
2.29333	-76
2.29700	-76
2.30067	-75
2.30433	-75
2.30800	-74
2.31167	-74
2.31533	-74
2.31900	-74
2.32267	-74
2.32633	-75
2.33000	-76
2.33367	-76
2.33733	-77
2.34100	-77
2.34467	-76
2.34833	-75
2.35200	-74
2.35567	-73
2.35933	-71
2.36300	-69
2.36667	-67
2.37033	-64
2.37400	-61
2.37767	-58
2.38133	-55
2.38500	-51
2.38867	-46
2.39233	-42
2.39600	-37
2.39967	-33
2.40333	-29
2.40700	-25
2.41067	-21
2.41433	-18
2.41800	-15
2.42167	-13
2.42533	-10
2.42900	-8
2.43267	-6
2.43633	-4
2.44000	-3
2.44367	-1
2.44733	0
2.45100	2
2.45467	2
2.45833	3
2.46200	4
2.46567	5
2.46933	6
2.47300	7
2.47667	8
2.48033	9
2.48400	10
2.48767	11
2.49133	12
2.49500	12
2.49867	13
2.50233	13
2.50600	13
2.50967	12
2.51333	12
2.51700	11
2.52067	10
2.52433	10
2.52800	10
2.53167	9
2.53533	10
2.53900	10
2.54267	10
2.54633	10
2.55000	11
2.55367	11
2.55733	12
2.56100	13
2.56467	14
2.56833	15
2.57200	16
2.57567	16
2.57933	17
2.58300	17
2.58667	18
2.59033	17
2.59400	18
2.59767	18
2.60133	18
2.60500	18
2.60867	19
2.61233	19
2.61600	19
2.61967	20
2.62333	20
2.62700	20
2.63067	20
2.63433	20
2.63800	21
2.64167	21
2.64533	21
2.64900	21
2.65267	22
2.65633	22
2.66000	23
2.66367	23
2.66733	23
2.67100	23
2.67467	23
2.67833	23
2.68200	23
2.68567	23
2.68933	23
2.69300	23
2.69667	23
2.70033	23
2.70400	23
2.70767	24
2.71133	24
2.71500	24
2.71867	24
2.72233	24
2.72600	25
2.72967	25
2.73333	25
2.73700	26
2.74067	26
2.74433	26
2.74800	26
2.75167	26
2.75533	27
2.75900	27
2.76267	27
2.76633	27
2.77000	27
2.77367	27
2.77733	28
2.78100	28
2.78467	28
2.78833	28
2.79200	27
2.79567	27
2.79933	27
2.80300	27
2.80667	27
2.81033	27
2.81400	27
2.81767	27
2.82133	27
2.82500	27
2.82867	27
2.83233	27
2.83600	27
2.83967	28
2.84333	28
2.84700	28
2.85067	28
2.85433	28
2.85800	28
2.86167	27
2.86533	24
2.86900	20
2.87267	13
2.87633	2
2.88000	-13
2.88367	-33
2.88733	-59
2.89100	-91
2.89467	-129
2.89833	-173
2.90200	-223
2.90567	-280
2.90933	-342
2.91300	-409
2.91667	-480
2.92033	-557
2.92400	-637
2.92767	-721
2.93133	-807
2.93500	-897
2.93867	-988
2.94233	-1082
2.94600	-1177
2.94967	-1274
2.95333	-1370
2.95700	-1455
2.96067	-1515
2.96433	-1541
2.96800	-1529
2.97167	-1483
2.97533	-1410
2.97900	-1316
2.98267	-1211
2.98633	-1100
2.99000	-988
2.99367	-880
2.99733	-778
3.00100	-684
3.00467	-597
3.00833	-519
3.01200	-449
3.01567	-388
3.01933	-333
3.02300	-286
3.02667	-244
3.03033	-208
3.03400	-177
3.03767	-151
3.04133	-128
3.04500	-108
3.04867	-91
3.05233	-76
3.05600	-63
3.05967	-53
3.06333	-43
3.06700	-35
3.07067	-29
3.07433	-23
3.07800	-18
3.08167	-14
3.08533	-10
3.08900	-7
3.09267	-4
3.09633	-1
3.10000	1
3.10367	2
3.10733	4
3.11100	6
3.11467	7
3.11833	8
3.12200	9
3.12567	10
3.12933	11
3.13300	12
3.13667	13
3.14033	13
3.14400	14
3.14767	14
3.15133	14
3.15500	15
3.15867	15
3.16233	16
3.16600	16
3.16967	16
3.17333	17
3.17700	17
3.18067	17
3.18433	17
3.18800	17
3.19167	18
3.19533	18
3.19900	18
3.20267	19
3.20633	19
3.21000	19
3.21367	19
3.21733	19
3.22100	19
3.22467	19
3.22833	19
3.23200	19
3.23567	20
3.23933	20
3.24300	21
3.24667	21
3.25033	21
3.25400	21
3.25767	22
3.26133	22
3.26500	22
3.26867	22
3.27233	22
3.27600	22
3.27967	23
3.28333	23
3.28700	23
3.29067	24
3.29433	24
3.29800	24
3.30167	24
3.30533	25
3.30900	24
3.31267	24
3.31633	24
3.32000	24
3.32367	24
3.32733	24
3.33100	24
3.33467	24
3.33833	23
3.34200	23
3.34567	23
3.34933	23
3.35300	23
3.35667	23
3.36033	24
3.36400	24
3.36767	24
3.37133	24
3.37500	25
3.37867	25
3.38233	26
3.38600	26
3.38967	26
3.39333	26
3.39700	27
3.40067	27
3.40433	27
3.40800	27
3.41167	28
3.41533	28
3.41900	28
3.42267	28
3.42633	28
3.43000	29
3.43367	29
3.43733	29
3.44100	29
3.44467	29
3.44833	29
3.45200	29
3.45567	28
3.45933	28
3.46300	28
3.46667	28
3.47033	28
3.47400	28
3.47767	28
3.48133	28
3.48500	28
3.48867	28
3.49233	28
3.49600	28
3.49967	28
3.50333	28
3.50700	28
3.51067	29
3.51433	29
3.51800	28
3.52167	28
3.52533	28
3.52900	28
3.53267	28
3.53633	28
3.54000	28
3.54367	28
3.54733	28
3.55100	28
3.55467	28
3.55833	28
3.56200	28
3.56567	27
3.56933	27
3.57300	27
3.57667	27
3.58033	28
3.58400	28
3.58767	28
3.59133	28
3.59500	28
3.59867	28
3.60233	29
3.60600	29
3.60967	29
3.61333	29
3.61700	29
3.62067	29
3.62433	29
3.62800	29
3.63167	29
3.63533	29
3.63900	28
3.64267	28
3.64633	28
3.65000	28
3.65367	28
3.65733	28
3.66100	28
3.66467	28
3.66833	28
3.67200	28
3.67567	28
3.67933	28
3.68300	28
3.68667	28
3.69033	28
3.69400	28
3.69767	28
3.70133	28
3.70500	28
3.70867	28
3.71233	28
3.71600	28
3.71967	28
3.72333	28
3.72700	28
3.73067	28
3.73433	29
3.73800	29
3.74167	29
3.74533	29
3.74900	29
3.75267	28
3.75633	28
3.76000	28
3.76367	28
3.76733	28
3.77100	28
3.77467	28
3.77833	28
3.78200	28
3.78567	28
3.78933	27
3.79300	27
3.79667	27
3.80033	27
3.80400	27
3.80767	27
3.81133	27
3.81500	27
3.81867	27
3.82233	27
3.82600	27
3.82967	27
3.83333	27
3.83700	27
3.84067	27
3.84433	27
3.84800	26
3.85167	26
3.85533	26
3.85900	26
3.86267	26
3.86633	26
3.87000	26
3.87367	26
3.87733	27
3.88100	27
3.88467	27
3.88833	27
3.89200	27
3.89567	27
3.89933	27
3.90300	27
3.90667	27
3.91033	27
3.91400	28
3.91767	28
3.92133	28
3.92500	28
3.92867	28
3.93233	29
3.93600	29
3.93967	29
3.94333	29
3.94700	29
3.95067	29
3.95433	29
3.95800	29
3.96167	29
3.96533	29
3.96900	29
3.97267	29
3.97633	29
3.98000	29
3.98367	29
3.98733	28
3.99100	28
3.99467	28
3.99833	28

[Chromatogram (Ch3)]
Interval(msec)	220
# of Points	1091
Start Time(min)	0.002
End Time(min)	3.998
R.Time (min)	Intensity
0.00167	-1
0.00533	-2
0.00900	-3
0.01267	-4
0.01633	-5
0.02000	-6
0.02367	-6
0.02733	-6
0.03100	-5
0.03467	-4
0.03833	-2
0.04200	-1
0.04567	0
0.04933	1
0.05300	1
0.05667	0
0.06033	2
0.06400	5
0.06767	7
0.07133	5
0.07500	3
0.07867	3
0.08233	3
0.08600	1
0.08967	-2
0.09333	-5
0.09700	-6
0.10067	-7
0.10433	-8
0.10800	-10
0.11167	-12
0.11533	-13
0.11900	-11
0.12267	-8
0.12633	-7
0.13000	-7
0.13367	-6
0.13733	-4
0.14100	-2
0.14467	-1
0.14833	-1
0.15200	-3
0.15567	-2
0.15933	-2
0.16300	-3
0.16667	-3
0.17033	-4
0.17400	-4
0.17767	-2
0.18133	-1
0.18500	2
0.18867	4
0.19233	6
0.19600	5
0.19967	3
0.20333	2
0.20700	3
0.21067	3
0.21433	1
0.21800	-0
0.22167	-1
0.22533	-3
0.22900	-6
0.23267	-6
0.23633	-4
0.24000	-1
0.24367	1
0.24733	3
0.25100	2
0.25467	-1
0.25833	-2
0.26200	-2
0.26567	-1
0.26933	-1
0.27300	0
0.27667	1
0.28033	-0
0.28400	-3
0.28767	-3
0.29133	-3
0.29500	0
0.29867	3
0.30233	4
0.30600	4
0.30967	4
0.31333	5
0.31700	5
0.32067	4
0.32433	3
0.32800	4
0.33167	3
0.33533	2
0.33900	0
0.34267	-0
0.34633	0
0.35000	1
0.35367	1
0.35733	3
0.36100	6
0.36467	6
0.36833	4
0.37200	4
0.37567	4
0.37933	3
0.38300	3
0.38667	2
0.39033	2
0.39400	3
0.39767	3
0.40133	2
0.40500	4
0.40867	5
0.41233	4
0.41600	4
0.41967	5
0.42333	3
0.42700	2
0.43067	2
0.43433	2
0.43800	4
0.44167	4
0.44533	3
0.44900	0
0.45267	-2
0.45633	-3
0.46000	-1
0.46367	0
0.46733	2
0.47100	2
0.47467	2
0.47833	3
0.48200	5
0.48567	8
0.48933	9
0.49300	9
0.49667	8
0.50033	8
0.50400	9
0.50767	11
0.51133	11
0.51500	9
0.51867	9
0.52233	10
0.52600	9
0.52967	9
0.53333	9
0.53700	9
0.54067	8
0.54433	7
0.54800	7
0.55167	6
0.55533	5
0.55900	6
0.56267	8
0.56633	9
0.57000	7
0.57367	8
0.57733	10
0.58100	11
0.58467	10
0.58833	10
0.59200	10
0.59567	10
0.59933	8
0.60300	7
0.60667	7
0.61033	9
0.61400	10
0.61767	10
0.62133	9
0.62500	7
0.62867	8
0.63233	10
0.63600	11
0.63967	10
0.64333	9
0.64700	9
0.65067	9
0.65433	10
0.65800	10
0.66167	11
0.66533	11
0.66900	12
0.67267	12
0.67633	11
0.68000	10
0.68367	11
0.68733	11
0.69100	12
0.69467	11
0.69833	9
0.70200	10
0.70567	11
0.70933	11
0.71300	9
0.71667	9
0.72033	12
0.72400	13
0.72767	14
0.73133	13
0.73500	11
0.73867	12
0.74233	12
0.74600	10
0.74967	6
0.75333	5
0.75700	7
0.76067	9
0.76433	10
0.76800	11
0.77167	11
0.77533	12
0.77900	13
0.78267	12
0.78633	11
0.79000	11
0.79367	9
0.79733	8
0.80100	8
0.80467	11
0.80833	12
0.81200	12
0.81567	13
0.81933	14
0.82300	14
0.82667	13
0.83033	12
0.83400	12
0.83767	12
0.84133	12
0.84500	12
0.84867	10
0.85233	10
0.85600	8
0.85967	9
0.86333	10
0.86700	10
0.87067	10
0.87433	9
0.87800	9
0.88167	9
0.88533	8
0.88900	9
0.89267	8
0.89633	8
0.90000	7
0.90367	7
0.90733	9
0.91100	13
0.91467	16
0.91833	17
0.92200	14
0.92567	12
0.92933	10
0.93300	10
0.93667	11
0.94033	11
0.94400	10
0.94767	9
0.95133	9
0.95500	8
0.95867	10
0.96233	12
0.96600	12
0.96967	13
0.97333	15
0.97700	13
0.98067	10
0.98433	7
0.98800	5
0.99167	7
0.99533	10
0.99900	12
1.00267	12
1.00633	11
1.01000	12
1.01367	13
1.01733	12
1.02100	13
1.02467	14
1.02833	14
1.03200	14
1.03567	16
1.03933	16
1.04300	17
1.04667	19
1.05033	19
1.05400	17
1.05767	14
1.06133	13
1.06500	13
1.06867	12
1.07233	12
1.07600	13
1.07967	13
1.08333	14
1.08700	15
1.09067	16
1.09433	18
1.09800	17
1.10167	17
1.10533	16
1.10900	16
1.11267	16
1.11633	14
1.12000	11
1.12367	11
1.12733	11
1.13100	14
1.13467	14
1.13833	14
1.14200	11
1.14567	9
1.14933	9
1.15300	11
1.15667	11
1.16033	12
1.16400	13
1.16767	12
1.17133	11
1.17500	9
1.17867	8
1.18233	7
1.18600	8
1.18967	9
1.19333	10
1.19700	12
1.20067	12
1.20433	10
1.20800	7
1.21167	8
1.21533	9
1.21900	12
1.22267	13
1.22633	12
1.23000	10
1.23367	10
1.23733	13
1.24100	14
1.24467	11
1.24833	9
1.25200	7
1.25567	5
1.25933	5
1.26300	6
1.26667	7
1.27033	8
1.27400	9
1.27767	7
1.28133	7
1.28500	8
1.28867	8
1.29233	8
1.29600	9
1.29967	11
1.30333	12
1.30700	12
1.31067	13
1.31433	13
1.31800	12
1.32167	12
1.32533	13
1.32900	14
1.33267	13
1.33633	11
1.34000	11
1.34367	12
1.34733	11
1.35100	11
1.35467	11
1.35833	10
1.36200	9
1.36567	9
1.36933	9
1.37300	8
1.37667	7
1.38033	5
1.38400	4
1.38767	5
1.39133	4
1.39500	2
1.39867	1
1.40233	2
1.40600	4
1.40967	3
1.41333	2
1.41700	3
1.42067	3
1.42433	3
1.42800	4
1.43167	4
1.43533	4
1.43900	4
1.44267	6
1.44633	6
1.45000	6
1.45367	5
1.45733	5
1.46100	5
1.46467	5
1.46833	6
1.47200	7
1.47567	5
1.47933	4
1.48300	4
1.48667	4
1.49033	5
1.49400	6
1.49767	6
1.50133	8
1.50500	8
1.50867	9
1.51233	7
1.51600	5
1.51967	4
1.52333	4
1.52700	5
1.53067	6
1.53433	6
1.53800	3
1.54167	1
1.54533	-0
1.54900	-1
1.55267	-1
1.55633	0
1.56000	2
1.56367	4
1.56733	4
1.57100	5
1.57467	6
1.57833	7
1.58200	8
1.58567	8
1.58933	7
1.59300	6
1.59667	5
1.60033	5
1.60400	4
1.60767	4
1.61133	2
1.61500	3
1.61867	3
1.62233	3
1.62600	3
1.62967	3
1.63333	6
1.63700	8
1.64067	9
1.64433	9
1.64800	8
1.65167	10
1.65533	11
1.65900	11
1.66267	11
1.66633	12
1.67000	13
1.67367	12
1.67733	11
1.68100	13
1.68467	13
1.68833	13
1.69200	15
1.69567	15
1.69933	14
1.70300	12
1.70667	10
1.71033	9
1.71400	9
1.71767	10
1.72133	11
1.72500	12
1.72867	13
1.73233	13
1.73600	13
1.73967	14
1.74333	15
1.74700	15
1.75067	14
1.75433	14
1.75800	16
1.76167	18
1.76533	18
1.76900	16
1.77267	14
1.77633	13
1.78000	13
1.78367	15
1.78733	16
1.79100	18
1.79467	15
1.79833	12
1.80200	12
1.80567	14
1.80933	16
1.81300	18
1.81667	18
1.82033	16
1.82400	17
1.82767	19
1.83133	21
1.83500	21
1.83867	22
1.84233	23
1.84600	25
1.84967	26
1.85333	25
1.85700	23
1.86067	21
1.86433	19
1.86800	19
1.87167	20
1.87533	19
1.87900	19
1.88267	21
1.88633	22
1.89000	25
1.89367	25
1.89733	26
1.90100	27
1.90467	30
1.90833	32
1.91200	34
1.91567	33
1.91933	32
1.92300	32
1.92667	31
1.93033	32
1.93400	34
1.93767	35
1.94133	34
1.94500	31
1.94867	30
1.95233	30
1.95600	32
1.95967	35
1.96333	38
1.96700	38
1.97067	35
1.97433	34
1.97800	33
1.98167	34
1.98533	37
1.98900	40
1.99267	41
1.99633	39
2.00000	40
2.00367	43
2.00733	45
2.01100	45
2.01467	45
2.01833	45
2.02200	46
2.02567	48
2.02933	49
2.03300	52
2.03667	55
2.04033	57
2.04400	57
2.04767	57
2.05133	55
2.05500	55
2.05867	55
2.06233	55
2.06600	57
2.06967	58
2.07333	59
2.07700	61
2.08067	62
2.08433	60
2.08800	59
2.09167	59
2.09533	59
2.09900	60
2.10267	62
2.10633	64
2.11000	65
2.11367	66
2.11733	67
2.12100	67
2.12467	67
2.12833	64
2.13200	64
2.13567	66
2.13933	69
2.14300	72
2.14667	72
2.15033	69
2.15400	69
2.15767	69
2.16133	70
2.16500	72
2.16867	73
2.17233	74
2.17600	75
2.17967	77
2.18333	79
2.18700	80
2.19067	81
2.19433	83
2.19800	81
2.20167	79
2.20533	78
2.20900	80
2.21267	84
2.21633	86
2.22000	87
2.22367	88
2.22733	88
2.23100	88
2.23467	88
2.23833	88
2.24200	88
2.24567	90
2.24933	92
2.25300	97
2.25667	101
2.26033	103
2.26400	103
2.26767	101
2.27133	102
2.27500	104
2.27867	104
2.28233	103
2.28600	103
2.28967	101
2.29333	97
2.29700	96
2.30067	95
2.30433	94
2.30800	95
2.31167	99
2.31533	103
2.31900	105
2.32267	106
2.32633	109
2.33000	111
2.33367	110
2.33733	109
2.34100	105
2.34467	105
2.34833	106
2.35200	105
2.35567	106
2.35933	108
2.36300	110
2.36667	110
2.37033	112
2.37400	113
2.37767	112
2.38133	110
2.38500	107
2.38867	105
2.39233	105
2.39600	108
2.39967	110
2.40333	111
2.40700	111
2.41067	112
2.41433	115
2.41800	117
2.42167	119
2.42533	119
2.42900	119
2.43267	118
2.43633	117
2.44000	119
2.44367	155
2.44733	233
2.45100	313
2.45467	372
2.45833	395
2.46200	393
2.46567	386
2.46933	383
2.47300	373
2.47667	354
2.48033	329
2.48400	301
2.48767	275
2.49133	254
2.49500	241
2.49867	238
2.50233	243
2.50600	250
2.50967	255
2.51333	259
2.51700	258
2.52067	252
2.52433	241
2.52800	225
2.53167	211
2.53533	198
2.53900	187
2.54267	179
2.54633	174
2.55000	167
2.55367	161
2.55733	158
2.56100	155
2.56467	153
2.56833	156
2.57200	159
2.57567	163
2.57933	169
2.58300	175
2.58667	184
2.59033	192
2.59400	201
2.59767	209
2.60133	216
2.60500	219
2.60867	220
2.61233	220
2.61600	218
2.61967	212
2.62333	204
2.62700	193
2.63067	180
2.63433	164
2.63800	150
2.64167	136
2.64533	121
2.64900	112
2.65267	105
2.65633	100
2.66000	95
2.66367	90
2.66733	87
2.67100	85
2.67467	83
2.67833	83
2.68200	82
2.68567	82
2.68933	82
2.69300	82
2.69667	81
2.70033	81
2.70400	85
2.70767	90
2.71133	93
2.71500	97
2.71867	103
2.72233	106
2.72600	105
2.72967	106
2.73333	108
2.73700	110
2.74067	112
2.74433	113
2.74800	117
2.75167	120
2.75533	123
2.75900	126
2.76267	130
2.76633	133
2.77000	137
2.77367	141
2.77733	146
2.78100	149
2.78467	153
2.78833	158
2.79200	164
2.79567	168
2.79933	169
2.80300	171
2.80667	176
2.81033	178
2.81400	178
2.81767	178
2.82133	178
2.82500	182
2.82867	188
2.83233	201
2.83600	235
2.83967	314
2.84333	480
2.84700	790
2.85067	1309
2.85433	2089
2.85800	3145
2.86167	4461
2.86533	5982
2.86900	7614
2.87267	9235
2.87633	10714
2.88000	11937
2.88367	12818
2.88733	13309
2.89100	13414
2.89467	13180
2.89833	12665
2.90200	11948
2.90567	11104
2.90933	10188
2.91300	9250
2.91667	8332
2.92033	7457
2.92400	6641
2.92767	5889
2.93133	5204
2.93500	4589
2.93867	4038
2.94233	3545
2.94600	3110
2.94967	2726
2.95333	2389
2.95700	2096
2.96067	1842
2.96433	1618
2.96800	1421
2.97167	1249
2.97533	1102
2.97900	974
2.98267	864
2.98633	768
2.99000	685
2.99367	612
2.99733	549
3.00100	497
3.00467	452
3.00833	413
3.01200	381
3.01567	355
3.01933	333
3.02300	311
3.02667	291
3.03033	276
3.03400	264
3.03767	253
3.04133	243
3.04500	234
3.04867	227
3.05233	220
3.05600	214
3.05967	209
3.06333	206
3.06700	204
3.07067	203
3.07433	204
3.07800	208
3.08167	218
3.08533	234
3.08900	256
3.09267	284
3.09633	314
3.10000	344
3.10367	372
3.10733	400
3.11100	424
3.11467	446
3.11833	467
3.12200	485
3.12567	499
3.12933	511
3.13300	524
3.13667	534
3.14033	543
3.14400	550
3.14767	555
3.15133	560
3.15500	564
3.15867	565
3.16233	567
3.16600	569
3.16967	569
3.17333	569
3.17700	568
3.18067	569
3.18433	572
3.18800	574
3.19167	574
3.19533	575
3.19900	577
3.20267	578
3.20633	577
3.21000	578
3.21367	576
3.21733	575
3.22100	576
3.22467	577
3.22833	578
3.23200	579
3.23567	579
3.23933	576
3.24300	573
3.24667	574
3.25033	574
3.25400	573
3.25767	574
3.26133	574
3.26500	574
3.26867	576
3.27233	577
3.27600	576
3.27967	574
3.28333	574
3.28700	575
3.29067	573
3.29433	573
3.29800	571
3.30167	570
3.30533	567
3.30900	565
3.31267	562
3.31633	557
3.32000	553
3.32367	551
3.32733	552
3.33100	551
3.33467	551
3.33833	550
3.34200	549
3.34567	548
3.34933	547
3.35300	547
3.35667	546
3.36033	543
3.36400	542
3.36767	544
3.37133	543
3.37500	541
3.37867	537
3.38233	533
3.38600	530
3.38967	527
3.39333	525
3.39700	523
3.40067	520
3.40433	517
3.40800	515
3.41167	514
3.41533	513
3.41900	514
3.42267	511
3.42633	507
3.43000	505
3.43367	504
3.43733	505
3.44100	506
3.44467	506
3.44833	504
3.45200	502
3.45567	501
3.45933	501
3.46300	500
3.46667	501
3.47033	500
3.47400	499
3.47767	498
3.48133	497
3.48500	494
3.48867	490
3.49233	489
3.49600	488
3.49967	487
3.50333	488
3.50700	488
3.51067	487
3.51433	486
3.51800	486
3.52167	486
3.52533	483
3.52900	478
3.53267	475
3.53633	472
3.54000	472
3.54367	471
3.54733	470
3.55100	468
3.55467	465
3.55833	464
3.56200	463
3.56567	461
3.56933	460
3.57300	458
3.57667	454
3.58033	452
3.58400	450
3.58767	450
3.59133	450
3.59500	449
3.59867	449
3.60233	448
3.60600	446
3.60967	443
3.61333	441
3.61700	439
3.62067	437
3.62433	435
3.62800	434
3.63167	434
3.63533	434
3.63900	434
3.64267	432
3.64633	429
3.65000	429
3.65367	430
3.65733	431
3.66100	430
3.66467	428
3.66833	427
3.67200	426
3.67567	425
3.67933	426
3.68300	424
3.68667	421
3.69033	419
3.69400	419
3.69767	419
3.70133	419
3.70500	419
3.70867	420
3.71233	419
3.71600	417
3.71967	418
3.72333	417
3.72700	416
3.73067	415
3.73433	414
3.73800	413
3.74167	412
3.74533	413
3.74900	413
3.75267	411
3.75633	409
3.76000	406
3.76367	405
3.76733	403
3.77100	402
3.77467	401
3.77833	402
3.78200	401
3.78567	399
3.78933	397
3.79300	396
3.79667	394
3.80033	396
3.80400	397
3.80767	397
3.81133	398
3.81500	400
3.81867	399
3.82233	397
3.82600	396
3.82967	395
3.83333	395
3.83700	393
3.84067	392
3.84433	393
3.84800	394
3.85167	395
3.85533	394
3.85900	392
3.86267	389
3.86633	388
3.87000	388
3.87367	388
3.87733	389
3.88100	389
3.88467	389
3.88833	387
3.89200	384
3.89567	381
3.89933	381
3.90300	384
3.90667	384
3.91033	381
3.91400	377
3.91767	376
3.92133	376
3.92500	377
3.92867	378
3.93233	379
3.93600	377
3.93967	374
3.94333	371
3.94700	368
3.95067	369
3.95433	370
3.95800	371
3.96167	370
3.96533	369
3.96900	367
3.97267	364
3.97633	363
3.98000	363
3.98367	364
3.98733	367
3.99100	368
3.99467	366
3.99833	362

[Status Trace (Column Oven Temperature)]
Interval(msec)	1000
# of Points	240
Start Time(min)	0.007
End Time(min)	3.990
Intensity Units	
Intensity Multiplier	1
R.Time (min)	Intensity
0.00698	35.07
0.02365	35.06
0.04032	35.07
0.05698	35.07
0.07365	35.08
0.09032	35.09
0.10698	35.09
0.12365	35.08
0.14032	35.07
0.15698	35.08
0.17365	35.07
0.19032	35.07
0.20698	35.06
0.22365	35.05
0.24032	35.04
0.25698	35.03
0.27365	35.02
0.29032	35.02
0.30698	35.01
0.32365	35.01
0.34032	35.00
0.35698	35.01
0.37365	35.01
0.39032	35.01
0.40698	35.00
0.42365	35.00
0.44032	35.00
0.45698	35.00
0.47365	34.99
0.49032	34.99
0.50698	35.00
0.52365	34.99
0.54032	35.01
0.55698	35.03
0.57365	35.03
0.59032	35.02
0.60698	35.01
0.62365	35.01
0.64032	35.01
0.65698	34.99
0.67365	35.00
0.69032	35.00
0.70698	34.99
0.72365	35.00
0.74032	35.00
0.75698	35.00
0.77365	35.00
0.79032	35.00
0.80698	34.99
0.82365	34.99
0.84032	34.99
0.85698	34.99
0.87365	34.99
0.89032	34.99
0.90698	35.00
0.92365	35.00
0.94032	35.00
0.95698	34.99
0.97365	35.00
0.99032	35.01
1.00698	35.00
1.02365	35.00
1.04032	35.00
1.05698	35.00
1.07365	34.99
1.09032	34.99
1.10698	34.99
1.12365	35.00
1.14032	35.00
1.15698	35.01
1.17365	35.02
1.19032	35.02
1.20698	35.01
1.22365	35.00
1.24032	35.00
1.25698	35.00
1.27365	35.00
1.29032	35.01
1.30698	35.01
1.32365	35.01
1.34032	35.00
1.35698	35.00
1.37365	35.02
1.39032	35.02
1.40698	35.01
1.42365	35.01
1.44032	35.01
1.45698	35.01
1.47365	35.01
1.49032	35.01
1.50698	35.01
1.52365	35.02
1.54032	35.01
1.55698	35.01
1.57365	35.00
1.59032	35.01
1.60698	35.06
1.62365	35.18
1.64032	35.35
1.65698	35.59
1.67365	35.92
1.69032	36.30
1.70698	36.65
1.72365	36.98
1.74032	37.32
1.75698	37.64
1.77365	37.98
1.79032	38.31
1.80698	38.64
1.82365	38.98
1.84032	39.31
1.85698	39.63
1.87365	39.96
1.89032	40.28
1.90698	40.60
1.92365	40.92
1.94032	41.25
1.95698	41.58
1.97365	41.91
1.99032	42.24
2.00698	42.55
2.02365	42.89
2.04032	43.19
2.05698	43.51
2.07365	43.83
2.09032	44.16
2.10698	44.47
2.12365	44.82
2.14032	45.13
2.15698	45.48
2.17365	45.80
2.19032	46.13
2.20698	46.45
2.22365	46.77
2.24032	47.13
2.25698	47.48
2.27365	47.79
2.29032	48.13
2.30698	48.44
2.32365	48.79
2.34032	49.13
2.35698	49.42
2.37365	49.60
2.39032	49.67
2.40698	49.66
2.42365	49.68
2.44032	49.68
2.45698	49.70
2.47365	49.71
2.49032	49.71
2.50698	49.73
2.52365	49.75
2.54032	49.76
2.55698	49.77
2.57365	49.77
2.59032	49.79
2.60698	49.80
2.62365	49.82
2.64032	49.83
2.65698	49.83
2.67365	49.84
2.69032	49.85
2.70698	49.86
2.72365	49.85
2.74032	49.85
2.75698	49.85
2.77365	49.85
2.79032	49.85
2.80698	49.86
2.82365	49.86
2.84032	49.87
2.85698	49.88
2.87365	49.89
2.89032	49.89
2.90698	49.90
2.92365	49.92
2.94032	49.93
2.95698	49.95
2.97365	49.96
2.99032	49.97
3.00698	49.97
3.02365	49.99
3.04032	49.99
3.05698	49.99
3.07365	49.98
3.09032	49.99
3.10698	49.99
3.12365	50.00
3.14032	50.01
3.15698	50.02
3.17365	50.04
3.19032	50.04
3.20698	50.05
3.22365	50.06
3.24032	50.07
3.25698	50.07
3.27365	50.08
3.29032	50.08
3.30698	50.08
3.32365	50.09
3.34032	50.11
3.35698	50.12
3.37365	50.11
3.39032	50.10
3.40698	50.08
3.42365	50.06
3.44032	50.06
3.45698	50.06
3.47365	50.06
3.49032	50.06
3.50698	50.05
3.52365	50.05
3.54032	50.06
3.55698	50.06
3.57365	50.06
3.59032	50.06
3.60698	50.07
3.62365	50.06
3.64032	50.06
3.65698	50.07
3.67365	50.06
3.69032	50.06
3.70698	50.06
3.72365	50.07
3.74032	50.07
3.75698	50.07
3.77365	50.07
3.79032	50.07
3.80698	50.07
3.82365	50.07
3.84032	50.07
3.85698	50.07
3.87365	50.07
3.89032	50.07
3.90698	50.08
3.92365	50.07
3.94032	50.06
3.95698	50.05
3.97365	50.05
3.99032	50.05

[Status Trace (Injection Unit Temperature)]
Interval(msec)	1000
# of Points	240
Start Time(min)	0.007
End Time(min)	3.990
Intensity Units	
Intensity Multiplier	1
R.Time (min)	Intensity
0.00698	99.99
0.02365	99.98
0.04032	99.99
0.05698	99.98
0.07365	99.99
0.09032	99.98
0.10698	99.98
0.12365	99.98
0.14032	99.99
0.15698	99.98
0.17365	99.99
0.19032	99.98
0.20698	99.98
0.22365	99.99
0.24032	99.99
0.25698	99.99
0.27365	99.98
0.29032	99.99
0.30698	99.98
0.32365	99.98
0.34032	99.98
0.35698	99.99
0.37365	99.98
0.39032	99.98
0.40698	99.98
0.42365	99.98
0.44032	99.98
0.45698	99.98
0.47365	99.98
0.49032	99.98
0.50698	99.99
0.52365	99.98
0.54032	99.98
0.55698	99.98
0.57365	99.98
0.59032	99.98
0.60698	99.98
0.62365	99.98
0.64032	99.98
0.65698	99.98
0.67365	99.98
0.69032	99.98
0.70698	99.98
0.72365	99.98
0.74032	99.98
0.75698	99.98
0.77365	99.98
0.79032	99.98
0.80698	99.98
0.82365	99.98
0.84032	99.98
0.85698	99.98
0.87365	99.98
0.89032	99.98
0.90698	99.98
0.92365	99.98
0.94032	99.98
0.95698	99.98
0.97365	99.99
0.99032	99.98
1.00698	99.98
1.02365	99.98
1.04032	99.98
1.05698	99.98
1.07365	99.98
1.09032	99.98
1.10698	99.99
1.12365	99.99
1.14032	99.99
1.15698	99.98
1.17365	99.99
1.19032	99.99
1.20698	99.99
1.22365	99.99
1.24032	99.99
1.25698	99.99
1.27365	99.99
1.29032	99.99
1.30698	99.99
1.32365	99.99
1.34032	99.99
1.35698	99.99
1.37365	99.99
1.39032	99.99
1.40698	99.99
1.42365	99.99
1.44032	99.99
1.45698	99.99
1.47365	99.99
1.49032	99.99
1.50698	99.99
1.52365	99.99
1.54032	99.99
1.55698	99.99
1.57365	99.99
1.59032	99.99
1.60698	99.98
1.62365	99.99
1.64032	99.99
1.65698	99.99
1.67365	99.99
1.69032	99.99
1.70698	99.99
1.72365	99.99
1.74032	99.99
1.75698	99.99
1.77365	99.99
1.79032	99.99
1.80698	99.99
1.82365	99.99
1.84032	99.99
1.85698	99.98
1.87365	99.98
1.89032	99.98
1.90698	99.98
1.92365	99.98
1.94032	99.98
1.95698	99.97
1.97365	99.97
1.99032	99.98
2.00698	99.97
2.02365	99.97
2.04032	99.97
2.05698	99.97
2.07365	99.97
2.09032	99.97
2.10698	99.97
2.12365	99.97
2.14032	99.97
2.15698	99.97
2.17365	99.97
2.19032	99.96
2.20698	99.96
2.22365	99.97
2.24032	99.97
2.25698	99.96
2.27365	99.97
2.29032	99.96
2.30698	99.96
2.32365	99.96
2.34032	99.96
2.35698	99.97
2.37365	99.96
2.39032	99.96
2.40698	99.97
2.42365	99.96
2.44032	99.97
2.45698	99.97
2.47365	99.97
2.49032	99.97
2.50698	99.97
2.52365	99.97
2.54032	99.97
2.55698	99.97
2.57365	99.98
2.59032	99.97
2.60698	99.97
2.62365	99.98
2.64032	99.98
2.65698	99.98
2.67365	99.98
2.69032	99.99
2.70698	99.99
2.72365	99.98
2.74032	99.98
2.75698	99.98
2.77365	99.99
2.79032	99.99
2.80698	99.99
2.82365	99.99
2.84032	100.00
2.85698	100.00
2.87365	100.00
2.89032	100.00
2.90698	100.00
2.92365	100.01
2.94032	100.01
2.95698	100.01
2.97365	100.01
2.99032	100.01
3.00698	100.01
3.02365	100.01
3.04032	100.02
3.05698	100.02
3.07365	100.02
3.09032	100.02
3.10698	100.02
3.12365	100.02
3.14032	100.02
3.15698	100.02
3.17365	100.02
3.19032	100.03
3.20698	100.03
3.22365	100.03
3.24032	100.03
3.25698	100.02
3.27365	100.03
3.29032	100.03
3.30698	100.03
3.32365	100.03
3.34032	100.03
3.35698	100.03
3.37365	100.03
3.39032	100.03
3.40698	100.04
3.42365	100.04
3.44032	100.04
3.45698	100.04
3.47365	100.04
3.49032	100.04
3.50698	100.04
3.52365	100.03
3.54032	100.04
3.55698	100.04
3.57365	100.04
3.59032	100.04
3.60698	100.04
3.62365	100.04
3.64032	100.04
3.65698	100.04
3.67365	100.04
3.69032	100.04
3.70698	100.04
3.72365	100.05
3.74032	100.05
3.75698	100.05
3.77365	100.05
3.79032	100.05
3.80698	100.05
3.82365	100.05
3.84032	100.05
3.85698	100.05
3.87365	100.05
3.89032	100.05
3.90698	100.05
3.92365	100.05
3.94032	100.05
3.95698	100.05
3.97365	100.05
3.99032	100.05

[Status Trace (Carrier Gas Pressure)]
Interval(msec)	1000
# of Points	240
Start Time(min)	0.007
End Time(min)	3.990
Intensity Units	
Intensity Multiplier	1
R.Time (min)	Intensity
0.00698	58.00
0.02365	55.47
0.04032	56.98
0.05698	59.24
0.07365	59.36
0.09032	58.08
0.10698	57.98
0.12365	58.01
0.14032	58.01
0.15698	58.00
0.17365	58.00
0.19032	58.00
0.20698	58.00
0.22365	58.00
0.24032	58.00
0.25698	58.00
0.27365	58.00
0.29032	58.00
0.30698	58.00
0.32365	58.00
0.34032	58.00
0.35698	58.00
0.37365	58.00
0.39032	58.00
0.40698	58.00
0.42365	58.00
0.44032	58.00
0.45698	58.00
0.47365	58.00
0.49032	58.00
0.50698	58.00
0.52365	58.00
0.54032	58.00
0.55698	58.00
0.57365	58.00
0.59032	58.00
0.60698	58.00
0.62365	58.00
0.64032	58.00
0.65698	58.00
0.67365	58.00
0.69032	58.00
0.70698	58.00
0.72365	58.00
0.74032	58.00
0.75698	58.00
0.77365	58.00
0.79032	58.00
0.80698	58.00
0.82365	58.00
0.84032	58.00
0.85698	58.00
0.87365	58.00
0.89032	58.00
0.90698	58.00
0.92365	58.00
0.94032	58.00
0.95698	58.00
0.97365	58.00
0.99032	58.00
1.00698	58.00
1.02365	58.00
1.04032	58.00
1.05698	58.00
1.07365	58.00
1.09032	58.00
1.10698	58.00
1.12365	58.00
1.14032	58.00
1.15698	58.00
1.17365	58.00
1.19032	58.00
1.20698	58.00
1.22365	58.00
1.24032	58.00
1.25698	58.00
1.27365	58.00
1.29032	58.00
1.30698	58.00
1.32365	58.00
1.34032	58.00
1.35698	58.00
1.37365	58.00
1.39032	58.00
1.40698	58.00
1.42365	58.00
1.44032	58.00
1.45698	58.00
1.47365	58.00
1.49032	58.00
1.50698	58.00
1.52365	58.00
1.54032	58.00
1.55698	58.00
1.57365	58.00
1.59032	58.00
1.60698	58.00
1.62365	58.00
1.64032	58.00
1.65698	58.00
1.67365	58.01
1.69032	58.00
1.70698	58.00
1.72365	58.00
1.74032	58.00
1.75698	58.00
1.77365	58.00
1.79032	58.00
1.80698	58.00
1.82365	58.00
1.84032	58.00
1.85698	58.00
1.87365	58.00
1.89032	58.00
1.90698	58.00
1.92365	58.00
1.94032	58.00
1.95698	58.00
1.97365	58.00
1.99032	58.00
2.00698	58.00
2.02365	58.00
2.04032	58.00
2.05698	58.00
2.07365	58.00
2.09032	58.00
2.10698	58.00
2.12365	58.00
2.14032	58.00
2.15698	58.00
2.17365	58.00
2.19032	58.00
2.20698	58.00
2.22365	58.00
2.24032	58.00
2.25698	58.00
2.27365	58.00
2.29032	58.00
2.30698	58.00
2.32365	58.00
2.34032	58.00
2.35698	58.00
2.37365	58.00
2.39032	57.99
2.40698	57.99
2.42365	58.00
2.44032	58.00
2.45698	58.00
2.47365	58.00
2.49032	58.00
2.50698	58.00
2.52365	57.99
2.54032	58.00
2.55698	58.00
2.57365	58.00
2.59032	58.00
2.60698	58.00
2.62365	58.00
2.64032	58.00
2.65698	58.00
2.67365	58.00
2.69032	58.00
2.70698	58.00
2.72365	58.00
2.74032	58.00
2.75698	58.00
2.77365	58.00
2.79032	58.00
2.80698	58.00
2.82365	58.00
2.84032	58.00
2.85698	58.00
2.87365	58.00
2.89032	58.00
2.90698	58.00
2.92365	58.00
2.94032	58.00
2.95698	58.00
2.97365	58.00
2.99032	58.00
3.00698	58.00
3.02365	58.00
3.04032	58.00
3.05698	58.00
3.07365	58.00
3.09032	58.00
3.10698	58.00
3.12365	58.00
3.14032	58.00
3.15698	58.00
3.17365	58.00
3.19032	58.00
3.20698	58.00
3.22365	58.00
3.24032	58.00
3.25698	58.00
3.27365	58.00
3.29032	58.00
3.30698	58.00
3.32365	58.00
3.34032	58.00
3.35698	58.00
3.37365	58.00
3.39032	58.00
3.40698	58.00
3.42365	58.00
3.44032	58.00
3.45698	58.00
3.47365	58.00
3.49032	58.00
3.50698	58.00
3.52365	58.00
3.54032	58.00
3.55698	58.00
3.57365	58.00
3.59032	58.00
3.60698	58.00
3.62365	58.00
3.64032	58.00
3.65698	58.00
3.67365	58.00
3.69032	58.00
3.70698	58.00
3.72365	58.00
3.74032	58.00
3.75698	58.00
3.77365	58.00
3.79032	58.00
3.80698	58.00
3.82365	58.00
3.84032	58.00
3.85698	58.00
3.87365	58.00
3.89032	58.00
3.90698	58.00
3.92365	58.00
3.94032	58.00
3.95698	58.00
3.97365	58.00
3.99032	58.00

[Status Trace (Carrier Gas Flow)]
Interval(msec)	1000
# of Points	240
Start Time(min)	0.007
End Time(min)	3.990
Intensity Units	
Intensity Multiplier	1
R.Time (min)	Intensity
0.00698	34.52
0.02365	34.54
0.04032	34.55
0.05698	34.55
0.07365	34.50
0.09032	34.52
0.10698	34.52
0.12365	34.51
0.14032	34.51
0.15698	34.52
0.17365	34.52
0.19032	34.52
0.20698	34.52
0.22365	34.52
0.24032	34.52
0.25698	34.52
0.27365	34.53
0.29032	34.52
0.30698	34.52
0.32365	34.53
0.34032	34.52
0.35698	34.51
0.37365	34.51
0.39032	34.52
0.40698	34.52
0.42365	34.52
0.44032	34.51
0.45698	34.52
0.47365	34.52
0.49032	34.52
0.50698	34.52
0.52365	34.52
0.54032	34.52
0.55698	34.52
0.57365	34.51
0.59032	34.52
0.60698	34.52
0.62365	34.52
0.64032	34.52
0.65698	34.52
0.67365	34.52
0.69032	34.51
0.70698	34.52
0.72365	34.52
0.74032	34.52
0.75698	34.52
0.77365	34.52
0.79032	34.52
0.80698	34.51
0.82365	34.52
0.84032	34.52
0.85698	34.52
0.87365	34.52
0.89032	34.52
0.90698	34.52
0.92365	34.52
0.94032	34.52
0.95698	34.52
0.97365	34.52
0.99032	34.52
1.00698	34.52
1.02365	34.52
1.04032	34.52
1.05698	34.52
1.07365	34.52
1.09032	34.52
1.10698	34.52
1.12365	34.52
1.14032	34.52
1.15698	34.52
1.17365	34.52
1.19032	34.51
1.20698	34.52
1.22365	34.52
1.24032	34.52
1.25698	34.51
1.27365	34.52
1.29032	34.52
1.30698	34.52
1.32365	34.51
1.34032	34.52
1.35698	34.52
1.37365	34.52
1.39032	34.52
1.40698	34.52
1.42365	34.52
1.44032	34.52
1.45698	34.52
1.47365	34.52
1.49032	34.51
1.50698	34.52
1.52365	34.52
1.54032	34.52
1.55698	34.52
1.57365	34.52
1.59032	34.52
1.60698	34.52
1.62365	34.51
1.64032	34.52
1.65698	34.52
1.67365	34.52
1.69032	34.51
1.70698	34.52
1.72365	34.52
1.74032	34.52
1.75698	34.52
1.77365	34.53
1.79032	34.51
1.80698	34.52
1.82365	34.52
1.84032	34.52
1.85698	34.52
1.87365	34.51
1.89032	34.52
1.90698	34.53
1.92365	34.52
1.94032	34.51
1.95698	34.52
1.97365	34.52
1.99032	34.52
2.00698	34.52
2.02365	34.52
2.04032	34.52
2.05698	34.52
2.07365	34.52
2.09032	34.52
2.10698	34.52
2.12365	34.52
2.14032	34.52
2.15698	34.52
2.17365	34.51
2.19032	34.52
2.20698	34.52
2.22365	34.52
2.24032	34.51
2.25698	34.52
2.27365	34.52
2.29032	34.51
2.30698	34.52
2.32365	34.52
2.34032	34.51
2.35698	34.51
2.37365	34.52
2.39032	34.52
2.40698	34.52
2.42365	34.52
2.44032	34.52
2.45698	34.53
2.47365	34.51
2.49032	34.52
2.50698	34.34
2.52365	34.52
2.54032	34.52
2.55698	34.52
2.57365	34.52
2.59032	34.52
2.60698	34.51
2.62365	34.52
2.64032	34.52
2.65698	34.51
2.67365	34.52
2.69032	34.52
2.70698	34.51
2.72365	34.52
2.74032	34.52
2.75698	34.52
2.77365	34.52
2.79032	34.52
2.80698	34.52
2.82365	34.52
2.84032	34.52
2.85698	34.52
2.87365	34.52
2.89032	34.51
2.90698	34.52
2.92365	34.52
2.94032	34.52
2.95698	34.52
2.97365	34.52
2.99032	34.52
3.00698	34.52
3.02365	34.52
3.04032	34.52
3.05698	34.52
3.07365	34.52
3.09032	34.52
3.10698	34.52
3.12365	34.52
3.14032	34.52
3.15698	34.52
3.17365	34.52
3.19032	34.52
3.20698	34.52
3.22365	34.52
3.24032	34.52
3.25698	34.52
3.27365	34.52
3.29032	34.52
3.30698	34.52
3.32365	34.52
3.34032	34.51
3.35698	34.52
3.37365	34.52
3.39032	34.52
3.40698	34.52
3.42365	34.52
3.44032	34.52
3.45698	34.52
3.47365	34.52
3.49032	34.52
3.50698	34.52
3.52365	34.52
3.54032	34.52
3.55698	34.52
3.57365	34.52
3.59032	34.52
3.60698	34.52
3.62365	34.52
3.64032	34.52
3.65698	34.51
3.67365	34.52
3.69032	34.52
3.70698	34.52
3.72365	34.52
3.74032	34.52
3.75698	34.52
3.77365	34.52
3.79032	34.52
3.80698	34.52
3.82365	34.52
3.84032	34.52
3.85698	34.52
3.87365	34.52
3.89032	34.52
3.90698	34.52
3.92365	34.52
3.94032	34.52
3.95698	34.52
3.97365	34.52
3.99032	34.52

[Status Trace (Column Flow)]
Interval(msec)	1000
# of Points	240
Start Time(min)	0.007
End Time(min)	3.990
Intensity Units	
Intensity Multiplier	1
R.Time (min)	Intensity
0.00698	5.54
0.02365	5.24
0.04032	5.42
0.05698	5.68
0.07365	5.70
0.09032	5.54
0.10698	5.53
0.12365	5.54
0.14032	5.54
0.15698	5.54
0.17365	5.54
0.19032	5.54
0.20698	5.54
0.22365	5.54
0.24032	5.54
0.25698	5.54
0.27365	5.54
0.29032	5.54
0.30698	5.54
0.32365	5.54
0.34032	5.54
0.35698	5.54
0.37365	5.54
0.39032	5.54
0.40698	5.54
0.42365	5.54
0.44032	5.54
0.45698	5.54
0.47365	5.54
0.49032	5.54
0.50698	5.54
0.52365	5.54
0.54032	5.54
0.55698	5.54
0.57365	5.54
0.59032	5.54
0.60698	5.54
0.62365	5.54
0.64032	5.54
0.65698	5.54
0.67365	5.54
0.69032	5.54
0.70698	5.54
0.72365	5.54
0.74032	5.54
0.75698	5.54
0.77365	5.54
0.79032	5.54
0.80698	5.54
0.82365	5.54
0.84032	5.54
0.85698	5.54
0.87365	5.54
0.89032	5.54
0.90698	5.54
0.92365	5.54
0.94032	5.54
0.95698	5.54
0.97365	5.54
0.99032	5.54
1.00698	5.54
1.02365	5.54
1.04032	5.54
1.05698	5.54
1.07365	5.54
1.09032	5.54
1.10698	5.54
1.12365	5.54
1.14032	5.54
1.15698	5.54
1.17365	5.54
1.19032	5.54
1.20698	5.54
1.22365	5.54
1.24032	5.54
1.25698	5.54
1.27365	5.54
1.29032	5.54
1.30698	5.54
1.32365	5.54
1.34032	5.54
1.35698	5.54
1.37365	5.54
1.39032	5.54
1.40698	5.54
1.42365	5.54
1.44032	5.54
1.45698	5.54
1.47365	5.54
1.49032	5.54
1.50698	5.54
1.52365	5.54
1.54032	5.54
1.55698	5.54
1.57365	5.54
1.59032	5.54
1.60698	5.54
1.62365	5.53
1.64032	5.53
1.65698	5.52
1.67365	5.51
1.69032	5.50
1.70698	5.49
1.72365	5.48
1.74032	5.47
1.75698	5.46
1.77365	5.45
1.79032	5.44
1.80698	5.43
1.82365	5.41
1.84032	5.40
1.85698	5.39
1.87365	5.38
1.89032	5.38
1.90698	5.37
1.92365	5.36
1.94032	5.35
1.95698	5.34
1.97365	5.33
1.99032	5.32
2.00698	5.31
2.02365	5.30
2.04032	5.29
2.05698	5.28
2.07365	5.27
2.09032	5.26
2.10698	5.25
2.12365	5.24
2.14032	5.23
2.15698	5.22
2.17365	5.21
2.19032	5.20
2.20698	5.19
2.22365	5.18
2.24032	5.17
2.25698	5.16
2.27365	5.15
2.29032	5.15
2.30698	5.14
2.32365	5.13
2.34032	5.12
2.35698	5.11
2.37365	5.10
2.39032	5.10
2.40698	5.10
2.42365	5.10
2.44032	5.10
2.45698	5.10
2.47365	5.10
2.49032	5.10
2.50698	5.10
2.52365	5.10
2.54032	5.10
2.55698	5.10
2.57365	5.10
2.59032	5.10
2.60698	5.10
2.62365	5.10
2.64032	5.10
2.65698	5.10
2.67365	5.10
2.69032	5.10
2.70698	5.10
2.72365	5.10
2.74032	5.10
2.75698	5.10
2.77365	5.10
2.79032	5.10
2.80698	5.10
2.82365	5.10
2.84032	5.10
2.85698	5.10
2.87365	5.10
2.89032	5.10
2.90698	5.10
2.92365	5.10
2.94032	5.10
2.95698	5.09
2.97365	5.09
2.99032	5.09
3.00698	5.09
3.02365	5.09
3.04032	5.09
3.05698	5.09
3.07365	5.09
3.09032	5.09
3.10698	5.09
3.12365	5.09
3.14032	5.09
3.15698	5.09
3.17365	5.09
3.19032	5.09
3.20698	5.09
3.22365	5.09
3.24032	5.09
3.25698	5.09
3.27365	5.09
3.29032	5.09
3.30698	5.09
3.32365	5.09
3.34032	5.09
3.35698	5.09
3.37365	5.09
3.39032	5.09
3.40698	5.09
3.42365	5.09
3.44032	5.09
3.45698	5.09
3.47365	5.09
3.49032	5.09
3.50698	5.09
3.52365	5.09
3.54032	5.09
3.55698	5.09
3.57365	5.09
3.59032	5.09
3.60698	5.09
3.62365	5.09
3.64032	5.09
3.65698	5.09
3.67365	5.09
3.69032	5.09
3.70698	5.09
3.72365	5.09
3.74032	5.09
3.75698	5.09
3.77365	5.09
3.79032	5.09
3.80698	5.09
3.82365	5.09
3.84032	5.09
3.85698	5.09
3.87365	5.09
3.89032	5.09
3.90698	5.09
3.92365	5.09
3.94032	5.09
3.95698	5.09
3.97365	5.09
3.99032	5.09

[Status Trace (Linear Velocity)]
Interval(msec)	1000
# of Points	240
Start Time(min)	0.007
End Time(min)	3.990
Intensity Units	
Intensity Multiplier	1
R.Time (min)	Intensity
0.00698	39.01
0.02365	37.35
0.04032	38.34
0.05698	39.82
0.07365	39.91
0.09032	39.06
0.10698	39.00
0.12365	39.02
0.14032	39.02
0.15698	39.02
0.17365	39.02
0.19032	39.02
0.20698	39.02
0.22365	39.02
0.24032	39.02
0.25698	39.02
0.27365	39.02
0.29032	39.02
0.30698	39.02
0.32365	39.02
0.34032	39.02
0.35698	39.02
0.37365	39.02
0.39032	39.02
0.40698	39.02
0.42365	39.02
0.44032	39.02
0.45698	39.02
0.47365	39.02
0.49032	39.02
0.50698	39.02
0.52365	39.02
0.54032	39.02
0.55698	39.02
0.57365	39.02
0.59032	39.02
0.60698	39.02
0.62365	39.02
0.64032	39.02
0.65698	39.02
0.67365	39.02
0.69032	39.02
0.70698	39.02
0.72365	39.02
0.74032	39.02
0.75698	39.02
0.77365	39.02
0.79032	39.02
0.80698	39.02
0.82365	39.02
0.84032	39.02
0.85698	39.02
0.87365	39.02
0.89032	39.02
0.90698	39.02
0.92365	39.02
0.94032	39.02
0.95698	39.02
0.97365	39.02
0.99032	39.02
1.00698	39.02
1.02365	39.02
1.04032	39.02
1.05698	39.02
1.07365	39.02
1.09032	39.02
1.10698	39.02
1.12365	39.02
1.14032	39.02
1.15698	39.02
1.17365	39.02
1.19032	39.02
1.20698	39.02
1.22365	39.02
1.24032	39.02
1.25698	39.02
1.27365	39.02
1.29032	39.02
1.30698	39.02
1.32365	39.02
1.34032	39.02
1.35698	39.02
1.37365	39.02
1.39032	39.02
1.40698	39.02
1.42365	39.02
1.44032	39.02
1.45698	39.02
1.47365	39.02
1.49032	39.02
1.50698	39.02
1.52365	39.02
1.54032	39.02
1.55698	39.02
1.57365	39.02
1.59032	39.02
1.60698	39.02
1.62365	39.01
1.64032	38.99
1.65698	38.97
1.67365	38.94
1.69032	38.90
1.70698	38.86
1.72365	38.83
1.74032	38.80
1.75698	38.77
1.77365	38.74
1.79032	38.70
1.80698	38.67
1.82365	38.64
1.84032	38.61
1.85698	38.58
1.87365	38.55
1.89032	38.52
1.90698	38.49
1.92365	38.46
1.94032	38.43
1.95698	38.40
1.97365	38.37
1.99032	38.34
2.00698	38.31
2.02365	38.28
2.04032	38.25
2.05698	38.22
2.07365	38.19
2.09032	38.16
2.10698	38.13
2.12365	38.10
2.14032	38.07
2.15698	38.04
2.17365	38.01
2.19032	37.98
2.20698	37.95
2.22365	37.92
2.24032	37.89
2.25698	37.86
2.27365	37.83
2.29032	37.80
2.30698	37.77
2.32365	37.74
2.34032	37.71
2.35698	37.69
2.37365	37.67
2.39032	37.66
2.40698	37.66
2.42365	37.66
2.44032	37.66
2.45698	37.66
2.47365	37.66
2.49032	37.66
2.50698	37.66
2.52365	37.65
2.54032	37.65
2.55698	37.66
2.57365	37.66
2.59032	37.66
2.60698	37.65
2.62365	37.65
2.64032	37.65
2.65698	37.65
2.67365	37.65
2.69032	37.65
2.70698	37.65
2.72365	37.65
2.74032	37.65
2.75698	37.65
2.77365	37.65
2.79032	37.65
2.80698	37.65
2.82365	37.65
2.84032	37.65
2.85698	37.65
2.87365	37.65
2.89032	37.65
2.90698	37.65
2.92365	37.64
2.94032	37.64
2.95698	37.64
2.97365	37.64
2.99032	37.64
3.00698	37.64
3.02365	37.64
3.04032	37.64
3.05698	37.64
3.07365	37.64
3.09032	37.64
3.10698	37.64
3.12365	37.64
3.14032	37.64
3.15698	37.63
3.17365	37.63
3.19032	37.63
3.20698	37.63
3.22365	37.63
3.24032	37.63
3.25698	37.63
3.27365	37.63
3.29032	37.63
3.30698	37.63
3.32365	37.63
3.34032	37.63
3.35698	37.63
3.37365	37.63
3.39032	37.63
3.40698	37.63
3.42365	37.63
3.44032	37.63
3.45698	37.63
3.47365	37.63
3.49032	37.63
3.50698	37.63
3.52365	37.63
3.54032	37.63
3.55698	37.63
3.57365	37.63
3.59032	37.63
3.60698	37.63
3.62365	37.63
3.64032	37.63
3.65698	37.63
3.67365	37.63
3.69032	37.63
3.70698	37.63
3.72365	37.63
3.74032	37.63
3.75698	37.63
3.77365	37.63
3.79032	37.63
3.80698	37.63
3.82365	37.63
3.84032	37.63
3.85698	37.63
3.87365	37.63
3.89032	37.63
3.90698	37.63
3.92365	37.63
3.94032	37.63
3.95698	37.63
3.97365	37.63
3.99032	37.63

