[Header]
Application Name	LabSolutions
Version	5.110
Data File Name	C:\Users\User\Desktop\Junior\UIC Prairie Sampling\5.18.23\05182023_002.gcd
Output Date	6/5/2023
Output Time	2:17:24 PM

[File Information]
Type	Data File
Generated	5/24/2023 11:47:46 AM
Generated by	System Administrator
Modified	5/24/2023 11:54:40 AM
Modified by	System Administrator

[Sample Information]
Operator Name	System Administrator
Acquired	5/24/2023 11:50:39 AM
Sample Type	0:Unknown
Level	0
Sample Name	002
Sample ID	002
ISTD Amount1	1
ISTD Amount2	1
ISTD Amount3	1
ISTD Amount4	1
ISTD Amount5	1
ISTD Amount6	1
ISTD Amount7	1
ISTD Amount8	1
ISTD Amount9	1
ISTD Amount10	1
ISTD Amount11	1
ISTD Amount12	1
ISTD Amount13	1
ISTD Amount14	1
ISTD Amount15	1
ISTD Amount16	1
ISTD Amount17	1
ISTD Amount18	1
ISTD Amount19	1
ISTD Amount20	1
ISTD Amount21	1
ISTD Amount22	1
ISTD Amount23	1
ISTD Amount24	1
ISTD Amount25	1
ISTD Amount26	1
ISTD Amount27	1
ISTD Amount28	1
ISTD Amount29	1
ISTD Amount30	1
ISTD Amount31	1
ISTD Amount32	1
Sample Amount	1
Dilution Factor	1
Vial#	1
Injection Volume	1
Injection Count	1
Bar Code	

[Original Files]
Data File	C:\Users\User\Desktop\Junior\UIC Prairie Sampling\5.18.23\05182023_002.gcd
Method File	C:\LabSolutions\Data\GHG_4min_2022\ghg3_togas_w_acet_4 min_new_int.gcm
Batch File	C:\LabSolutions\Data\AutoSamplerTesting\05182023.gcb
Report Format File	c:\LabSolutions\System\DEFAULT.lsr

[File Description]


[Configuration]
Instrument Name	C0B7VH3-Instrument1
Instrument #	1
Line #	1
# of Detectors	3
Detector ID	DET#1	DET#2	DET#3
Detector Name	FID	PTCD	ECD
# of Channels	1	1	1

[Peak Table(Ch1)]
# of Peaks	3
Peak#	R.Time	I.Time	F.Time	Area	Height	A/H	Conc.	Mark	ID#	Name	k'	Plate #	Plate Ht.	Tailing	Resolution	Sep.Factor	Area Ratio	Height Ratio	Conc. %	Norm Conc.
1	1.479	1.432	1.512	506	247	2.053	0.000	   	1	CO	0.000	12218	12.277	0.833	0.000	0.000	0	0	0.000	0.000
2	1.564	1.527	1.630	17200	8764	1.963	83.856	   	2	CH4	0.057	11510	13.032	1.164	1.508	0.000	0	0	18.884	18.884
3	1.989	1.941	2.480	1869129	887945	2.105	360.215	   	3	CO2	0.345	17322	8.660	1.340	7.164	6.043	0	0	81.116	81.116

[Peak Table(Ch2)]
# of Peaks	0

[Peak Table(Ch3)]
# of Peaks	5
Peak#	R.Time	I.Time	F.Time	Area	Height	A/H	Conc.	Mark	ID#	Name	k'	Plate #	Plate Ht.	Tailing	Resolution	Sep.Factor	Area Ratio	Height Ratio	Conc. %	Norm Conc.
1	2.458	2.440	2.502	701	282	2.484	0.000	   			0.000	17531	8.556	0.000	0.000	0.000	0	0	0.000	0.000
2	2.517	2.502	2.561	328	142	2.313	0.000	 V 			0.024	7059	21.250	0.000	0.604	0.000	0	0	0.000	0.000
3	2.616	2.561	2.667	428	123	3.483	0.000	 V 			0.064	10794	13.896	0.000	0.898	2.688	0	0	0.000	0.000
4	2.891	2.689	3.082	48820	12694	3.846	0.722	   	1	N2O	0.176	12950	11.583	1.567	2.718	2.744	0	0	100.000	100.000
5	3.250	3.089	3.995	11637	453	25.686	0.000	   			0.322	281	533.104	2.763	0.820	1.831	0	0	0.000	0.000

[Compound Results(Ch1)]
# of IDs	6
ID#	Name	R.Time	Area	Height	Conc.	Curve	3rd	2nd	1st	Constant	Area Ratio	Height Ratio	Conc. %	Norm Conc.
1	CO	1.479	506	247	0.000	Linear	0.000000e+00	0.000000e+00	0.000000e+00	0.000000e+00	0	0	0.000	0.000
2	CH4	1.564	17200	8764	83.856	Linear	0.000000e+00	0.000000e+00	2.051179e+002	0.000000e+00	0	0	18.884	18.884
3	CO2	1.989	1869129	887945	360.215	Linear	0.000000e+00	0.000000e+00	5.188919e+003	0.000000e+00	0	0	81.116	81.116
4	Ethylene	0.000	0	0	0.000	Linear	0.000000e+00	0.000000e+00	0.000000e+00	0.000000e+00	0	0	0.000	0.000
5	Acetylene	0.000	0	0	0.000	Linear	0.000000e+00	0.000000e+00	0.000000e+00	0.000000e+00	0	0	0.000	0.000
6	Ethane	0.000	0	0	0.000	Linear	0.000000e+00	0.000000e+00	0.000000e+00	0.000000e+00	0	0	0.000	0.000

[Compound Results(Ch2)]
# of IDs	5
ID#	Name	R.Time	Area	Height	Conc.	Curve	3rd	2nd	1st	Constant	Area Ratio	Height Ratio	Conc. %	Norm Conc.
1	Hydrogen	0.000	0	0	0.000	Linear	0.000000e+00	0.000000e+00	0.000000e+00	0.000000e+00	0	0	0.000	0.000
2	Oxygen	0.000	0	0	0.000	Linear	0.000000e+00	0.000000e+00	0.000000e+00	0.000000e+00	0	0	0.000	0.000
3	Nitrogen	0.000	0	0	0.000	Linear	0.000000e+00	0.000000e+00	0.000000e+00	0.000000e+00	0	0	0.000	0.000
4	Methane	0.000	0	0	0.000	Linear	0.000000e+00	0.000000e+00	0.000000e+00	0.000000e+00	0	0	0.000	0.000
5	Carbon Monoxide	0.000	0	0	0.000	Linear	0.000000e+00	0.000000e+00	0.000000e+00	0.000000e+00	0	0	0.000	0.000

[Compound Results(Ch3)]
# of IDs	2
ID#	Name	R.Time	Area	Height	Conc.	Curve	3rd	2nd	1st	Constant	Area Ratio	Height Ratio	Conc. %	Norm Conc.
1	N2O	2.891	48820	12694	0.722	Linear	0.000000e+00	0.000000e+00	6.759880e+004	0.000000e+00	0	0	100.000	100.000
2	SF6	0.000	0	0	0.000	Linear	0.000000e+00	0.000000e+00	0.000000e+00	0.000000e+00	0	0	0.000	0.000

[Group Results(Ch1)]
# of Groups	0

[Group Results(Ch2)]
# of Groups	0

[Group Results(Ch3)]
# of Groups	0

[Chromatogram (Ch1)]
Interval(msec)	220
# of Points	1091
Start Time(min)	0.002
End Time(min)	3.998
R.Time (min)	Intensity
0.00167	19
0.00533	22
0.00900	26
0.01267	30
0.01633	34
0.02000	36
0.02367	35
0.02733	34
0.03100	37
0.03467	37
0.03833	37
0.04200	35
0.04567	30
0.04933	26
0.05300	19
0.05667	17
0.06033	19
0.06400	16
0.06767	14
0.07133	13
0.07500	12
0.07867	10
0.08233	4
0.08600	-2
0.08967	-4
0.09333	-3
0.09700	2
0.10067	8
0.10433	11
0.10800	12
0.11167	12
0.11533	13
0.11900	14
0.12267	12
0.12633	8
0.13000	3
0.13367	-2
0.13733	-2
0.14100	2
0.14467	5
0.14833	6
0.15200	11
0.15567	17
0.15933	21
0.16300	26
0.16667	29
0.17033	27
0.17400	23
0.17767	16
0.18133	9
0.18500	7
0.18867	10
0.19233	16
0.19600	17
0.19967	11
0.20333	0
0.20700	-10
0.21067	-17
0.21433	-17
0.21800	-16
0.22167	-12
0.22533	-6
0.22900	-6
0.23267	-6
0.23633	-3
0.24000	2
0.24367	7
0.24733	11
0.25100	13
0.25467	12
0.25833	9
0.26200	7
0.26567	9
0.26933	10
0.27300	10
0.27667	11
0.28033	13
0.28400	16
0.28767	16
0.29133	15
0.29500	17
0.29867	20
0.30233	21
0.30600	22
0.30967	18
0.31333	12
0.31700	13
0.32067	17
0.32433	21
0.32800	22
0.33167	22
0.33533	18
0.33900	15
0.34267	16
0.34633	15
0.35000	13
0.35367	11
0.35733	5
0.36100	3
0.36467	4
0.36833	6
0.37200	6
0.37567	6
0.37933	8
0.38300	11
0.38667	13
0.39033	15
0.39400	15
0.39767	12
0.40133	3
0.40500	-5
0.40867	-7
0.41233	-5
0.41600	-2
0.41967	-0
0.42333	-4
0.42700	-9
0.43067	-13
0.43433	-13
0.43800	-9
0.44167	1
0.44533	13
0.44900	21
0.45267	19
0.45633	10
0.46000	4
0.46367	-1
0.46733	-1
0.47100	-2
0.47467	-3
0.47833	-0
0.48200	4
0.48567	3
0.48933	0
0.49300	1
0.49667	7
0.50033	12
0.50400	11
0.50767	5
0.51133	-1
0.51500	-4
0.51867	-8
0.52233	-14
0.52600	-18
0.52967	-15
0.53333	-8
0.53700	1
0.54067	9
0.54433	11
0.54800	7
0.55167	2
0.55533	-2
0.55900	-6
0.56267	-10
0.56633	-11
0.57000	-7
0.57367	2
0.57733	8
0.58100	7
0.58467	2
0.58833	-5
0.59200	-11
0.59567	-12
0.59933	-10
0.60300	-10
0.60667	-9
0.61033	-3
0.61400	4
0.61767	10
0.62133	13
0.62500	14
0.62867	8
0.63233	-5
0.63600	-18
0.63967	-24
0.64333	-23
0.64700	-19
0.65067	-16
0.65433	-16
0.65800	-16
0.66167	-12
0.66533	-3
0.66900	10
0.67267	18
0.67633	23
0.68000	24
0.68367	20
0.68733	12
0.69100	7
0.69467	8
0.69833	11
0.70200	13
0.70567	12
0.70933	13
0.71300	16
0.71667	20
0.72033	23
0.72400	25
0.72767	24
0.73133	16
0.73500	3
0.73867	-10
0.74233	-19
0.74600	-23
0.74967	-23
0.75333	-21
0.75700	-16
0.76067	-9
0.76433	-0
0.76800	8
0.77167	15
0.77533	21
0.77900	24
0.78267	20
0.78633	11
0.79000	3
0.79367	-1
0.79733	-2
0.80100	1
0.80467	8
0.80833	20
0.81200	28
0.81567	24
0.81933	13
0.82300	3
0.82667	-5
0.83033	-11
0.83400	-13
0.83767	-11
0.84133	-9
0.84500	-9
0.84867	-7
0.85233	-4
0.85600	-1
0.85967	-2
0.86333	-5
0.86700	-3
0.87067	5
0.87433	11
0.87800	11
0.88167	4
0.88533	-3
0.88900	-9
0.89267	-14
0.89633	-15
0.90000	-14
0.90367	-9
0.90733	-3
0.91100	5
0.91467	9
0.91833	8
0.92200	2
0.92567	-4
0.92933	-6
0.93300	-5
0.93667	-2
0.94033	1
0.94400	3
0.94767	3
0.95133	-3
0.95500	-8
0.95867	-14
0.96233	-17
0.96600	-18
0.96967	-14
0.97333	-8
0.97700	-3
0.98067	1
0.98433	4
0.98800	6
0.99167	6
0.99533	6
0.99900	8
1.00267	8
1.00633	4
1.01000	-2
1.01367	-4
1.01733	-2
1.02100	-2
1.02467	-8
1.02833	-12
1.03200	-13
1.03567	-11
1.03933	-11
1.04300	-13
1.04667	-16
1.05033	-16
1.05400	-10
1.05767	-2
1.06133	6
1.06500	13
1.06867	17
1.07233	14
1.07600	10
1.07967	5
1.08333	-3
1.08700	-12
1.09067	-18
1.09433	-21
1.09800	-19
1.10167	-12
1.10533	-1
1.10900	9
1.11267	14
1.11633	14
1.12000	9
1.12367	0
1.12733	-14
1.13100	-28
1.13467	-35
1.13833	-32
1.14200	-18
1.14567	-3
1.14933	1
1.15300	-1
1.15667	-6
1.16033	-8
1.16400	-5
1.16767	1
1.17133	5
1.17500	6
1.17867	2
1.18233	-4
1.18600	-12
1.18967	-18
1.19333	-19
1.19700	-16
1.20067	-10
1.20433	-4
1.20800	-0
1.21167	5
1.21533	7
1.21900	5
1.22267	3
1.22633	3
1.23000	3
1.23367	6
1.23733	9
1.24100	5
1.24467	-3
1.24833	-9
1.25200	-10
1.25567	-10
1.25933	-7
1.26300	-3
1.26667	1
1.27033	3
1.27400	1
1.27767	-2
1.28133	-7
1.28500	-9
1.28867	-9
1.29233	-8
1.29600	-5
1.29967	-1
1.30333	4
1.30700	3
1.31067	0
1.31433	1
1.31800	1
1.32167	-3
1.32533	-10
1.32900	-16
1.33267	-21
1.33633	-24
1.34000	-25
1.34367	-25
1.34733	-25
1.35100	-22
1.35467	-19
1.35833	-17
1.36200	-10
1.36567	4
1.36933	17
1.37300	19
1.37667	14
1.38033	12
1.38400	10
1.38767	6
1.39133	1
1.39500	-6
1.39867	-9
1.40233	-10
1.40600	-10
1.40967	-10
1.41333	-10
1.41700	-10
1.42067	-10
1.42433	-8
1.42800	-5
1.43167	-1
1.43533	14
1.43900	54
1.44267	91
1.44633	91
1.45000	75
1.45367	67
1.45733	70
1.46100	83
1.46467	106
1.46833	146
1.47200	199
1.47567	240
1.47933	248
1.48300	228
1.48667	192
1.49033	149
1.49400	105
1.49767	70
1.50133	46
1.50500	31
1.50867	18
1.51233	4
1.51600	-5
1.51967	-10
1.52333	-11
1.52700	-8
1.53067	18
1.53433	161
1.53800	646
1.54167	1689
1.54533	3234
1.54900	4961
1.55267	6530
1.55633	7749
1.56000	8527
1.56367	8760
1.56733	8349
1.57100	7331
1.57467	5947
1.57833	4505
1.58200	3237
1.58567	2240
1.58933	1509
1.59300	992
1.59667	642
1.60033	412
1.60400	263
1.60767	170
1.61133	111
1.61500	71
1.61867	41
1.62233	21
1.62600	10
1.62967	4
1.63333	0
1.63700	-4
1.64067	-7
1.64433	-9
1.64800	-10
1.65167	-14
1.65533	-18
1.65900	-23
1.66267	-28
1.66633	-31
1.67000	-31
1.67367	-31
1.67733	-29
1.68100	-23
1.68467	-16
1.68833	-12
1.69200	-15
1.69567	-24
1.69933	-34
1.70300	-41
1.70667	-43
1.71033	-39
1.71400	-32
1.71767	-25
1.72133	-22
1.72500	-25
1.72867	-34
1.73233	-45
1.73600	-55
1.73967	-60
1.74333	-60
1.74700	-56
1.75067	-51
1.75433	-46
1.75800	-40
1.76167	-36
1.76533	-32
1.76900	-28
1.77267	-25
1.77633	-24
1.78000	-25
1.78367	-27
1.78733	-29
1.79100	-32
1.79467	-38
1.79833	-40
1.80200	-41
1.80567	-39
1.80933	-37
1.81300	-39
1.81667	-43
1.82033	-44
1.82400	-44
1.82767	-47
1.83133	-50
1.83500	-50
1.83867	-46
1.84233	-37
1.84600	-26
1.84967	-17
1.85333	-13
1.85700	-19
1.86067	-27
1.86433	-35
1.86800	-39
1.87167	-39
1.87533	-33
1.87900	-23
1.88267	-19
1.88633	-21
1.89000	-23
1.89367	-27
1.89733	-30
1.90100	-31
1.90467	-31
1.90833	-32
1.91200	-28
1.91567	-20
1.91933	-12
1.92300	-10
1.92667	-16
1.93033	-26
1.93400	-35
1.93767	-34
1.94133	-25
1.94500	-10
1.94867	86
1.95233	680
1.95600	3606
1.95967	14483
1.96333	45217
1.96700	112322
1.97067	226474
1.97433	380514
1.97800	550471
1.98167	706898
1.98533	824996
1.98900	887953
1.99267	887243
1.99633	825814
2.00000	718560
2.00367	587601
2.00733	455246
2.01100	337652
2.01467	242496
2.01833	170547
2.02200	118698
2.02567	82540
2.02933	57835
2.03300	41143
2.03667	29903
2.04033	22314
2.04400	17140
2.04767	13558
2.05133	11028
2.05500	9200
2.05867	7850
2.06233	6822
2.06600	6015
2.06967	5368
2.07333	4837
2.07700	4393
2.08067	4023
2.08433	3709
2.08800	3440
2.09167	3205
2.09533	2999
2.09900	2819
2.10267	2658
2.10633	2509
2.11000	2371
2.11367	2249
2.11733	2139
2.12100	2036
2.12467	1938
2.12833	1845
2.13200	1757
2.13567	1680
2.13933	1615
2.14300	1557
2.14667	1497
2.15033	1438
2.15400	1387
2.15767	1342
2.16133	1301
2.16500	1262
2.16867	1224
2.17233	1186
2.17600	1149
2.17967	1111
2.18333	1074
2.18700	1037
2.19067	1005
2.19433	979
2.19800	950
2.20167	918
2.20533	886
2.20900	855
2.21267	830
2.21633	810
2.22000	795
2.22367	784
2.22733	774
2.23100	762
2.23467	748
2.23833	734
2.24200	720
2.24567	709
2.24933	693
2.25300	676
2.25667	660
2.26033	647
2.26400	633
2.26767	621
2.27133	611
2.27500	603
2.27867	597
2.28233	592
2.28600	586
2.28967	574
2.29333	561
2.29700	550
2.30067	538
2.30433	525
2.30800	513
2.31167	504
2.31533	497
2.31900	492
2.32267	491
2.32633	495
2.33000	495
2.33367	489
2.33733	479
2.34100	466
2.34467	455
2.34833	447
2.35200	443
2.35567	441
2.35933	438
2.36300	437
2.36667	437
2.37033	431
2.37400	418
2.37767	408
2.38133	402
2.38500	399
2.38867	398
2.39233	397
2.39600	399
2.39967	403
2.40333	406
2.40700	404
2.41067	402
2.41433	404
2.41800	404
2.42167	399
2.42533	395
2.42900	389
2.43267	381
2.43633	373
2.44000	366
2.44367	360
2.44733	356
2.45100	357
2.45467	361
2.45833	366
2.46200	373
2.46567	375
2.46933	371
2.47300	366
2.47667	358
2.48033	348
2.48400	338
2.48767	335
2.49133	334
2.49500	334
2.49867	338
2.50233	345
2.50600	354
2.50967	362
2.51333	365
2.51700	364
2.52067	362
2.52433	359
2.52800	357
2.53167	356
2.53533	352
2.53900	347
2.54267	339
2.54633	333
2.55000	332
2.55367	334
2.55733	337
2.56100	338
2.56467	336
2.56833	335
2.57200	337
2.57567	343
2.57933	347
2.58300	347
2.58667	343
2.59033	335
2.59400	326
2.59767	323
2.60133	325
2.60500	326
2.60867	324
2.61233	322
2.61600	321
2.61967	318
2.62333	314
2.62700	316
2.63067	324
2.63433	333
2.63800	340
2.64167	341
2.64533	340
2.64900	338
2.65267	337
2.65633	337
2.66000	336
2.66367	335
2.66733	331
2.67100	328
2.67467	326
2.67833	329
2.68200	334
2.68567	343
2.68933	353
2.69300	359
2.69667	363
2.70033	367
2.70400	369
2.70767	367
2.71133	363
2.71500	358
2.71867	354
2.72233	351
2.72600	349
2.72967	345
2.73333	344
2.73700	346
2.74067	345
2.74433	349
2.74800	354
2.75167	357
2.75533	353
2.75900	349
2.76267	347
2.76633	348
2.77000	353
2.77367	362
2.77733	372
2.78100	375
2.78467	374
2.78833	370
2.79200	364
2.79567	359
2.79933	355
2.80300	351
2.80667	346
2.81033	347
2.81400	357
2.81767	364
2.82133	365
2.82500	364
2.82867	363
2.83233	363
2.83600	365
2.83967	367
2.84333	367
2.84700	365
2.85067	364
2.85433	364
2.85800	363
2.86167	362
2.86533	362
2.86900	365
2.87267	370
2.87633	369
2.88000	367
2.88367	365
2.88733	367
2.89100	377
2.89467	387
2.89833	392
2.90200	389
2.90567	382
2.90933	373
2.91300	369
2.91667	372
2.92033	380
2.92400	385
2.92767	383
2.93133	379
2.93500	378
2.93867	381
2.94233	386
2.94600	390
2.94967	392
2.95333	391
2.95700	389
2.96067	390
2.96433	390
2.96800	391
2.97167	393
2.97533	398
2.97900	403
2.98267	407
2.98633	406
2.99000	398
2.99367	391
2.99733	387
3.00100	389
3.00467	391
3.00833	389
3.01200	387
3.01567	389
3.01933	393
3.02300	396
3.02667	396
3.03033	396
3.03400	395
3.03767	396
3.04133	399
3.04500	400
3.04867	400
3.05233	399
3.05600	398
3.05967	393
3.06333	388
3.06700	391
3.07067	397
3.07433	403
3.07800	409
3.08167	412
3.08533	414
3.08900	417
3.09267	419
3.09633	419
3.10000	422
3.10367	425
3.10733	426
3.11100	424
3.11467	416
3.11833	409
3.12200	409
3.12567	412
3.12933	412
3.13300	413
3.13667	412
3.14033	409
3.14400	406
3.14767	405
3.15133	408
3.15500	411
3.15867	411
3.16233	410
3.16600	407
3.16967	403
3.17333	400
3.17700	401
3.18067	409
3.18433	414
3.18800	413
3.19167	406
3.19533	398
3.19900	396
3.20267	399
3.20633	404
3.21000	407
3.21367	407
3.21733	404
3.22100	402
3.22467	400
3.22833	397
3.23200	389
3.23567	384
3.23933	386
3.24300	390
3.24667	394
3.25033	397
3.25400	399
3.25767	398
3.26133	396
3.26500	397
3.26867	403
3.27233	408
3.27600	410
3.27967	410
3.28333	408
3.28700	405
3.29067	402
3.29433	401
3.29800	403
3.30167	405
3.30533	408
3.30900	411
3.31267	408
3.31633	403
3.32000	398
3.32367	397
3.32733	399
3.33100	403
3.33467	407
3.33833	409
3.34200	407
3.34567	403
3.34933	400
3.35300	396
3.35667	393
3.36033	393
3.36400	394
3.36767	395
3.37133	397
3.37500	401
3.37867	405
3.38233	407
3.38600	404
3.38967	398
3.39333	393
3.39700	393
3.40067	397
3.40433	400
3.40800	400
3.41167	395
3.41533	387
3.41900	382
3.42267	380
3.42633	382
3.43000	388
3.43367	392
3.43733	392
3.44100	392
3.44467	390
3.44833	387
3.45200	381
3.45567	381
3.45933	385
3.46300	390
3.46667	392
3.47033	389
3.47400	384
3.47767	377
3.48133	372
3.48500	370
3.48867	371
3.49233	372
3.49600	376
3.49967	379
3.50333	378
3.50700	377
3.51067	378
3.51433	382
3.51800	385
3.52167	385
3.52533	384
3.52900	383
3.53267	379
3.53633	373
3.54000	367
3.54367	368
3.54733	376
3.55100	385
3.55467	396
3.55833	403
3.56200	403
3.56567	396
3.56933	386
3.57300	377
3.57667	364
3.58033	352
3.58400	347
3.58767	347
3.59133	353
3.59500	365
3.59867	378
3.60233	383
3.60600	381
3.60967	376
3.61333	370
3.61700	367
3.62067	368
3.62433	368
3.62800	367
3.63167	366
3.63533	369
3.63900	373
3.64267	375
3.64633	371
3.65000	362
3.65367	349
3.65733	341
3.66100	339
3.66467	342
3.66833	349
3.67200	357
3.67567	360
3.67933	365
3.68300	375
3.68667	382
3.69033	386
3.69400	382
3.69767	375
3.70133	366
3.70500	360
3.70867	359
3.71233	358
3.71600	358
3.71967	358
3.72333	357
3.72700	357
3.73067	353
3.73433	352
3.73800	353
3.74167	358
3.74533	363
3.74900	368
3.75267	370
3.75633	368
3.76000	363
3.76367	359
3.76733	359
3.77100	363
3.77467	363
3.77833	360
3.78200	361
3.78567	361
3.78933	363
3.79300	362
3.79667	358
3.80033	355
3.80400	353
3.80767	353
3.81133	356
3.81500	357
3.81867	353
3.82233	348
3.82600	345
3.82967	344
3.83333	346
3.83700	349
3.84067	355
3.84433	365
3.84800	372
3.85167	375
3.85533	378
3.85900	378
3.86267	375
3.86633	368
3.87000	358
3.87367	351
3.87733	343
3.88100	334
3.88467	325
3.88833	318
3.89200	315
3.89567	317
3.89933	325
3.90300	331
3.90667	336
3.91033	346
3.91400	356
3.91767	361
3.92133	361
3.92500	359
3.92867	359
3.93233	359
3.93600	357
3.93967	354
3.94333	349
3.94700	342
3.95067	335
3.95433	335
3.95800	342
3.96167	345
3.96533	341
3.96900	333
3.97267	329
3.97633	329
3.98000	331
3.98367	331
3.98733	330
3.99100	331
3.99467	333
3.99833	336

[Chromatogram (Ch2)]
Interval(msec)	220
# of Points	1091
Start Time(min)	0.002
End Time(min)	3.998
R.Time (min)	Intensity
0.00167	-0
0.00533	-0
0.00900	-0
0.01267	0
0.01633	1
0.02000	1
0.02367	1
0.02733	1
0.03100	2
0.03467	2
0.03833	2
0.04200	2
0.04567	2
0.04933	2
0.05300	2
0.05667	2
0.06033	2
0.06400	2
0.06767	2
0.07133	2
0.07500	2
0.07867	2
0.08233	2
0.08600	2
0.08967	2
0.09333	2
0.09700	2
0.10067	2
0.10433	2
0.10800	2
0.11167	2
0.11533	2
0.11900	2
0.12267	2
0.12633	2
0.13000	2
0.13367	2
0.13733	2
0.14100	2
0.14467	2
0.14833	2
0.15200	2
0.15567	2
0.15933	2
0.16300	2
0.16667	2
0.17033	2
0.17400	2
0.17767	2
0.18133	2
0.18500	1
0.18867	1
0.19233	1
0.19600	1
0.19967	1
0.20333	1
0.20700	1
0.21067	1
0.21433	1
0.21800	1
0.22167	1
0.22533	1
0.22900	1
0.23267	1
0.23633	2
0.24000	2
0.24367	2
0.24733	2
0.25100	2
0.25467	2
0.25833	2
0.26200	1
0.26567	1
0.26933	1
0.27300	0
0.27667	0
0.28033	0
0.28400	-0
0.28767	-0
0.29133	-0
0.29500	-0
0.29867	-0
0.30233	0
0.30600	1
0.30967	1
0.31333	1
0.31700	1
0.32067	1
0.32433	1
0.32800	1
0.33167	1
0.33533	1
0.33900	1
0.34267	1
0.34633	1
0.35000	0
0.35367	0
0.35733	0
0.36100	-0
0.36467	-0
0.36833	-0
0.37200	-0
0.37567	-0
0.37933	-0
0.38300	-0
0.38667	-0
0.39033	-0
0.39400	-0
0.39767	-1
0.40133	-1
0.40500	-0
0.40867	-0
0.41233	-0
0.41600	-0
0.41967	-0
0.42333	-1
0.42700	-1
0.43067	-1
0.43433	-1
0.43800	-1
0.44167	-1
0.44533	-0
0.44900	-0
0.45267	0
0.45633	0
0.46000	1
0.46367	1
0.46733	1
0.47100	1
0.47467	1
0.47833	1
0.48200	1
0.48567	1
0.48933	1
0.49300	1
0.49667	1
0.50033	1
0.50400	1
0.50767	1
0.51133	1
0.51500	1
0.51867	2
0.52233	2
0.52600	2
0.52967	2
0.53333	2
0.53700	2
0.54067	3
0.54433	3
0.54800	3
0.55167	3
0.55533	3
0.55900	3
0.56267	3
0.56633	3
0.57000	2
0.57367	2
0.57733	2
0.58100	2
0.58467	2
0.58833	2
0.59200	2
0.59567	2
0.59933	2
0.60300	2
0.60667	2
0.61033	2
0.61400	2
0.61767	2
0.62133	2
0.62500	2
0.62867	2
0.63233	2
0.63600	2
0.63967	2
0.64333	2
0.64700	2
0.65067	1
0.65433	1
0.65800	1
0.66167	1
0.66533	1
0.66900	1
0.67267	1
0.67633	0
0.68000	0
0.68367	1
0.68733	1
0.69100	1
0.69467	1
0.69833	1
0.70200	1
0.70567	1
0.70933	1
0.71300	1
0.71667	1
0.72033	1
0.72400	1
0.72767	1
0.73133	1
0.73500	1
0.73867	1
0.74233	1
0.74600	2
0.74967	2
0.75333	2
0.75700	1
0.76067	1
0.76433	1
0.76800	1
0.77167	1
0.77533	1
0.77900	0
0.78267	0
0.78633	0
0.79000	-0
0.79367	-0
0.79733	-0
0.80100	-0
0.80467	-0
0.80833	-0
0.81200	-1
0.81567	-1
0.81933	-1
0.82300	-1
0.82667	-1
0.83033	-1
0.83400	-1
0.83767	-1
0.84133	-1
0.84500	-1
0.84867	-1
0.85233	-1
0.85600	-1
0.85967	-1
0.86333	-2
0.86700	-2
0.87067	-2
0.87433	-2
0.87800	-2
0.88167	-2
0.88533	-3
0.88900	-2
0.89267	-2
0.89633	-2
0.90000	-2
0.90367	-2
0.90733	-2
0.91100	-2
0.91467	-2
0.91833	-2
0.92200	-2
0.92567	-2
0.92933	-2
0.93300	-2
0.93667	-2
0.94033	-2
0.94400	-2
0.94767	-2
0.95133	-2
0.95500	-2
0.95867	-2
0.96233	-2
0.96600	-2
0.96967	-2
0.97333	-1
0.97700	-1
0.98067	-1
0.98433	-1
0.98800	-1
0.99167	-1
0.99533	-1
0.99900	-0
1.00267	-0
1.00633	-0
1.01000	-0
1.01367	-0
1.01733	-0
1.02100	-1
1.02467	-1
1.02833	-1
1.03200	-1
1.03567	-1
1.03933	-1
1.04300	-1
1.04667	-1
1.05033	-1
1.05400	-1
1.05767	-1
1.06133	-1
1.06500	-1
1.06867	-1
1.07233	-1
1.07600	-1
1.07967	-1
1.08333	-1
1.08700	-0
1.09067	-0
1.09433	-0
1.09800	-0
1.10167	-1
1.10533	-1
1.10900	-1
1.11267	-1
1.11633	-1
1.12000	-1
1.12367	-1
1.12733	-1
1.13100	-1
1.13467	-1
1.13833	-1
1.14200	-1
1.14567	-1
1.14933	-1
1.15300	-1
1.15667	-1
1.16033	-1
1.16400	-1
1.16767	-1
1.17133	-1
1.17500	-1
1.17867	-1
1.18233	-1
1.18600	-1
1.18967	-1
1.19333	-1
1.19700	-1
1.20067	-2
1.20433	-2
1.20800	-2
1.21167	-2
1.21533	-2
1.21900	-3
1.22267	-3
1.22633	-3
1.23000	-3
1.23367	-3
1.23733	-3
1.24100	-3
1.24467	-3
1.24833	-2
1.25200	-2
1.25567	-2
1.25933	-2
1.26300	-1
1.26667	-1
1.27033	-1
1.27400	-1
1.27767	-1
1.28133	-1
1.28500	-1
1.28867	-1
1.29233	-1
1.29600	-1
1.29967	-1
1.30333	-1
1.30700	-1
1.31067	-1
1.31433	-2
1.31800	-2
1.32167	-2
1.32533	-2
1.32900	-2
1.33267	-2
1.33633	-2
1.34000	-2
1.34367	-2
1.34733	-2
1.35100	-2
1.35467	-2
1.35833	-2
1.36200	-2
1.36567	-2
1.36933	-2
1.37300	-3
1.37667	-3
1.38033	-3
1.38400	-3
1.38767	-2
1.39133	-2
1.39500	-2
1.39867	-2
1.40233	-2
1.40600	-1
1.40967	-1
1.41333	-1
1.41700	-1
1.42067	-1
1.42433	-1
1.42800	-1
1.43167	-1
1.43533	-1
1.43900	-1
1.44267	-1
1.44633	-1
1.45000	-1
1.45367	-1
1.45733	-1
1.46100	-1
1.46467	-1
1.46833	-1
1.47200	-1
1.47567	-1
1.47933	-1
1.48300	-1
1.48667	-1
1.49033	-1
1.49400	-1
1.49767	-1
1.50133	-1
1.50500	-0
1.50867	-0
1.51233	-0
1.51600	0
1.51967	0
1.52333	-0
1.52700	-1
1.53067	-1
1.53433	-1
1.53800	-1
1.54167	-2
1.54533	-2
1.54900	-2
1.55267	-2
1.55633	-2
1.56000	-2
1.56367	-2
1.56733	-2
1.57100	-2
1.57467	-2
1.57833	-2
1.58200	-3
1.58567	-3
1.58933	-3
1.59300	-4
1.59667	-4
1.60033	-5
1.60400	-6
1.60767	-7
1.61133	-9
1.61500	-11
1.61867	-13
1.62233	-15
1.62600	-18
1.62967	-21
1.63333	-24
1.63700	-27
1.64067	-30
1.64433	-33
1.64800	-36
1.65167	-40
1.65533	-43
1.65900	-47
1.66267	-50
1.66633	-54
1.67000	-58
1.67367	-63
1.67733	-67
1.68100	-71
1.68467	-76
1.68833	-80
1.69200	-83
1.69567	-86
1.69933	-89
1.70300	-91
1.70667	-93
1.71033	-94
1.71400	-95
1.71767	-96
1.72133	-97
1.72500	-98
1.72867	-98
1.73233	-99
1.73600	-100
1.73967	-101
1.74333	-102
1.74700	-103
1.75067	-103
1.75433	-104
1.75800	-104
1.76167	-105
1.76533	-105
1.76900	-105
1.77267	-105
1.77633	-105
1.78000	-106
1.78367	-106
1.78733	-106
1.79100	-106
1.79467	-107
1.79833	-107
1.80200	-107
1.80567	-107
1.80933	-106
1.81300	-105
1.81667	-105
1.82033	-104
1.82400	-104
1.82767	-104
1.83133	-104
1.83500	-104
1.83867	-104
1.84233	-105
1.84600	-105
1.84967	-105
1.85333	-106
1.85700	-106
1.86067	-107
1.86433	-107
1.86800	-107
1.87167	-107
1.87533	-106
1.87900	-106
1.88267	-105
1.88633	-104
1.89000	-104
1.89367	-104
1.89733	-103
1.90100	-103
1.90467	-103
1.90833	-103
1.91200	-103
1.91567	-103
1.91933	-103
1.92300	-103
1.92667	-103
1.93033	-103
1.93400	-103
1.93767	-103
1.94133	-103
1.94500	-103
1.94867	-102
1.95233	-102
1.95600	-102
1.95967	-101
1.96333	-101
1.96700	-100
1.97067	-100
1.97433	-100
1.97800	-99
1.98167	-99
1.98533	-99
1.98900	-99
1.99267	-99
1.99633	-99
2.00000	-99
2.00367	-98
2.00733	-98
2.01100	-97
2.01467	-97
2.01833	-97
2.02200	-97
2.02567	-97
2.02933	-97
2.03300	-97
2.03667	-96
2.04033	-96
2.04400	-96
2.04767	-96
2.05133	-96
2.05500	-96
2.05867	-96
2.06233	-95
2.06600	-95
2.06967	-94
2.07333	-94
2.07700	-93
2.08067	-93
2.08433	-92
2.08800	-92
2.09167	-91
2.09533	-91
2.09900	-91
2.10267	-90
2.10633	-90
2.11000	-90
2.11367	-90
2.11733	-89
2.12100	-89
2.12467	-89
2.12833	-89
2.13200	-88
2.13567	-88
2.13933	-87
2.14300	-87
2.14667	-86
2.15033	-86
2.15400	-85
2.15767	-85
2.16133	-85
2.16500	-85
2.16867	-85
2.17233	-85
2.17600	-84
2.17967	-84
2.18333	-84
2.18700	-83
2.19067	-82
2.19433	-82
2.19800	-81
2.20167	-81
2.20533	-80
2.20900	-80
2.21267	-80
2.21633	-80
2.22000	-80
2.22367	-79
2.22733	-79
2.23100	-79
2.23467	-79
2.23833	-78
2.24200	-78
2.24567	-78
2.24933	-78
2.25300	-78
2.25667	-78
2.26033	-78
2.26400	-77
2.26767	-77
2.27133	-77
2.27500	-76
2.27867	-77
2.28233	-77
2.28600	-77
2.28967	-77
2.29333	-77
2.29700	-77
2.30067	-77
2.30433	-76
2.30800	-76
2.31167	-75
2.31533	-75
2.31900	-74
2.32267	-75
2.32633	-75
2.33000	-75
2.33367	-74
2.33733	-74
2.34100	-73
2.34467	-71
2.34833	-70
2.35200	-70
2.35567	-70
2.35933	-70
2.36300	-70
2.36667	-69
2.37033	-68
2.37400	-66
2.37767	-63
2.38133	-60
2.38500	-56
2.38867	-52
2.39233	-47
2.39600	-42
2.39967	-37
2.40333	-32
2.40700	-28
2.41067	-24
2.41433	-20
2.41800	-16
2.42167	-13
2.42533	-10
2.42900	-8
2.43267	-6
2.43633	-4
2.44000	-2
2.44367	0
2.44733	2
2.45100	4
2.45467	5
2.45833	6
2.46200	6
2.46567	7
2.46933	8
2.47300	9
2.47667	10
2.48033	11
2.48400	13
2.48767	14
2.49133	14
2.49500	14
2.49867	14
2.50233	14
2.50600	14
2.50967	14
2.51333	14
2.51700	14
2.52067	14
2.52433	13
2.52800	13
2.53167	12
2.53533	12
2.53900	12
2.54267	12
2.54633	12
2.55000	12
2.55367	13
2.55733	13
2.56100	14
2.56467	14
2.56833	15
2.57200	16
2.57567	17
2.57933	18
2.58300	18
2.58667	19
2.59033	20
2.59400	21
2.59767	21
2.60133	21
2.60500	21
2.60867	21
2.61233	21
2.61600	21
2.61967	21
2.62333	21
2.62700	21
2.63067	22
2.63433	22
2.63800	22
2.64167	22
2.64533	22
2.64900	23
2.65267	23
2.65633	23
2.66000	23
2.66367	24
2.66733	24
2.67100	24
2.67467	24
2.67833	24
2.68200	24
2.68567	24
2.68933	24
2.69300	24
2.69667	24
2.70033	24
2.70400	25
2.70767	25
2.71133	25
2.71500	26
2.71867	26
2.72233	27
2.72600	27
2.72967	28
2.73333	28
2.73700	28
2.74067	27
2.74433	27
2.74800	27
2.75167	26
2.75533	26
2.75900	26
2.76267	25
2.76633	25
2.77000	25
2.77367	25
2.77733	26
2.78100	26
2.78467	27
2.78833	27
2.79200	27
2.79567	28
2.79933	28
2.80300	29
2.80667	29
2.81033	29
2.81400	30
2.81767	30
2.82133	30
2.82500	30
2.82867	30
2.83233	30
2.83600	30
2.83967	30
2.84333	30
2.84700	30
2.85067	29
2.85433	29
2.85800	29
2.86167	27
2.86533	25
2.86900	21
2.87267	14
2.87633	3
2.88000	-12
2.88367	-32
2.88733	-58
2.89100	-89
2.89467	-127
2.89833	-172
2.90200	-222
2.90567	-278
2.90933	-340
2.91300	-406
2.91667	-477
2.92033	-553
2.92400	-632
2.92767	-714
2.93133	-798
2.93500	-885
2.93867	-974
2.94233	-1064
2.94600	-1156
2.94967	-1249
2.95333	-1342
2.95700	-1424
2.96067	-1483
2.96433	-1509
2.96800	-1499
2.97167	-1455
2.97533	-1384
2.97900	-1293
2.98267	-1190
2.98633	-1081
2.99000	-971
2.99367	-865
2.99733	-765
3.00100	-671
3.00467	-586
3.00833	-509
3.01200	-441
3.01567	-380
3.01933	-327
3.02300	-280
3.02667	-239
3.03033	-204
3.03400	-173
3.03767	-146
3.04133	-124
3.04500	-104
3.04867	-87
3.05233	-73
3.05600	-61
3.05967	-50
3.06333	-40
3.06700	-33
3.07067	-26
3.07433	-20
3.07800	-16
3.08167	-12
3.08533	-8
3.08900	-5
3.09267	-3
3.09633	-1
3.10000	1
3.10367	3
3.10733	5
3.11100	7
3.11467	8
3.11833	9
3.12200	10
3.12567	11
3.12933	12
3.13300	13
3.13667	13
3.14033	14
3.14400	15
3.14767	15
3.15133	15
3.15500	16
3.15867	16
3.16233	17
3.16600	17
3.16967	17
3.17333	18
3.17700	18
3.18067	18
3.18433	19
3.18800	19
3.19167	19
3.19533	19
3.19900	20
3.20267	20
3.20633	20
3.21000	21
3.21367	21
3.21733	21
3.22100	22
3.22467	22
3.22833	23
3.23200	23
3.23567	23
3.23933	24
3.24300	24
3.24667	24
3.25033	25
3.25400	25
3.25767	25
3.26133	25
3.26500	25
3.26867	25
3.27233	25
3.27600	26
3.27967	26
3.28333	26
3.28700	26
3.29067	26
3.29433	26
3.29800	26
3.30167	26
3.30533	26
3.30900	26
3.31267	26
3.31633	26
3.32000	26
3.32367	26
3.32733	27
3.33100	27
3.33467	27
3.33833	27
3.34200	28
3.34567	28
3.34933	28
3.35300	29
3.35667	29
3.36033	29
3.36400	29
3.36767	30
3.37133	30
3.37500	30
3.37867	30
3.38233	31
3.38600	31
3.38967	31
3.39333	31
3.39700	31
3.40067	31
3.40433	31
3.40800	31
3.41167	31
3.41533	31
3.41900	31
3.42267	30
3.42633	30
3.43000	30
3.43367	30
3.43733	30
3.44100	30
3.44467	30
3.44833	30
3.45200	30
3.45567	30
3.45933	30
3.46300	30
3.46667	30
3.47033	30
3.47400	30
3.47767	29
3.48133	29
3.48500	29
3.48867	29
3.49233	29
3.49600	29
3.49967	29
3.50333	29
3.50700	29
3.51067	29
3.51433	29
3.51800	29
3.52167	29
3.52533	29
3.52900	29
3.53267	29
3.53633	29
3.54000	29
3.54367	30
3.54733	30
3.55100	30
3.55467	30
3.55833	31
3.56200	31
3.56567	31
3.56933	31
3.57300	31
3.57667	31
3.58033	31
3.58400	31
3.58767	31
3.59133	31
3.59500	31
3.59867	31
3.60233	31
3.60600	31
3.60967	30
3.61333	30
3.61700	30
3.62067	30
3.62433	30
3.62800	30
3.63167	30
3.63533	30
3.63900	30
3.64267	30
3.64633	30
3.65000	30
3.65367	30
3.65733	30
3.66100	30
3.66467	30
3.66833	30
3.67200	30
3.67567	30
3.67933	30
3.68300	30
3.68667	30
3.69033	30
3.69400	30
3.69767	30
3.70133	29
3.70500	29
3.70867	29
3.71233	29
3.71600	30
3.71967	30
3.72333	30
3.72700	30
3.73067	30
3.73433	30
3.73800	30
3.74167	30
3.74533	30
3.74900	30
3.75267	30
3.75633	30
3.76000	30
3.76367	30
3.76733	30
3.77100	30
3.77467	29
3.77833	29
3.78200	29
3.78567	29
3.78933	29
3.79300	29
3.79667	29
3.80033	29
3.80400	29
3.80767	29
3.81133	29
3.81500	29
3.81867	29
3.82233	29
3.82600	28
3.82967	28
3.83333	28
3.83700	28
3.84067	28
3.84433	28
3.84800	28
3.85167	28
3.85533	28
3.85900	29
3.86267	29
3.86633	29
3.87000	29
3.87367	30
3.87733	30
3.88100	30
3.88467	30
3.88833	31
3.89200	31
3.89567	30
3.89933	30
3.90300	30
3.90667	30
3.91033	30
3.91400	30
3.91767	30
3.92133	30
3.92500	30
3.92867	30
3.93233	30
3.93600	30
3.93967	30
3.94333	30
3.94700	30
3.95067	30
3.95433	30
3.95800	30
3.96167	30
3.96533	30
3.96900	30
3.97267	30
3.97633	30
3.98000	30
3.98367	30
3.98733	30
3.99100	30
3.99467	30
3.99833	30

[Chromatogram (Ch3)]
Interval(msec)	220
# of Points	1091
Start Time(min)	0.002
End Time(min)	3.998
R.Time (min)	Intensity
0.00167	-1
0.00533	-3
0.00900	-4
0.01267	-4
0.01633	-2
0.02000	0
0.02367	1
0.02733	0
0.03100	-2
0.03467	-4
0.03833	-1
0.04200	0
0.04567	1
0.04933	2
0.05300	3
0.05667	4
0.06033	5
0.06400	5
0.06767	3
0.07133	1
0.07500	2
0.07867	3
0.08233	4
0.08600	3
0.08967	2
0.09333	2
0.09700	2
0.10067	2
0.10433	2
0.10800	2
0.11167	3
0.11533	4
0.11900	4
0.12267	5
0.12633	4
0.13000	2
0.13367	1
0.13733	2
0.14100	3
0.14467	4
0.14833	3
0.15200	4
0.15567	6
0.15933	7
0.16300	7
0.16667	6
0.17033	7
0.17400	6
0.17767	5
0.18133	4
0.18500	5
0.18867	5
0.19233	2
0.19600	0
0.19967	0
0.20333	-0
0.20700	-3
0.21067	-3
0.21433	-2
0.21800	-0
0.22167	1
0.22533	3
0.22900	4
0.23267	6
0.23633	6
0.24000	5
0.24367	6
0.24733	9
0.25100	10
0.25467	9
0.25833	7
0.26200	4
0.26567	3
0.26933	3
0.27300	3
0.27667	4
0.28033	5
0.28400	6
0.28767	5
0.29133	3
0.29500	1
0.29867	2
0.30233	3
0.30600	5
0.30967	6
0.31333	5
0.31700	5
0.32067	6
0.32433	8
0.32800	8
0.33167	7
0.33533	6
0.33900	6
0.34267	6
0.34633	6
0.35000	5
0.35367	5
0.35733	6
0.36100	7
0.36467	7
0.36833	7
0.37200	7
0.37567	9
0.37933	11
0.38300	10
0.38667	11
0.39033	8
0.39400	6
0.39767	6
0.40133	7
0.40500	5
0.40867	2
0.41233	3
0.41600	3
0.41967	5
0.42333	5
0.42700	5
0.43067	5
0.43433	5
0.43800	4
0.44167	3
0.44533	3
0.44900	4
0.45267	5
0.45633	3
0.46000	1
0.46367	-2
0.46733	1
0.47100	4
0.47467	5
0.47833	7
0.48200	9
0.48567	9
0.48933	8
0.49300	7
0.49667	7
0.50033	7
0.50400	7
0.50767	8
0.51133	8
0.51500	7
0.51867	7
0.52233	7
0.52600	8
0.52967	10
0.53333	11
0.53700	12
0.54067	11
0.54433	10
0.54800	10
0.55167	11
0.55533	9
0.55900	8
0.56267	8
0.56633	9
0.57000	9
0.57367	10
0.57733	12
0.58100	12
0.58467	11
0.58833	12
0.59200	11
0.59567	9
0.59933	9
0.60300	7
0.60667	7
0.61033	8
0.61400	8
0.61767	6
0.62133	4
0.62500	5
0.62867	5
0.63233	4
0.63600	4
0.63967	5
0.64333	3
0.64700	4
0.65067	6
0.65433	8
0.65800	8
0.66167	8
0.66533	9
0.66900	9
0.67267	9
0.67633	9
0.68000	8
0.68367	10
0.68733	10
0.69100	9
0.69467	8
0.69833	8
0.70200	8
0.70567	8
0.70933	7
0.71300	9
0.71667	11
0.72033	13
0.72400	14
0.72767	15
0.73133	13
0.73500	10
0.73867	8
0.74233	7
0.74600	9
0.74967	11
0.75333	11
0.75700	12
0.76067	14
0.76433	14
0.76800	13
0.77167	11
0.77533	9
0.77900	8
0.78267	8
0.78633	8
0.79000	7
0.79367	8
0.79733	7
0.80100	7
0.80467	10
0.80833	12
0.81200	14
0.81567	15
0.81933	14
0.82300	14
0.82667	14
0.83033	15
0.83400	15
0.83767	14
0.84133	11
0.84500	11
0.84867	13
0.85233	15
0.85600	16
0.85967	14
0.86333	13
0.86700	13
0.87067	13
0.87433	14
0.87800	15
0.88167	18
0.88533	20
0.88900	21
0.89267	20
0.89633	18
0.90000	15
0.90367	17
0.90733	17
0.91100	18
0.91467	19
0.91833	18
0.92200	17
0.92567	15
0.92933	12
0.93300	11
0.93667	13
0.94033	15
0.94400	16
0.94767	15
0.95133	15
0.95500	16
0.95867	16
0.96233	15
0.96600	14
0.96967	12
0.97333	10
0.97700	10
0.98067	11
0.98433	12
0.98800	13
0.99167	13
0.99533	14
0.99900	14
1.00267	14
1.00633	13
1.01000	13
1.01367	13
1.01733	12
1.02100	11
1.02467	11
1.02833	13
1.03200	13
1.03567	12
1.03933	13
1.04300	13
1.04667	13
1.05033	14
1.05400	15
1.05767	16
1.06133	17
1.06500	16
1.06867	16
1.07233	18
1.07600	19
1.07967	19
1.08333	17
1.08700	16
1.09067	15
1.09433	13
1.09800	13
1.10167	12
1.10533	10
1.10900	9
1.11267	9
1.11633	10
1.12000	11
1.12367	11
1.12733	11
1.13100	10
1.13467	10
1.13833	12
1.14200	14
1.14567	15
1.14933	16
1.15300	15
1.15667	13
1.16033	11
1.16400	11
1.16767	11
1.17133	13
1.17500	14
1.17867	15
1.18233	14
1.18600	14
1.18967	15
1.19333	14
1.19700	15
1.20067	14
1.20433	14
1.20800	14
1.21167	14
1.21533	15
1.21900	14
1.22267	13
1.22633	13
1.23000	13
1.23367	14
1.23733	15
1.24100	14
1.24467	12
1.24833	9
1.25200	9
1.25567	11
1.25933	8
1.26300	5
1.26667	4
1.27033	5
1.27400	7
1.27767	7
1.28133	8
1.28500	9
1.28867	11
1.29233	11
1.29600	11
1.29967	11
1.30333	13
1.30700	13
1.31067	11
1.31433	10
1.31800	11
1.32167	12
1.32533	12
1.32900	11
1.33267	11
1.33633	13
1.34000	14
1.34367	13
1.34733	12
1.35100	13
1.35467	12
1.35833	13
1.36200	15
1.36567	18
1.36933	16
1.37300	14
1.37667	14
1.38033	16
1.38400	17
1.38767	18
1.39133	18
1.39500	16
1.39867	12
1.40233	11
1.40600	12
1.40967	11
1.41333	11
1.41700	11
1.42067	11
1.42433	11
1.42800	11
1.43167	11
1.43533	10
1.43900	12
1.44267	15
1.44633	16
1.45000	16
1.45367	15
1.45733	14
1.46100	12
1.46467	10
1.46833	11
1.47200	12
1.47567	11
1.47933	12
1.48300	14
1.48667	14
1.49033	15
1.49400	14
1.49767	14
1.50133	15
1.50500	16
1.50867	17
1.51233	18
1.51600	17
1.51967	14
1.52333	13
1.52700	14
1.53067	14
1.53433	13
1.53800	13
1.54167	15
1.54533	17
1.54900	19
1.55267	20
1.55633	21
1.56000	18
1.56367	16
1.56733	16
1.57100	17
1.57467	17
1.57833	18
1.58200	17
1.58567	14
1.58933	12
1.59300	11
1.59667	11
1.60033	13
1.60400	13
1.60767	14
1.61133	13
1.61500	12
1.61867	13
1.62233	15
1.62600	14
1.62967	14
1.63333	14
1.63700	13
1.64067	12
1.64433	12
1.64800	12
1.65167	12
1.65533	11
1.65900	12
1.66267	12
1.66633	14
1.67000	15
1.67367	15
1.67733	18
1.68100	19
1.68467	19
1.68833	19
1.69200	19
1.69567	17
1.69933	17
1.70300	19
1.70667	18
1.71033	16
1.71400	14
1.71767	14
1.72133	15
1.72500	17
1.72867	19
1.73233	19
1.73600	18
1.73967	17
1.74333	17
1.74700	16
1.75067	16
1.75433	16
1.75800	18
1.76167	19
1.76533	21
1.76900	20
1.77267	19
1.77633	19
1.78000	19
1.78367	19
1.78733	19
1.79100	19
1.79467	19
1.79833	20
1.80200	19
1.80567	19
1.80933	19
1.81300	19
1.81667	19
1.82033	19
1.82400	19
1.82767	21
1.83133	21
1.83500	21
1.83867	22
1.84233	22
1.84600	21
1.84967	20
1.85333	20
1.85700	19
1.86067	20
1.86433	21
1.86800	21
1.87167	21
1.87533	22
1.87900	22
1.88267	22
1.88633	25
1.89000	27
1.89367	27
1.89733	27
1.90100	26
1.90467	26
1.90833	27
1.91200	27
1.91567	28
1.91933	29
1.92300	29
1.92667	30
1.93033	30
1.93400	31
1.93767	31
1.94133	30
1.94500	29
1.94867	28
1.95233	28
1.95600	30
1.95967	31
1.96333	32
1.96700	33
1.97067	34
1.97433	35
1.97800	37
1.98167	37
1.98533	36
1.98900	34
1.99267	33
1.99633	34
2.00000	35
2.00367	35
2.00733	35
2.01100	36
2.01467	38
2.01833	40
2.02200	38
2.02567	40
2.02933	42
2.03300	44
2.03667	43
2.04033	43
2.04400	44
2.04767	46
2.05133	49
2.05500	49
2.05867	47
2.06233	46
2.06600	46
2.06967	46
2.07333	48
2.07700	47
2.08067	46
2.08433	46
2.08800	48
2.09167	51
2.09533	53
2.09900	54
2.10267	53
2.10633	53
2.11000	53
2.11367	56
2.11733	59
2.12100	59
2.12467	59
2.12833	61
2.13200	65
2.13567	66
2.13933	66
2.14300	65
2.14667	64
2.15033	65
2.15400	66
2.15767	67
2.16133	66
2.16500	67
2.16867	68
2.17233	68
2.17600	67
2.17967	64
2.18333	61
2.18700	61
2.19067	62
2.19433	63
2.19800	65
2.20167	66
2.20533	68
2.20900	71
2.21267	72
2.21633	74
2.22000	74
2.22367	72
2.22733	72
2.23100	70
2.23467	69
2.23833	71
2.24200	73
2.24567	74
2.24933	74
2.25300	72
2.25667	70
2.26033	71
2.26400	73
2.26767	75
2.27133	73
2.27500	74
2.27867	76
2.28233	78
2.28600	82
2.28967	85
2.29333	85
2.29700	85
2.30067	86
2.30433	86
2.30800	87
2.31167	86
2.31533	86
2.31900	85
2.32267	84
2.32633	86
2.33000	89
2.33367	92
2.33733	92
2.34100	92
2.34467	92
2.34833	91
2.35200	92
2.35567	92
2.35933	91
2.36300	90
2.36667	89
2.37033	89
2.37400	89
2.37767	90
2.38133	93
2.38500	93
2.38867	90
2.39233	90
2.39600	90
2.39967	90
2.40333	92
2.40700	94
2.41067	95
2.41433	94
2.41800	92
2.42167	90
2.42533	91
2.42900	93
2.43267	92
2.43633	89
2.44000	91
2.44367	129
2.44733	206
2.45100	287
2.45467	346
2.45833	367
2.46200	362
2.46567	354
2.46933	349
2.47300	338
2.47667	315
2.48033	286
2.48400	256
2.48767	228
2.49133	206
2.49500	195
2.49867	190
2.50233	189
2.50600	195
2.50967	203
2.51333	207
2.51700	207
2.52067	202
2.52433	190
2.52800	173
2.53167	156
2.53533	140
2.53900	125
2.54267	115
2.54633	108
2.55000	101
2.55367	97
2.55733	94
2.56100	92
2.56467	92
2.56833	92
2.57200	94
2.57567	96
2.57933	100
2.58300	105
2.58667	112
2.59033	120
2.59400	128
2.59767	136
2.60133	144
2.60500	150
2.60867	155
2.61233	156
2.61600	155
2.61967	149
2.62333	140
2.62700	130
2.63067	116
2.63433	101
2.63800	86
2.64167	73
2.64533	60
2.64900	48
2.65267	37
2.65633	30
2.66000	22
2.66367	18
2.66733	15
2.67100	13
2.67467	10
2.67833	9
2.68200	10
2.68567	10
2.68933	12
2.69300	13
2.69667	14
2.70033	16
2.70400	17
2.70767	18
2.71133	21
2.71500	23
2.71867	23
2.72233	25
2.72600	27
2.72967	30
2.73333	32
2.73700	33
2.74067	35
2.74433	36
2.74800	37
2.75167	39
2.75533	43
2.75900	46
2.76267	51
2.76633	56
2.77000	59
2.77367	62
2.77733	68
2.78100	72
2.78467	74
2.78833	74
2.79200	77
2.79567	80
2.79933	83
2.80300	87
2.80667	91
2.81033	94
2.81400	97
2.81767	98
2.82133	98
2.82500	100
2.82867	105
2.83233	117
2.83600	148
2.83967	222
2.84333	377
2.84700	668
2.85067	1149
2.85433	1868
2.85800	2853
2.86167	4088
2.86533	5520
2.86900	7068
2.87267	8614
2.87633	10033
2.88000	11219
2.88367	12090
2.88733	12593
2.89100	12726
2.89467	12525
2.89833	12052
2.90200	11381
2.90567	10579
2.90933	9706
2.91300	8811
2.91667	7930
2.92033	7088
2.92400	6302
2.92767	5581
2.93133	4923
2.93500	4329
2.93867	3797
2.94233	3323
2.94600	2903
2.94967	2532
2.95333	2206
2.95700	1921
2.96067	1674
2.96433	1458
2.96800	1270
2.97167	1107
2.97533	965
2.97900	842
2.98267	736
2.98633	644
2.99000	563
2.99367	494
2.99733	434
3.00100	383
3.00467	340
3.00833	305
3.01200	273
3.01567	247
3.01933	224
3.02300	204
3.02667	186
3.03033	171
3.03400	158
3.03767	144
3.04133	133
3.04500	126
3.04867	120
3.05233	114
3.05600	107
3.05967	103
3.06333	101
3.06700	100
3.07067	96
3.07433	79
3.07800	61
3.08167	51
3.08533	50
3.08900	57
3.09267	67
3.09633	78
3.10000	94
3.10367	118
3.10733	146
3.11100	177
3.11467	208
3.11833	243
3.12200	279
3.12567	310
3.12933	336
3.13300	360
3.13667	380
3.14033	398
3.14400	412
3.14767	425
3.15133	437
3.15500	446
3.15867	456
3.16233	466
3.16600	475
3.16967	485
3.17333	491
3.17700	496
3.18067	501
3.18433	506
3.18800	511
3.19167	519
3.19533	525
3.19900	530
3.20267	533
3.20633	537
3.21000	541
3.21367	545
3.21733	549
3.22100	551
3.22467	552
3.22833	553
3.23200	556
3.23567	558
3.23933	559
3.24300	560
3.24667	563
3.25033	565
3.25400	565
3.25767	564
3.26133	565
3.26500	565
3.26867	565
3.27233	562
3.27600	560
3.27967	556
3.28333	553
3.28700	550
3.29067	548
3.29433	546
3.29800	543
3.30167	541
3.30533	539
3.30900	536
3.31267	533
3.31633	532
3.32000	530
3.32367	525
3.32733	524
3.33100	524
3.33467	523
3.33833	519
3.34200	513
3.34567	507
3.34933	503
3.35300	502
3.35667	500
3.36033	496
3.36400	493
3.36767	491
3.37133	489
3.37500	488
3.37867	488
3.38233	488
3.38600	489
3.38967	489
3.39333	488
3.39700	488
3.40067	486
3.40433	486
3.40800	485
3.41167	486
3.41533	486
3.41900	483
3.42267	479
3.42633	478
3.43000	476
3.43367	474
3.43733	472
3.44100	470
3.44467	468
3.44833	467
3.45200	465
3.45567	464
3.45933	465
3.46300	466
3.46667	464
3.47033	463
3.47400	463
3.47767	462
3.48133	459
3.48500	456
3.48867	455
3.49233	456
3.49600	456
3.49967	455
3.50333	452
3.50700	448
3.51067	443
3.51433	440
3.51800	439
3.52167	437
3.52533	434
3.52900	432
3.53267	432
3.53633	432
3.54000	431
3.54367	429
3.54733	426
3.55100	423
3.55467	420
3.55833	418
3.56200	419
3.56567	418
3.56933	417
3.57300	417
3.57667	419
3.58033	419
3.58400	416
3.58767	415
3.59133	415
3.59500	414
3.59867	413
3.60233	411
3.60600	409
3.60967	409
3.61333	407
3.61700	403
3.62067	400
3.62433	400
3.62800	399
3.63167	396
3.63533	397
3.63900	398
3.64267	398
3.64633	399
3.65000	399
3.65367	397
3.65733	395
3.66100	394
3.66467	395
3.66833	395
3.67200	393
3.67567	392
3.67933	391
3.68300	390
3.68667	389
3.69033	389
3.69400	389
3.69767	387
3.70133	386
3.70500	385
3.70867	386
3.71233	385
3.71600	382
3.71967	380
3.72333	379
3.72700	378
3.73067	378
3.73433	378
3.73800	378
3.74167	378
3.74533	379
3.74900	379
3.75267	380
3.75633	379
3.76000	378
3.76367	377
3.76733	375
3.77100	374
3.77467	374
3.77833	375
3.78200	374
3.78567	373
3.78933	371
3.79300	371
3.79667	372
3.80033	374
3.80400	375
3.80767	375
3.81133	376
3.81500	374
3.81867	374
3.82233	374
3.82600	377
3.82967	380
3.83333	380
3.83700	380
3.84067	380
3.84433	378
3.84800	375
3.85167	374
3.85533	373
3.85900	373
3.86267	374
3.86633	372
3.87000	372
3.87367	371
3.87733	372
3.88100	373
3.88467	373
3.88833	373
3.89200	371
3.89567	372
3.89933	373
3.90300	372
3.90667	371
3.91033	372
3.91400	370
3.91767	370
3.92133	370
3.92500	370
3.92867	369
3.93233	369
3.93600	370
3.93967	371
3.94333	371
3.94700	371
3.95067	369
3.95433	366
3.95800	364
3.96167	363
3.96533	366
3.96900	369
3.97267	371
3.97633	373
3.98000	374
3.98367	372
3.98733	369
3.99100	367
3.99467	366
3.99833	364

[Status Trace (Column Oven Temperature)]
Interval(msec)	1000
# of Points	240
Start Time(min)	0.004
End Time(min)	3.987
Intensity Units	
Intensity Multiplier	1
R.Time (min)	Intensity
0.00382	35.06
0.02048	35.05
0.03715	35.05
0.05382	35.04
0.07048	35.04
0.08715	35.04
0.10382	35.04
0.12048	35.04
0.13715	35.04
0.15382	35.04
0.17048	35.04
0.18715	35.04
0.20382	35.04
0.22048	35.03
0.23715	35.02
0.25382	35.02
0.27048	35.02
0.28715	35.03
0.30382	35.02
0.32048	35.02
0.33715	35.02
0.35382	35.02
0.37048	35.02
0.38715	35.02
0.40382	35.04
0.42048	35.04
0.43715	35.04
0.45382	35.04
0.47048	35.04
0.48715	35.04
0.50382	35.04
0.52048	35.02
0.53715	35.01
0.55382	35.01
0.57048	35.02
0.58715	35.01
0.60382	35.00
0.62048	34.99
0.63715	34.99
0.65382	35.00
0.67048	35.01
0.68715	34.99
0.70382	34.99
0.72048	34.99
0.73715	34.99
0.75382	34.99
0.77048	34.98
0.78715	34.98
0.80382	34.98
0.82048	34.99
0.83715	35.00
0.85382	34.99
0.87048	35.01
0.88715	35.01
0.90382	35.02
0.92048	35.01
0.93715	35.00
0.95382	35.01
0.97048	34.99
0.98715	34.99
1.00382	34.99
1.02048	35.00
1.03715	35.00
1.05382	35.00
1.07048	35.00
1.08715	35.01
1.10382	34.99
1.12048	34.99
1.13715	34.99
1.15382	34.99
1.17048	34.98
1.18715	34.98
1.20382	34.98
1.22048	34.99
1.23715	34.99
1.25382	35.00
1.27048	35.00
1.28715	35.00
1.30382	35.00
1.32048	35.00
1.33715	35.00
1.35382	34.99
1.37048	34.99
1.38715	35.00
1.40382	35.00
1.42048	35.00
1.43715	35.00
1.45382	34.99
1.47048	35.00
1.48715	35.00
1.50382	34.99
1.52048	35.00
1.53715	34.99
1.55382	35.00
1.57048	35.00
1.58715	35.01
1.60382	35.06
1.62048	35.15
1.63715	35.32
1.65382	35.54
1.67048	35.83
1.68715	36.20
1.70382	36.56
1.72048	36.89
1.73715	37.23
1.75382	37.58
1.77048	37.90
1.78715	38.25
1.80382	38.57
1.82048	38.89
1.83715	39.22
1.85382	39.56
1.87048	39.89
1.88715	40.21
1.90382	40.55
1.92048	40.88
1.93715	41.21
1.95382	41.53
1.97048	41.86
1.98715	42.18
2.00382	42.51
2.02048	42.83
2.03715	43.15
2.05382	43.50
2.07048	43.81
2.08715	44.13
2.10382	44.46
2.12048	44.79
2.13715	45.12
2.15382	45.44
2.17048	45.76
2.18715	46.08
2.20382	46.40
2.22048	46.74
2.23715	47.06
2.25382	47.39
2.27048	47.71
2.28715	48.07
2.30382	48.38
2.32048	48.73
2.33715	49.05
2.35382	49.37
2.37048	49.65
2.38715	49.75
2.40382	49.75
2.42048	49.75
2.43715	49.75
2.45382	49.76
2.47048	49.77
2.48715	49.76
2.50382	49.79
2.52048	49.80
2.53715	49.79
2.55382	49.81
2.57048	49.80
2.58715	49.80
2.60382	49.82
2.62048	49.83
2.63715	49.83
2.65382	49.84
2.67048	49.84
2.68715	49.87
2.70382	49.86
2.72048	49.85
2.73715	49.85
2.75382	49.88
2.77048	49.90
2.78715	49.90
2.80382	49.88
2.82048	49.87
2.83715	49.88
2.85382	49.87
2.87048	49.88
2.88715	49.89
2.90382	49.91
2.92048	49.91
2.93715	49.93
2.95382	49.95
2.97048	49.96
2.98715	49.97
3.00382	49.97
3.02048	49.99
3.03715	49.99
3.05382	50.00
3.07048	50.00
3.08715	50.01
3.10382	50.02
3.12048	50.03
3.13715	50.05
3.15382	50.06
3.17048	50.07
3.18715	50.08
3.20382	50.09
3.22048	50.09
3.23715	50.09
3.25382	50.09
3.27048	50.10
3.28715	50.10
3.30382	50.10
3.32048	50.10
3.33715	50.10
3.35382	50.09
3.37048	50.08
3.38715	50.07
3.40382	50.05
3.42048	50.05
3.43715	50.05
3.45382	50.05
3.47048	50.06
3.48715	50.06
3.50382	50.07
3.52048	50.07
3.53715	50.07
3.55382	50.06
3.57048	50.06
3.58715	50.06
3.60382	50.06
3.62048	50.06
3.63715	50.06
3.65382	50.06
3.67048	50.07
3.68715	50.07
3.70382	50.07
3.72048	50.07
3.73715	50.07
3.75382	50.07
3.77048	50.07
3.78715	50.08
3.80382	50.08
3.82048	50.08
3.83715	50.09
3.85382	50.09
3.87048	50.09
3.88715	50.08
3.90382	50.09
3.92048	50.09
3.93715	50.09
3.95382	50.09
3.97048	50.09
3.98715	50.09

[Status Trace (Injection Unit Temperature)]
Interval(msec)	1000
# of Points	240
Start Time(min)	0.004
End Time(min)	3.987
Intensity Units	
Intensity Multiplier	1
R.Time (min)	Intensity
0.00382	99.98
0.02048	99.98
0.03715	99.98
0.05382	99.98
0.07048	99.98
0.08715	99.98
0.10382	99.98
0.12048	99.98
0.13715	99.98
0.15382	99.98
0.17048	99.98
0.18715	99.98
0.20382	99.98
0.22048	99.98
0.23715	99.98
0.25382	99.98
0.27048	99.98
0.28715	99.98
0.30382	99.99
0.32048	99.99
0.33715	99.98
0.35382	99.99
0.37048	99.98
0.38715	99.98
0.40382	99.98
0.42048	99.99
0.43715	99.98
0.45382	99.98
0.47048	99.98
0.48715	99.98
0.50382	99.99
0.52048	99.99
0.53715	99.98
0.55382	99.99
0.57048	99.99
0.58715	99.98
0.60382	99.99
0.62048	99.99
0.63715	99.99
0.65382	99.99
0.67048	99.99
0.68715	99.99
0.70382	99.99
0.72048	99.98
0.73715	99.99
0.75382	99.99
0.77048	99.99
0.78715	99.99
0.80382	99.99
0.82048	99.99
0.83715	99.99
0.85382	99.99
0.87048	99.99
0.88715	99.99
0.90382	99.99
0.92048	99.99
0.93715	99.99
0.95382	99.99
0.97048	99.99
0.98715	99.98
1.00382	99.98
1.02048	99.98
1.03715	99.99
1.05382	99.99
1.07048	99.99
1.08715	99.99
1.10382	99.99
1.12048	99.99
1.13715	99.99
1.15382	99.99
1.17048	99.99
1.18715	99.99
1.20382	99.99
1.22048	99.99
1.23715	99.99
1.25382	99.98
1.27048	99.98
1.28715	99.99
1.30382	99.99
1.32048	99.99
1.33715	99.99
1.35382	99.99
1.37048	99.99
1.38715	99.99
1.40382	99.99
1.42048	99.99
1.43715	99.99
1.45382	99.99
1.47048	99.99
1.48715	99.98
1.50382	99.99
1.52048	99.99
1.53715	99.99
1.55382	99.99
1.57048	99.99
1.58715	99.99
1.60382	99.99
1.62048	99.99
1.63715	99.99
1.65382	99.99
1.67048	99.99
1.68715	99.99
1.70382	99.99
1.72048	99.98
1.73715	99.98
1.75382	99.99
1.77048	99.99
1.78715	99.98
1.80382	99.99
1.82048	99.99
1.83715	99.98
1.85382	99.98
1.87048	99.98
1.88715	99.98
1.90382	99.98
1.92048	99.98
1.93715	99.98
1.95382	99.98
1.97048	99.97
1.98715	99.98
2.00382	99.98
2.02048	99.97
2.03715	99.97
2.05382	99.97
2.07048	99.97
2.08715	99.97
2.10382	99.97
2.12048	99.97
2.13715	99.96
2.15382	99.96
2.17048	99.96
2.18715	99.96
2.20382	99.96
2.22048	99.96
2.23715	99.96
2.25382	99.96
2.27048	99.96
2.28715	99.96
2.30382	99.96
2.32048	99.96
2.33715	99.95
2.35382	99.96
2.37048	99.96
2.38715	99.96
2.40382	99.96
2.42048	99.96
2.43715	99.96
2.45382	99.96
2.47048	99.96
2.48715	99.96
2.50382	99.96
2.52048	99.96
2.53715	99.96
2.55382	99.97
2.57048	99.97
2.58715	99.97
2.60382	99.98
2.62048	99.98
2.63715	99.98
2.65382	99.98
2.67048	99.98
2.68715	99.98
2.70382	99.98
2.72048	99.99
2.73715	99.99
2.75382	99.99
2.77048	99.99
2.78715	99.99
2.80382	100.00
2.82048	100.00
2.83715	100.00
2.85382	100.00
2.87048	100.01
2.88715	100.01
2.90382	100.01
2.92048	100.01
2.93715	100.01
2.95382	100.01
2.97048	100.02
2.98715	100.01
3.00382	100.02
3.02048	100.02
3.03715	100.02
3.05382	100.02
3.07048	100.02
3.08715	100.02
3.10382	100.02
3.12048	100.03
3.13715	100.03
3.15382	100.03
3.17048	100.03
3.18715	100.03
3.20382	100.03
3.22048	100.03
3.23715	100.03
3.25382	100.04
3.27048	100.03
3.28715	100.03
3.30382	100.03
3.32048	100.04
3.33715	100.04
3.35382	100.03
3.37048	100.04
3.38715	100.04
3.40382	100.04
3.42048	100.04
3.43715	100.04
3.45382	100.04
3.47048	100.04
3.48715	100.04
3.50382	100.04
3.52048	100.04
3.53715	100.04
3.55382	100.04
3.57048	100.05
3.58715	100.05
3.60382	100.04
3.62048	100.04
3.63715	100.04
3.65382	100.04
3.67048	100.04
3.68715	100.04
3.70382	100.04
3.72048	100.05
3.73715	100.04
3.75382	100.05
3.77048	100.05
3.78715	100.04
3.80382	100.05
3.82048	100.04
3.83715	100.05
3.85382	100.05
3.87048	100.05
3.88715	100.05
3.90382	100.05
3.92048	100.05
3.93715	100.05
3.95382	100.05
3.97048	100.04
3.98715	100.05

[Status Trace (Carrier Gas Pressure)]
Interval(msec)	1000
# of Points	240
Start Time(min)	0.004
End Time(min)	3.987
Intensity Units	
Intensity Multiplier	1
R.Time (min)	Intensity
0.00382	58.00
0.02048	55.95
0.03715	56.52
0.05382	58.84
0.07048	59.69
0.08715	58.18
0.10382	57.97
0.12048	58.01
0.13715	58.01
0.15382	58.00
0.17048	58.00
0.18715	58.00
0.20382	58.00
0.22048	58.00
0.23715	58.00
0.25382	58.00
0.27048	58.00
0.28715	58.00
0.30382	58.00
0.32048	58.00
0.33715	58.00
0.35382	58.00
0.37048	58.00
0.38715	58.00
0.40382	58.00
0.42048	58.00
0.43715	58.00
0.45382	58.00
0.47048	58.00
0.48715	58.00
0.50382	58.00
0.52048	58.00
0.53715	58.00
0.55382	58.00
0.57048	58.00
0.58715	58.00
0.60382	58.00
0.62048	58.00
0.63715	58.00
0.65382	58.00
0.67048	58.00
0.68715	58.00
0.70382	58.00
0.72048	58.00
0.73715	58.00
0.75382	58.00
0.77048	58.00
0.78715	58.00
0.80382	58.00
0.82048	58.00
0.83715	58.00
0.85382	58.00
0.87048	58.00
0.88715	58.00
0.90382	58.00
0.92048	58.00
0.93715	58.00
0.95382	58.00
0.97048	58.00
0.98715	58.00
1.00382	58.00
1.02048	58.00
1.03715	58.00
1.05382	58.00
1.07048	58.00
1.08715	58.00
1.10382	58.00
1.12048	58.00
1.13715	58.00
1.15382	58.00
1.17048	58.00
1.18715	58.00
1.20382	58.00
1.22048	58.00
1.23715	58.00
1.25382	58.00
1.27048	58.00
1.28715	58.00
1.30382	58.00
1.32048	58.00
1.33715	58.00
1.35382	58.00
1.37048	58.00
1.38715	58.00
1.40382	58.00
1.42048	58.00
1.43715	58.00
1.45382	58.00
1.47048	58.00
1.48715	58.00
1.50382	58.00
1.52048	58.00
1.53715	58.00
1.55382	58.00
1.57048	58.00
1.58715	58.00
1.60382	58.00
1.62048	58.00
1.63715	58.00
1.65382	58.00
1.67048	58.01
1.68715	58.00
1.70382	58.00
1.72048	58.00
1.73715	58.00
1.75382	58.00
1.77048	58.00
1.78715	58.00
1.80382	58.00
1.82048	58.00
1.83715	58.00
1.85382	58.00
1.87048	58.00
1.88715	58.00
1.90382	58.00
1.92048	58.00
1.93715	58.00
1.95382	58.00
1.97048	58.00
1.98715	58.00
2.00382	58.00
2.02048	58.00
2.03715	58.00
2.05382	58.00
2.07048	58.00
2.08715	58.00
2.10382	58.00
2.12048	58.00
2.13715	58.00
2.15382	58.00
2.17048	58.00
2.18715	58.00
2.20382	58.00
2.22048	58.00
2.23715	58.00
2.25382	58.00
2.27048	58.00
2.28715	58.00
2.30382	58.00
2.32048	58.00
2.33715	58.00
2.35382	58.00
2.37048	58.00
2.38715	57.99
2.40382	57.99
2.42048	58.00
2.43715	58.00
2.45382	58.00
2.47048	58.00
2.48715	58.00
2.50382	57.98
2.52048	57.99
2.53715	58.00
2.55382	58.00
2.57048	58.00
2.58715	58.00
2.60382	58.00
2.62048	58.00
2.63715	58.00
2.65382	58.00
2.67048	58.00
2.68715	58.00
2.70382	58.00
2.72048	58.00
2.73715	58.00
2.75382	58.00
2.77048	58.00
2.78715	58.00
2.80382	58.00
2.82048	58.00
2.83715	58.00
2.85382	58.00
2.87048	58.00
2.88715	58.00
2.90382	58.00
2.92048	58.00
2.93715	58.00
2.95382	58.00
2.97048	58.00
2.98715	58.00
3.00382	58.00
3.02048	58.00
3.03715	58.00
3.05382	58.00
3.07048	58.00
3.08715	58.00
3.10382	58.00
3.12048	58.00
3.13715	58.00
3.15382	58.00
3.17048	58.00
3.18715	58.00
3.20382	58.00
3.22048	58.00
3.23715	58.00
3.25382	58.00
3.27048	58.00
3.28715	58.00
3.30382	58.00
3.32048	58.00
3.33715	58.00
3.35382	58.00
3.37048	58.00
3.38715	58.00
3.40382	58.00
3.42048	58.00
3.43715	58.00
3.45382	58.00
3.47048	58.00
3.48715	58.00
3.50382	58.00
3.52048	58.00
3.53715	58.00
3.55382	58.00
3.57048	58.00
3.58715	58.00
3.60382	58.00
3.62048	58.00
3.63715	58.00
3.65382	58.00
3.67048	58.00
3.68715	58.00
3.70382	58.00
3.72048	58.00
3.73715	58.00
3.75382	58.00
3.77048	58.00
3.78715	58.00
3.80382	58.00
3.82048	58.00
3.83715	58.00
3.85382	58.00
3.87048	58.00
3.88715	58.00
3.90382	58.00
3.92048	58.00
3.93715	58.00
3.95382	58.00
3.97048	58.00
3.98715	58.00

[Status Trace (Carrier Gas Flow)]
Interval(msec)	1000
# of Points	240
Start Time(min)	0.004
End Time(min)	3.987
Intensity Units	
Intensity Multiplier	1
R.Time (min)	Intensity
0.00382	34.53
0.02048	34.56
0.03715	34.54
0.05382	34.54
0.07048	34.50
0.08715	34.52
0.10382	34.52
0.12048	34.52
0.13715	34.52
0.15382	34.52
0.17048	34.52
0.18715	34.52
0.20382	34.52
0.22048	34.52
0.23715	34.53
0.25382	34.52
0.27048	34.52
0.28715	34.52
0.30382	34.52
0.32048	34.52
0.33715	34.51
0.35382	34.52
0.37048	34.52
0.38715	34.51
0.40382	34.51
0.42048	34.52
0.43715	34.52
0.45382	34.52
0.47048	34.52
0.48715	34.52
0.50382	34.52
0.52048	34.53
0.53715	34.52
0.55382	34.53
0.57048	34.52
0.58715	34.52
0.60382	34.52
0.62048	34.52
0.63715	34.52
0.65382	34.52
0.67048	34.52
0.68715	34.52
0.70382	34.52
0.72048	34.51
0.73715	34.52
0.75382	34.52
0.77048	34.52
0.78715	34.52
0.80382	34.51
0.82048	34.52
0.83715	34.52
0.85382	34.51
0.87048	34.52
0.88715	34.52
0.90382	34.52
0.92048	34.51
0.93715	34.52
0.95382	34.52
0.97048	34.52
0.98715	34.52
1.00382	34.52
1.02048	34.52
1.03715	34.52
1.05382	34.52
1.07048	34.52
1.08715	34.52
1.10382	34.52
1.12048	34.52
1.13715	34.51
1.15382	34.52
1.17048	34.52
1.18715	34.52
1.20382	34.52
1.22048	34.52
1.23715	34.52
1.25382	34.52
1.27048	34.52
1.28715	34.52
1.30382	34.52
1.32048	34.52
1.33715	34.52
1.35382	34.52
1.37048	34.51
1.38715	34.52
1.40382	34.52
1.42048	34.52
1.43715	34.52
1.45382	34.52
1.47048	34.52
1.48715	34.52
1.50382	34.52
1.52048	34.52
1.53715	34.51
1.55382	34.52
1.57048	34.52
1.58715	34.52
1.60382	34.52
1.62048	34.52
1.63715	34.52
1.65382	34.52
1.67048	34.51
1.68715	34.52
1.70382	34.52
1.72048	34.52
1.73715	34.52
1.75382	34.52
1.77048	34.52
1.78715	34.52
1.80382	34.53
1.82048	34.52
1.83715	34.52
1.85382	34.52
1.87048	34.52
1.88715	34.52
1.90382	34.52
1.92048	34.52
1.93715	34.52
1.95382	34.51
1.97048	34.52
1.98715	34.52
2.00382	34.52
2.02048	34.52
2.03715	34.52
2.05382	34.52
2.07048	34.51
2.08715	34.52
2.10382	34.52
2.12048	34.52
2.13715	34.52
2.15382	34.52
2.17048	34.52
2.18715	34.52
2.20382	34.52
2.22048	34.52
2.23715	34.52
2.25382	34.52
2.27048	34.52
2.28715	34.52
2.30382	34.51
2.32048	34.52
2.33715	34.53
2.35382	34.52
2.37048	34.52
2.38715	34.52
2.40382	34.51
2.42048	34.52
2.43715	34.52
2.45382	34.51
2.47048	34.52
2.48715	34.52
2.50382	34.63
2.52048	34.52
2.53715	34.52
2.55382	34.52
2.57048	34.52
2.58715	34.51
2.60382	34.51
2.62048	34.52
2.63715	34.52
2.65382	34.52
2.67048	34.52
2.68715	34.52
2.70382	34.52
2.72048	34.51
2.73715	34.52
2.75382	34.52
2.77048	34.51
2.78715	34.52
2.80382	34.52
2.82048	34.52
2.83715	34.52
2.85382	34.52
2.87048	34.52
2.88715	34.52
2.90382	34.52
2.92048	34.52
2.93715	34.52
2.95382	34.52
2.97048	34.52
2.98715	34.53
3.00382	34.52
3.02048	34.51
3.03715	34.52
3.05382	34.52
3.07048	34.52
3.08715	34.52
3.10382	34.52
3.12048	34.52
3.13715	34.52
3.15382	34.52
3.17048	34.52
3.18715	34.52
3.20382	34.52
3.22048	34.52
3.23715	34.52
3.25382	34.52
3.27048	34.52
3.28715	34.52
3.30382	34.52
3.32048	34.52
3.33715	34.52
3.35382	34.52
3.37048	34.52
3.38715	34.52
3.40382	34.52
3.42048	34.52
3.43715	34.52
3.45382	34.51
3.47048	34.52
3.48715	34.52
3.50382	34.53
3.52048	34.52
3.53715	34.52
3.55382	34.52
3.57048	34.52
3.58715	34.52
3.60382	34.52
3.62048	34.52
3.63715	34.52
3.65382	34.52
3.67048	34.52
3.68715	34.52
3.70382	34.52
3.72048	34.52
3.73715	34.53
3.75382	34.53
3.77048	34.51
3.78715	34.52
3.80382	34.52
3.82048	34.52
3.83715	34.51
3.85382	34.52
3.87048	34.52
3.88715	34.51
3.90382	34.51
3.92048	34.52
3.93715	34.52
3.95382	34.52
3.97048	34.51
3.98715	34.52

[Status Trace (Column Flow)]
Interval(msec)	1000
# of Points	240
Start Time(min)	0.004
End Time(min)	3.987
Intensity Units	
Intensity Multiplier	1
R.Time (min)	Intensity
0.00382	5.54
0.02048	5.30
0.03715	5.36
0.05382	5.64
0.07048	5.73
0.08715	5.56
0.10382	5.53
0.12048	5.54
0.13715	5.54
0.15382	5.54
0.17048	5.54
0.18715	5.54
0.20382	5.54
0.22048	5.54
0.23715	5.54
0.25382	5.54
0.27048	5.54
0.28715	5.54
0.30382	5.54
0.32048	5.54
0.33715	5.54
0.35382	5.54
0.37048	5.54
0.38715	5.54
0.40382	5.54
0.42048	5.54
0.43715	5.54
0.45382	5.54
0.47048	5.54
0.48715	5.54
0.50382	5.54
0.52048	5.54
0.53715	5.54
0.55382	5.54
0.57048	5.54
0.58715	5.54
0.60382	5.54
0.62048	5.54
0.63715	5.54
0.65382	5.54
0.67048	5.54
0.68715	5.54
0.70382	5.54
0.72048	5.54
0.73715	5.54
0.75382	5.54
0.77048	5.54
0.78715	5.54
0.80382	5.54
0.82048	5.54
0.83715	5.54
0.85382	5.54
0.87048	5.54
0.88715	5.54
0.90382	5.54
0.92048	5.54
0.93715	5.54
0.95382	5.54
0.97048	5.54
0.98715	5.54
1.00382	5.54
1.02048	5.54
1.03715	5.54
1.05382	5.54
1.07048	5.54
1.08715	5.54
1.10382	5.54
1.12048	5.54
1.13715	5.54
1.15382	5.54
1.17048	5.54
1.18715	5.54
1.20382	5.54
1.22048	5.54
1.23715	5.54
1.25382	5.54
1.27048	5.54
1.28715	5.54
1.30382	5.54
1.32048	5.54
1.33715	5.54
1.35382	5.54
1.37048	5.54
1.38715	5.54
1.40382	5.54
1.42048	5.54
1.43715	5.54
1.45382	5.54
1.47048	5.54
1.48715	5.54
1.50382	5.54
1.52048	5.54
1.53715	5.54
1.55382	5.54
1.57048	5.54
1.58715	5.54
1.60382	5.54
1.62048	5.53
1.63715	5.53
1.65382	5.52
1.67048	5.51
1.68715	5.50
1.70382	5.49
1.72048	5.48
1.73715	5.47
1.75382	5.46
1.77048	5.45
1.78715	5.44
1.80382	5.43
1.82048	5.42
1.83715	5.41
1.85382	5.40
1.87048	5.39
1.88715	5.38
1.90382	5.37
1.92048	5.36
1.93715	5.35
1.95382	5.34
1.97048	5.33
1.98715	5.32
2.00382	5.31
2.02048	5.30
2.03715	5.29
2.05382	5.28
2.07048	5.27
2.08715	5.26
2.10382	5.25
2.12048	5.24
2.13715	5.23
2.15382	5.22
2.17048	5.21
2.18715	5.20
2.20382	5.19
2.22048	5.19
2.23715	5.18
2.25382	5.17
2.27048	5.16
2.28715	5.15
2.30382	5.14
2.32048	5.13
2.33715	5.12
2.35382	5.11
2.37048	5.10
2.38715	5.10
2.40382	5.10
2.42048	5.10
2.43715	5.10
2.45382	5.10
2.47048	5.10
2.48715	5.10
2.50382	5.10
2.52048	5.10
2.53715	5.10
2.55382	5.10
2.57048	5.10
2.58715	5.10
2.60382	5.10
2.62048	5.10
2.63715	5.10
2.65382	5.10
2.67048	5.10
2.68715	5.10
2.70382	5.10
2.72048	5.10
2.73715	5.10
2.75382	5.10
2.77048	5.10
2.78715	5.10
2.80382	5.10
2.82048	5.10
2.83715	5.10
2.85382	5.10
2.87048	5.10
2.88715	5.10
2.90382	5.10
2.92048	5.10
2.93715	5.10
2.95382	5.09
2.97048	5.09
2.98715	5.09
3.00382	5.09
3.02048	5.09
3.03715	5.09
3.05382	5.09
3.07048	5.09
3.08715	5.09
3.10382	5.09
3.12048	5.09
3.13715	5.09
3.15382	5.09
3.17048	5.09
3.18715	5.09
3.20382	5.09
3.22048	5.09
3.23715	5.09
3.25382	5.09
3.27048	5.09
3.28715	5.09
3.30382	5.09
3.32048	5.09
3.33715	5.09
3.35382	5.09
3.37048	5.09
3.38715	5.09
3.40382	5.09
3.42048	5.09
3.43715	5.09
3.45382	5.09
3.47048	5.09
3.48715	5.09
3.50382	5.09
3.52048	5.09
3.53715	5.09
3.55382	5.09
3.57048	5.09
3.58715	5.09
3.60382	5.09
3.62048	5.09
3.63715	5.09
3.65382	5.09
3.67048	5.09
3.68715	5.09
3.70382	5.09
3.72048	5.09
3.73715	5.09
3.75382	5.09
3.77048	5.09
3.78715	5.09
3.80382	5.09
3.82048	5.09
3.83715	5.09
3.85382	5.09
3.87048	5.09
3.88715	5.09
3.90382	5.09
3.92048	5.09
3.93715	5.09
3.95382	5.09
3.97048	5.09
3.98715	5.09

[Status Trace (Linear Velocity)]
Interval(msec)	1000
# of Points	240
Start Time(min)	0.004
End Time(min)	3.987
Intensity Units	
Intensity Multiplier	1
R.Time (min)	Intensity
0.00382	39.01
0.02048	37.67
0.03715	38.04
0.05382	39.57
0.07048	40.12
0.08715	39.14
0.10382	39.00
0.12048	39.02
0.13715	39.02
0.15382	39.02
0.17048	39.02
0.18715	39.02
0.20382	39.02
0.22048	39.02
0.23715	39.02
0.25382	39.02
0.27048	39.02
0.28715	39.02
0.30382	39.02
0.32048	39.02
0.33715	39.02
0.35382	39.02
0.37048	39.02
0.38715	39.02
0.40382	39.02
0.42048	39.02
0.43715	39.02
0.45382	39.02
0.47048	39.02
0.48715	39.02
0.50382	39.02
0.52048	39.02
0.53715	39.02
0.55382	39.02
0.57048	39.02
0.58715	39.02
0.60382	39.02
0.62048	39.02
0.63715	39.02
0.65382	39.02
0.67048	39.02
0.68715	39.02
0.70382	39.02
0.72048	39.02
0.73715	39.02
0.75382	39.02
0.77048	39.02
0.78715	39.02
0.80382	39.02
0.82048	39.02
0.83715	39.02
0.85382	39.02
0.87048	39.02
0.88715	39.02
0.90382	39.02
0.92048	39.02
0.93715	39.02
0.95382	39.02
0.97048	39.02
0.98715	39.02
1.00382	39.02
1.02048	39.02
1.03715	39.02
1.05382	39.02
1.07048	39.02
1.08715	39.02
1.10382	39.02
1.12048	39.02
1.13715	39.02
1.15382	39.02
1.17048	39.02
1.18715	39.02
1.20382	39.02
1.22048	39.02
1.23715	39.02
1.25382	39.02
1.27048	39.02
1.28715	39.02
1.30382	39.02
1.32048	39.02
1.33715	39.02
1.35382	39.02
1.37048	39.02
1.38715	39.02
1.40382	39.02
1.42048	39.02
1.43715	39.02
1.45382	39.02
1.47048	39.02
1.48715	39.02
1.50382	39.02
1.52048	39.02
1.53715	39.02
1.55382	39.02
1.57048	39.02
1.58715	39.02
1.60382	39.02
1.62048	39.01
1.63715	38.99
1.65382	38.97
1.67048	38.94
1.68715	38.91
1.70382	38.87
1.72048	38.84
1.73715	38.81
1.75382	38.78
1.77048	38.74
1.78715	38.71
1.80382	38.68
1.82048	38.65
1.83715	38.62
1.85382	38.59
1.87048	38.56
1.88715	38.53
1.90382	38.50
1.92048	38.46
1.93715	38.43
1.95382	38.40
1.97048	38.37
1.98715	38.34
2.00382	38.31
2.02048	38.28
2.03715	38.25
2.05382	38.22
2.07048	38.19
2.08715	38.16
2.10382	38.13
2.12048	38.10
2.13715	38.07
2.15382	38.04
2.17048	38.02
2.18715	37.99
2.20382	37.96
2.22048	37.93
2.23715	37.90
2.25382	37.87
2.27048	37.84
2.28715	37.81
2.30382	37.78
2.32048	37.75
2.33715	37.72
2.35382	37.69
2.37048	37.67
2.38715	37.65
2.40382	37.65
2.42048	37.66
2.43715	37.66
2.45382	37.66
2.47048	37.66
2.48715	37.66
2.50382	37.64
2.52048	37.65
2.53715	37.65
2.55382	37.65
2.57048	37.65
2.58715	37.65
2.60382	37.65
2.62048	37.65
2.63715	37.65
2.65382	37.65
2.67048	37.65
2.68715	37.65
2.70382	37.65
2.72048	37.65
2.73715	37.65
2.75382	37.65
2.77048	37.64
2.78715	37.64
2.80382	37.65
2.82048	37.65
2.83715	37.65
2.85382	37.65
2.87048	37.65
2.88715	37.65
2.90382	37.64
2.92048	37.64
2.93715	37.64
2.95382	37.64
2.97048	37.64
2.98715	37.64
3.00382	37.64
3.02048	37.64
3.03715	37.64
3.05382	37.64
3.07048	37.64
3.08715	37.64
3.10382	37.63
3.12048	37.63
3.13715	37.63
3.15382	37.63
3.17048	37.63
3.18715	37.63
3.20382	37.63
3.22048	37.63
3.23715	37.63
3.25382	37.63
3.27048	37.63
3.28715	37.63
3.30382	37.63
3.32048	37.63
3.33715	37.63
3.35382	37.63
3.37048	37.63
3.38715	37.63
3.40382	37.63
3.42048	37.63
3.43715	37.63
3.45382	37.63
3.47048	37.63
3.48715	37.63
3.50382	37.63
3.52048	37.63
3.53715	37.63
3.55382	37.63
3.57048	37.63
3.58715	37.63
3.60382	37.63
3.62048	37.63
3.63715	37.63
3.65382	37.63
3.67048	37.63
3.68715	37.63
3.70382	37.63
3.72048	37.63
3.73715	37.63
3.75382	37.63
3.77048	37.63
3.78715	37.63
3.80382	37.63
3.82048	37.63
3.83715	37.63
3.85382	37.63
3.87048	37.63
3.88715	37.63
3.90382	37.63
3.92048	37.63
3.93715	37.63
3.95382	37.63
3.97048	37.63
3.98715	37.63

