[Header]
Application Name	LabSolutions
Version	5.110
Data File Name	C:\Users\User\Desktop\Junior\UIC Prairie Sampling\5.18.23\05182023_055.gcd
Output Date	6/5/2023
Output Time	2:17:28 PM

[File Information]
Type	Data File
Generated	5/24/2023 6:15:37 PM
Generated by	System Administrator
Modified	5/24/2023 6:23:01 PM
Modified by	System Administrator

[Sample Information]
Operator Name	System Administrator
Acquired	5/24/2023 6:19:01 PM
Sample Type	0:Unknown
Level	0
Sample Name	055
Sample ID	055
ISTD Amount1	1
ISTD Amount2	1
ISTD Amount3	1
ISTD Amount4	1
ISTD Amount5	1
ISTD Amount6	1
ISTD Amount7	1
ISTD Amount8	1
ISTD Amount9	1
ISTD Amount10	1
ISTD Amount11	1
ISTD Amount12	1
ISTD Amount13	1
ISTD Amount14	1
ISTD Amount15	1
ISTD Amount16	1
ISTD Amount17	1
ISTD Amount18	1
ISTD Amount19	1
ISTD Amount20	1
ISTD Amount21	1
ISTD Amount22	1
ISTD Amount23	1
ISTD Amount24	1
ISTD Amount25	1
ISTD Amount26	1
ISTD Amount27	1
ISTD Amount28	1
ISTD Amount29	1
ISTD Amount30	1
ISTD Amount31	1
ISTD Amount32	1
Sample Amount	1
Dilution Factor	1
Vial#	54
Injection Volume	1
Injection Count	1
Bar Code	

[Original Files]
Data File	C:\Users\User\Desktop\Junior\UIC Prairie Sampling\5.18.23\05182023_055.gcd
Method File	C:\LabSolutions\Data\GHG_4min_2022\ghg3_togas_w_acet_4 min_new_int.gcm
Batch File	C:\LabSolutions\Data\AutoSamplerTesting\05182023.gcb
Report Format File	c:\LabSolutions\System\DEFAULT.lsr

[File Description]


[Configuration]
Instrument Name	C0B7VH3-Instrument1
Instrument #	1
Line #	1
# of Detectors	3
Detector ID	DET#1	DET#2	DET#3
Detector Name	FID	PTCD	ECD
# of Channels	1	1	1

[Peak Table(Ch1)]
# of Peaks	3
Peak#	R.Time	I.Time	F.Time	Area	Height	A/H	Conc.	Mark	ID#	Name	k'	Plate #	Plate Ht.	Tailing	Resolution	Sep.Factor	Area Ratio	Height Ratio	Conc. %	Norm Conc.
1	1.476	1.435	1.523	2017	993	2.031	0.000	   	1	CO	0.000	9657	15.533	1.063	0.000	0.000	0	0	0.000	0.000
2	1.564	1.523	1.615	4517	2275	1.985	22.021	 V 	2	CH4	0.060	11321	13.249	1.132	1.481	0.000	0	0	5.474	5.474
3	1.989	1.945	2.510	1973251	944993	2.088	380.282	   	3	CO2	0.348	17351	8.645	1.304	7.137	5.833	0	0	94.526	94.526

[Peak Table(Ch2)]
# of Peaks	0

[Peak Table(Ch3)]
# of Peaks	4
Peak#	R.Time	I.Time	F.Time	Area	Height	A/H	Conc.	Mark	ID#	Name	k'	Plate #	Plate Ht.	Tailing	Resolution	Sep.Factor	Area Ratio	Height Ratio	Conc. %	Norm Conc.
1	2.458	2.407	2.506	702	294	2.385	0.000	   			0.000	18329	8.184	0.000	0.000	0.000	0	0	0.000	0.000
2	2.590	2.506	2.675	4553	626	7.277	0.000	 V 			0.054	45	3335.594	0.000	0.163	0.000	0	0	0.000	0.000
3	2.730	2.675	2.829	4150	491	8.451	0.000	 V 			0.110	167	900.661	0.000	0.117	2.056	0	0	0.000	0.000
4	2.891	2.829	3.877	32837	5081	6.463	0.486	 V 	1	N2O	0.176	11999	12.501	0.000	0.339	1.595	0	0	100.000	100.000

[Compound Results(Ch1)]
# of IDs	6
ID#	Name	R.Time	Area	Height	Conc.	Curve	3rd	2nd	1st	Constant	Area Ratio	Height Ratio	Conc. %	Norm Conc.
1	CO	1.476	2017	993	0.000	Linear	0.000000e+00	0.000000e+00	0.000000e+00	0.000000e+00	0	0	0.000	0.000
2	CH4	1.564	4517	2275	22.021	Linear	0.000000e+00	0.000000e+00	2.051179e+002	0.000000e+00	0	0	5.474	5.474
3	CO2	1.989	1973251	944993	380.282	Linear	0.000000e+00	0.000000e+00	5.188919e+003	0.000000e+00	0	0	94.526	94.526
4	Ethylene	0.000	0	0	0.000	Linear	0.000000e+00	0.000000e+00	0.000000e+00	0.000000e+00	0	0	0.000	0.000
5	Acetylene	0.000	0	0	0.000	Linear	0.000000e+00	0.000000e+00	0.000000e+00	0.000000e+00	0	0	0.000	0.000
6	Ethane	0.000	0	0	0.000	Linear	0.000000e+00	0.000000e+00	0.000000e+00	0.000000e+00	0	0	0.000	0.000

[Compound Results(Ch2)]
# of IDs	5
ID#	Name	R.Time	Area	Height	Conc.	Curve	3rd	2nd	1st	Constant	Area Ratio	Height Ratio	Conc. %	Norm Conc.
1	Hydrogen	0.000	0	0	0.000	Linear	0.000000e+00	0.000000e+00	0.000000e+00	0.000000e+00	0	0	0.000	0.000
2	Oxygen	0.000	0	0	0.000	Linear	0.000000e+00	0.000000e+00	0.000000e+00	0.000000e+00	0	0	0.000	0.000
3	Nitrogen	0.000	0	0	0.000	Linear	0.000000e+00	0.000000e+00	0.000000e+00	0.000000e+00	0	0	0.000	0.000
4	Methane	0.000	0	0	0.000	Linear	0.000000e+00	0.000000e+00	0.000000e+00	0.000000e+00	0	0	0.000	0.000
5	Carbon Monoxide	0.000	0	0	0.000	Linear	0.000000e+00	0.000000e+00	0.000000e+00	0.000000e+00	0	0	0.000	0.000

[Compound Results(Ch3)]
# of IDs	2
ID#	Name	R.Time	Area	Height	Conc.	Curve	3rd	2nd	1st	Constant	Area Ratio	Height Ratio	Conc. %	Norm Conc.
1	N2O	2.891	32837	5081	0.486	Linear	0.000000e+00	0.000000e+00	6.759880e+004	0.000000e+00	0	0	100.000	100.000
2	SF6	0.000	0	0	0.000	Linear	0.000000e+00	0.000000e+00	0.000000e+00	0.000000e+00	0	0	0.000	0.000

[Group Results(Ch1)]
# of Groups	0

[Group Results(Ch2)]
# of Groups	0

[Group Results(Ch3)]
# of Groups	0

[Chromatogram (Ch1)]
Interval(msec)	220
# of Points	1091
Start Time(min)	0.002
End Time(min)	3.998
R.Time (min)	Intensity
0.00167	-8
0.00533	-8
0.00900	-9
0.01267	-15
0.01633	-22
0.02000	-24
0.02367	-22
0.02733	-21
0.03100	-22
0.03467	-22
0.03833	-19
0.04200	-17
0.04567	-16
0.04933	-16
0.05300	-15
0.05667	-14
0.06033	-12
0.06400	-9
0.06767	-7
0.07133	-5
0.07500	-2
0.07867	2
0.08233	5
0.08600	6
0.08967	7
0.09333	6
0.09700	-1
0.10067	-9
0.10433	-14
0.10800	-15
0.11167	-11
0.11533	-9
0.11900	-9
0.12267	-9
0.12633	-10
0.13000	-11
0.13367	-11
0.13733	-8
0.14100	-6
0.14467	-2
0.14833	3
0.15200	4
0.15567	3
0.15933	-1
0.16300	-4
0.16667	-4
0.17033	-4
0.17400	-7
0.17767	-9
0.18133	-7
0.18500	-4
0.18867	-4
0.19233	-6
0.19600	-10
0.19967	-11
0.20333	-11
0.20700	-12
0.21067	-12
0.21433	-15
0.21800	-19
0.22167	-21
0.22533	-18
0.22900	-10
0.23267	-5
0.23633	-5
0.24000	-5
0.24367	-3
0.24733	3
0.25100	5
0.25467	3
0.25833	1
0.26200	1
0.26567	1
0.26933	3
0.27300	2
0.27667	-1
0.28033	-4
0.28400	-4
0.28767	-6
0.29133	-11
0.29500	-17
0.29867	-21
0.30233	-23
0.30600	-20
0.30967	-14
0.31333	-6
0.31700	-0
0.32067	3
0.32433	4
0.32800	2
0.33167	-6
0.33533	-15
0.33900	-23
0.34267	-28
0.34633	-28
0.35000	-22
0.35367	-13
0.35733	-7
0.36100	-9
0.36467	-15
0.36833	-19
0.37200	-19
0.37567	-16
0.37933	-14
0.38300	-10
0.38667	-3
0.39033	4
0.39400	10
0.39767	14
0.40133	16
0.40500	14
0.40867	7
0.41233	0
0.41600	-7
0.41967	-14
0.42333	-18
0.42700	-18
0.43067	-16
0.43433	-11
0.43800	-5
0.44167	-2
0.44533	-4
0.44900	-6
0.45267	-10
0.45633	-14
0.46000	-15
0.46367	-16
0.46733	-16
0.47100	-16
0.47467	-15
0.47833	-14
0.48200	-9
0.48567	-3
0.48933	0
0.49300	2
0.49667	6
0.50033	9
0.50400	15
0.50767	18
0.51133	16
0.51500	10
0.51867	4
0.52233	-3
0.52600	-12
0.52967	-21
0.53333	-29
0.53700	-37
0.54067	-45
0.54433	-50
0.54800	-53
0.55167	-53
0.55533	-51
0.55900	-46
0.56267	-41
0.56633	-35
0.57000	-30
0.57367	-26
0.57733	-25
0.58100	-25
0.58467	-24
0.58833	-20
0.59200	-10
0.59567	-2
0.59933	-2
0.60300	-6
0.60667	-11
0.61033	-13
0.61400	-15
0.61767	-20
0.62133	-22
0.62500	-21
0.62867	-16
0.63233	-13
0.63600	-13
0.63967	-18
0.64333	-23
0.64700	-22
0.65067	-21
0.65433	-21
0.65800	-20
0.66167	-16
0.66533	-15
0.66900	-17
0.67267	-18
0.67633	-16
0.68000	-10
0.68367	-8
0.68733	-7
0.69100	-4
0.69467	-2
0.69833	-6
0.70200	-12
0.70567	-12
0.70933	-8
0.71300	-10
0.71667	-16
0.72033	-25
0.72400	-34
0.72767	-38
0.73133	-40
0.73500	-45
0.73867	-47
0.74233	-43
0.74600	-36
0.74967	-32
0.75333	-29
0.75700	-27
0.76067	-25
0.76433	-25
0.76800	-25
0.77167	-25
0.77533	-21
0.77900	-17
0.78267	-14
0.78633	-15
0.79000	-20
0.79367	-28
0.79733	-36
0.80100	-38
0.80467	-40
0.80833	-40
0.81200	-35
0.81567	-28
0.81933	-18
0.82300	-7
0.82667	-2
0.83033	-2
0.83400	-4
0.83767	-10
0.84133	-13
0.84500	-14
0.84867	-14
0.85233	-10
0.85600	-6
0.85967	-5
0.86333	-2
0.86700	-3
0.87067	-12
0.87433	-24
0.87800	-34
0.88167	-37
0.88533	-37
0.88900	-36
0.89267	-36
0.89633	-36
0.90000	-34
0.90367	-25
0.90733	-13
0.91100	-7
0.91467	-9
0.91833	-15
0.92200	-18
0.92567	-24
0.92933	-33
0.93300	-41
0.93667	-46
0.94033	-45
0.94400	-40
0.94767	-38
0.95133	-36
0.95500	-36
0.95867	-35
0.96233	-34
0.96600	-30
0.96967	-27
0.97333	-26
0.97700	-22
0.98067	-17
0.98433	-16
0.98800	-18
0.99167	-20
0.99533	-22
0.99900	-25
1.00267	-26
1.00633	-25
1.01000	-23
1.01367	-22
1.01733	-18
1.02100	-12
1.02467	-8
1.02833	-10
1.03200	-18
1.03567	-26
1.03933	-33
1.04300	-37
1.04667	-38
1.05033	-39
1.05400	-41
1.05767	-46
1.06133	-50
1.06500	-52
1.06867	-52
1.07233	-50
1.07600	-46
1.07967	-47
1.08333	-54
1.08700	-60
1.09067	-60
1.09433	-54
1.09800	-44
1.10167	-38
1.10533	-37
1.10900	-35
1.11267	-34
1.11633	-29
1.12000	-21
1.12367	-16
1.12733	-17
1.13100	-18
1.13467	-19
1.13833	-20
1.14200	-21
1.14567	-24
1.14933	-30
1.15300	-40
1.15667	-49
1.16033	-58
1.16400	-62
1.16767	-59
1.17133	-54
1.17500	-54
1.17867	-55
1.18233	-55
1.18600	-56
1.18967	-53
1.19333	-48
1.19700	-44
1.20067	-42
1.20433	-43
1.20800	-45
1.21167	-44
1.21533	-44
1.21900	-44
1.22267	-44
1.22633	-41
1.23000	-38
1.23367	-37
1.23733	-43
1.24100	-52
1.24467	-57
1.24833	-57
1.25200	-55
1.25567	-51
1.25933	-49
1.26300	-47
1.26667	-44
1.27033	-43
1.27400	-44
1.27767	-44
1.28133	-43
1.28500	-41
1.28867	-41
1.29233	-40
1.29600	-38
1.29967	-33
1.30333	-27
1.30700	-23
1.31067	-21
1.31433	-22
1.31800	-26
1.32167	-34
1.32533	-42
1.32900	-45
1.33267	-46
1.33633	-47
1.34000	-45
1.34367	-39
1.34733	-35
1.35100	-33
1.35467	-32
1.35833	-37
1.36200	-47
1.36567	-58
1.36933	-64
1.37300	-66
1.37667	-65
1.38033	-65
1.38400	-64
1.38767	-60
1.39133	-54
1.39500	-48
1.39867	-43
1.40233	-38
1.40600	-37
1.40967	-40
1.41333	-45
1.41700	-50
1.42067	-56
1.42433	-62
1.42800	-65
1.43167	-65
1.43533	-54
1.43900	-23
1.44267	2
1.44633	18
1.45000	84
1.45367	218
1.45733	388
1.46100	558
1.46467	710
1.46833	837
1.47200	919
1.47567	933
1.47933	865
1.48300	732
1.48667	570
1.49033	411
1.49400	275
1.49767	172
1.50133	100
1.50500	48
1.50867	14
1.51233	-9
1.51600	-25
1.51967	-35
1.52333	-40
1.52700	-37
1.53067	-25
1.53433	19
1.53800	149
1.54167	421
1.54533	823
1.54900	1269
1.55267	1669
1.55633	1973
1.56000	2161
1.56367	2202
1.56733	2074
1.57100	1800
1.57467	1441
1.57833	1075
1.58200	754
1.58567	497
1.58933	304
1.59300	169
1.59667	82
1.60033	27
1.60400	-12
1.60767	-41
1.61133	-64
1.61500	-82
1.61867	-89
1.62233	-89
1.62600	-84
1.62967	-80
1.63333	-77
1.63700	-78
1.64067	-76
1.64433	-72
1.64800	-68
1.65167	-68
1.65533	-70
1.65900	-79
1.66267	-91
1.66633	-101
1.67000	-103
1.67367	-102
1.67733	-99
1.68100	-97
1.68467	-96
1.68833	-95
1.69200	-91
1.69567	-85
1.69933	-81
1.70300	-79
1.70667	-78
1.71033	-80
1.71400	-82
1.71767	-84
1.72133	-82
1.72500	-76
1.72867	-71
1.73233	-73
1.73600	-77
1.73967	-78
1.74333	-78
1.74700	-80
1.75067	-79
1.75433	-79
1.75800	-79
1.76167	-83
1.76533	-86
1.76900	-86
1.77267	-82
1.77633	-75
1.78000	-67
1.78367	-64
1.78733	-66
1.79100	-71
1.79467	-77
1.79833	-80
1.80200	-84
1.80567	-89
1.80933	-93
1.81300	-94
1.81667	-89
1.82033	-82
1.82400	-78
1.82767	-75
1.83133	-74
1.83500	-75
1.83867	-77
1.84233	-78
1.84600	-78
1.84967	-75
1.85333	-71
1.85700	-69
1.86067	-69
1.86433	-70
1.86800	-72
1.87167	-74
1.87533	-74
1.87900	-73
1.88267	-72
1.88633	-75
1.89000	-80
1.89367	-82
1.89733	-82
1.90100	-81
1.90467	-78
1.90833	-72
1.91200	-65
1.91567	-58
1.91933	-53
1.92300	-50
1.92667	-49
1.93033	-49
1.93400	-48
1.93767	-50
1.94133	-53
1.94500	-39
1.94867	92
1.95233	898
1.95600	4734
1.95967	18468
1.96333	55864
1.96700	134411
1.97067	263307
1.97433	432295
1.97800	613499
1.98167	775155
1.98533	891206
1.98900	944985
1.99267	930342
1.99633	853650
2.00000	732936
2.00367	592391
2.00733	454632
2.01100	334858
2.01467	239442
2.01833	168085
2.02200	117038
2.02567	81584
2.02933	57406
2.03300	41077
2.03667	30074
2.04033	22624
2.04400	17523
2.04767	13979
2.05133	11466
2.05500	9632
2.05867	8260
2.06233	7209
2.06600	6384
2.06967	5718
2.07333	5167
2.07700	4706
2.08067	4309
2.08433	3965
2.08800	3671
2.09167	3418
2.09533	3196
2.09900	2999
2.10267	2826
2.10633	2673
2.11000	2534
2.11367	2408
2.11733	2291
2.12100	2183
2.12467	2081
2.12833	1987
2.13200	1900
2.13567	1819
2.13933	1745
2.14300	1679
2.14667	1616
2.15033	1558
2.15400	1503
2.15767	1446
2.16133	1394
2.16500	1350
2.16867	1309
2.17233	1269
2.17600	1229
2.17967	1192
2.18333	1159
2.18700	1125
2.19067	1092
2.19433	1066
2.19800	1041
2.20167	1013
2.20533	983
2.20900	956
2.21267	932
2.21633	911
2.22000	888
2.22367	866
2.22733	844
2.23100	823
2.23467	803
2.23833	785
2.24200	768
2.24567	751
2.24933	730
2.25300	710
2.25667	696
2.26033	687
2.26400	678
2.26767	673
2.27133	667
2.27500	657
2.27867	645
2.28233	636
2.28600	626
2.28967	610
2.29333	596
2.29700	583
2.30067	568
2.30433	555
2.30800	546
2.31167	540
2.31533	533
2.31900	527
2.32267	522
2.32633	517
2.33000	511
2.33367	503
2.33733	496
2.34100	491
2.34467	487
2.34833	483
2.35200	478
2.35567	474
2.35933	472
2.36300	468
2.36667	467
2.37033	466
2.37400	466
2.37767	464
2.38133	460
2.38500	454
2.38867	447
2.39233	445
2.39600	444
2.39967	435
2.40333	419
2.40700	402
2.41067	388
2.41433	381
2.41800	378
2.42167	376
2.42533	375
2.42900	376
2.43267	377
2.43633	377
2.44000	378
2.44367	379
2.44733	381
2.45100	381
2.45467	381
2.45833	381
2.46200	380
2.46567	379
2.46933	378
2.47300	377
2.47667	377
2.48033	373
2.48400	365
2.48767	359
2.49133	358
2.49500	359
2.49867	358
2.50233	355
2.50600	355
2.50967	352
2.51333	347
2.51700	347
2.52067	353
2.52433	356
2.52800	354
2.53167	351
2.53533	348
2.53900	350
2.54267	355
2.54633	360
2.55000	359
2.55367	356
2.55733	353
2.56100	352
2.56467	348
2.56833	342
2.57200	338
2.57567	338
2.57933	343
2.58300	350
2.58667	355
2.59033	356
2.59400	353
2.59767	348
2.60133	342
2.60500	334
2.60867	330
2.61233	334
2.61600	341
2.61967	349
2.62333	355
2.62700	351
2.63067	344
2.63433	341
2.63800	347
2.64167	355
2.64533	362
2.64900	366
2.65267	368
2.65633	366
2.66000	363
2.66367	358
2.66733	350
2.67100	344
2.67467	341
2.67833	341
2.68200	345
2.68567	347
2.68933	344
2.69300	337
2.69667	331
2.70033	330
2.70400	333
2.70767	337
2.71133	339
2.71500	342
2.71867	346
2.72233	347
2.72600	348
2.72967	350
2.73333	349
2.73700	346
2.74067	342
2.74433	340
2.74800	343
2.75167	346
2.75533	345
2.75900	345
2.76267	346
2.76633	349
2.77000	355
2.77367	362
2.77733	371
2.78100	376
2.78467	379
2.78833	379
2.79200	375
2.79567	373
2.79933	372
2.80300	373
2.80667	375
2.81033	376
2.81400	379
2.81767	382
2.82133	380
2.82500	377
2.82867	374
2.83233	370
2.83600	368
2.83967	370
2.84333	375
2.84700	377
2.85067	380
2.85433	385
2.85800	393
2.86167	400
2.86533	400
2.86900	393
2.87267	382
2.87633	373
2.88000	370
2.88367	373
2.88733	377
2.89100	382
2.89467	388
2.89833	392
2.90200	396
2.90567	399
2.90933	402
2.91300	403
2.91667	407
2.92033	413
2.92400	417
2.92767	417
2.93133	418
2.93500	420
2.93867	421
2.94233	422
2.94600	424
2.94967	423
2.95333	419
2.95700	415
2.96067	416
2.96433	419
2.96800	419
2.97167	418
2.97533	416
2.97900	410
2.98267	405
2.98633	401
2.99000	399
2.99367	401
2.99733	407
3.00100	413
3.00467	413
3.00833	414
3.01200	419
3.01567	422
3.01933	424
3.02300	427
3.02667	429
3.03033	430
3.03400	428
3.03767	424
3.04133	420
3.04500	418
3.04867	419
3.05233	419
3.05600	417
3.05967	417
3.06333	420
3.06700	424
3.07067	426
3.07433	425
3.07800	421
3.08167	417
3.08533	417
3.08900	421
3.09267	427
3.09633	428
3.10000	431
3.10367	435
3.10733	437
3.11100	437
3.11467	439
3.11833	442
3.12200	440
3.12567	436
3.12933	435
3.13300	434
3.13667	430
3.14033	429
3.14400	430
3.14767	435
3.15133	438
3.15500	437
3.15867	431
3.16233	425
3.16600	420
3.16967	416
3.17333	416
3.17700	421
3.18067	423
3.18433	421
3.18800	415
3.19167	405
3.19533	398
3.19900	397
3.20267	403
3.20633	410
3.21000	417
3.21367	422
3.21733	428
3.22100	434
3.22467	439
3.22833	443
3.23200	448
3.23567	453
3.23933	457
3.24300	460
3.24667	460
3.25033	456
3.25400	446
3.25767	433
3.26133	422
3.26500	413
3.26867	408
3.27233	407
3.27600	404
3.27967	402
3.28333	403
3.28700	407
3.29067	412
3.29433	417
3.29800	419
3.30167	419
3.30533	416
3.30900	410
3.31267	409
3.31633	412
3.32000	416
3.32367	419
3.32733	423
3.33100	424
3.33467	421
3.33833	418
3.34200	418
3.34567	419
3.34933	422
3.35300	426
3.35667	425
3.36033	418
3.36400	410
3.36767	404
3.37133	402
3.37500	405
3.37867	413
3.38233	421
3.38600	428
3.38967	434
3.39333	433
3.39700	425
3.40067	411
3.40433	396
3.40800	384
3.41167	376
3.41533	372
3.41900	372
3.42267	376
3.42633	385
3.43000	397
3.43367	408
3.43733	415
3.44100	421
3.44467	422
3.44833	414
3.45200	405
3.45567	395
3.45933	386
3.46300	382
3.46667	382
3.47033	380
3.47400	377
3.47767	378
3.48133	384
3.48500	391
3.48867	397
3.49233	400
3.49600	402
3.49967	404
3.50333	405
3.50700	404
3.51067	403
3.51433	401
3.51800	397
3.52167	393
3.52533	391
3.52900	390
3.53267	390
3.53633	391
3.54000	391
3.54367	388
3.54733	385
3.55100	386
3.55467	390
3.55833	396
3.56200	400
3.56567	403
3.56933	405
3.57300	402
3.57667	396
3.58033	387
3.58400	382
3.58767	380
3.59133	379
3.59500	378
3.59867	375
3.60233	373
3.60600	372
3.60967	373
3.61333	369
3.61700	364
3.62067	363
3.62433	364
3.62800	365
3.63167	367
3.63533	369
3.63900	371
3.64267	375
3.64633	380
3.65000	383
3.65367	384
3.65733	385
3.66100	384
3.66467	379
3.66833	373
3.67200	369
3.67567	365
3.67933	362
3.68300	362
3.68667	362
3.69033	360
3.69400	359
3.69767	358
3.70133	361
3.70500	367
3.70867	369
3.71233	365
3.71600	356
3.71967	351
3.72333	353
3.72700	354
3.73067	354
3.73433	354
3.73800	354
3.74167	351
3.74533	351
3.74900	352
3.75267	355
3.75633	357
3.76000	357
3.76367	359
3.76733	363
3.77100	365
3.77467	366
3.77833	366
3.78200	368
3.78567	369
3.78933	369
3.79300	366
3.79667	363
3.80033	359
3.80400	357
3.80767	354
3.81133	353
3.81500	351
3.81867	346
3.82233	340
3.82600	333
3.82967	328
3.83333	332
3.83700	340
3.84067	351
3.84433	358
3.84800	361
3.85167	358
3.85533	352
3.85900	348
3.86267	345
3.86633	343
3.87000	345
3.87367	350
3.87733	351
3.88100	350
3.88467	348
3.88833	347
3.89200	346
3.89567	341
3.89933	335
3.90300	329
3.90667	324
3.91033	320
3.91400	319
3.91767	321
3.92133	327
3.92500	338
3.92867	348
3.93233	353
3.93600	351
3.93967	346
3.94333	345
3.94700	351
3.95067	357
3.95433	357
3.95800	351
3.96167	343
3.96533	337
3.96900	330
3.97267	318
3.97633	304
3.98000	296
3.98367	296
3.98733	302
3.99100	306
3.99467	304
3.99833	300

[Chromatogram (Ch2)]
Interval(msec)	220
# of Points	1091
Start Time(min)	0.002
End Time(min)	3.998
R.Time (min)	Intensity
0.00167	-1
0.00533	-2
0.00900	-2
0.01267	-2
0.01633	-3
0.02000	-3
0.02367	-4
0.02733	-4
0.03100	-4
0.03467	-4
0.03833	-4
0.04200	-3
0.04567	-3
0.04933	-2
0.05300	-2
0.05667	-2
0.06033	-2
0.06400	-1
0.06767	-1
0.07133	-1
0.07500	-1
0.07867	-0
0.08233	-0
0.08600	0
0.08967	1
0.09333	1
0.09700	1
0.10067	1
0.10433	1
0.10800	1
0.11167	1
0.11533	1
0.11900	1
0.12267	1
0.12633	1
0.13000	1
0.13367	1
0.13733	1
0.14100	0
0.14467	0
0.14833	-0
0.15200	-1
0.15567	-1
0.15933	-1
0.16300	-1
0.16667	-1
0.17033	-1
0.17400	-1
0.17767	-0
0.18133	-0
0.18500	-0
0.18867	-0
0.19233	-0
0.19600	-0
0.19967	-0
0.20333	-1
0.20700	-1
0.21067	-1
0.21433	-1
0.21800	-1
0.22167	-1
0.22533	-1
0.22900	-1
0.23267	-1
0.23633	-1
0.24000	-1
0.24367	-1
0.24733	-1
0.25100	-1
0.25467	-2
0.25833	-2
0.26200	-2
0.26567	-2
0.26933	-2
0.27300	-3
0.27667	-3
0.28033	-3
0.28400	-4
0.28767	-4
0.29133	-4
0.29500	-4
0.29867	-3
0.30233	-3
0.30600	-3
0.30967	-3
0.31333	-2
0.31700	-2
0.32067	-2
0.32433	-2
0.32800	-2
0.33167	-2
0.33533	-2
0.33900	-1
0.34267	-1
0.34633	-1
0.35000	-1
0.35367	-1
0.35733	-1
0.36100	-0
0.36467	-0
0.36833	-0
0.37200	-1
0.37567	-1
0.37933	-1
0.38300	-1
0.38667	-1
0.39033	-1
0.39400	-1
0.39767	-0
0.40133	-1
0.40500	-1
0.40867	-1
0.41233	-1
0.41600	-2
0.41967	-2
0.42333	-2
0.42700	-2
0.43067	-3
0.43433	-3
0.43800	-3
0.44167	-3
0.44533	-3
0.44900	-3
0.45267	-3
0.45633	-3
0.46000	-3
0.46367	-3
0.46733	-3
0.47100	-3
0.47467	-3
0.47833	-3
0.48200	-3
0.48567	-3
0.48933	-4
0.49300	-4
0.49667	-4
0.50033	-4
0.50400	-4
0.50767	-3
0.51133	-3
0.51500	-3
0.51867	-3
0.52233	-3
0.52600	-3
0.52967	-3
0.53333	-3
0.53700	-3
0.54067	-3
0.54433	-3
0.54800	-3
0.55167	-3
0.55533	-3
0.55900	-3
0.56267	-3
0.56633	-3
0.57000	-3
0.57367	-3
0.57733	-4
0.58100	-4
0.58467	-5
0.58833	-5
0.59200	-5
0.59567	-5
0.59933	-5
0.60300	-5
0.60667	-6
0.61033	-6
0.61400	-6
0.61767	-6
0.62133	-6
0.62500	-5
0.62867	-5
0.63233	-5
0.63600	-5
0.63967	-5
0.64333	-5
0.64700	-5
0.65067	-5
0.65433	-5
0.65800	-4
0.66167	-4
0.66533	-4
0.66900	-4
0.67267	-4
0.67633	-4
0.68000	-4
0.68367	-4
0.68733	-4
0.69100	-4
0.69467	-4
0.69833	-4
0.70200	-4
0.70567	-4
0.70933	-4
0.71300	-4
0.71667	-4
0.72033	-4
0.72400	-4
0.72767	-4
0.73133	-4
0.73500	-3
0.73867	-3
0.74233	-3
0.74600	-3
0.74967	-3
0.75333	-2
0.75700	-2
0.76067	-2
0.76433	-2
0.76800	-2
0.77167	-2
0.77533	-2
0.77900	-2
0.78267	-2
0.78633	-2
0.79000	-2
0.79367	-2
0.79733	-2
0.80100	-3
0.80467	-3
0.80833	-3
0.81200	-4
0.81567	-4
0.81933	-4
0.82300	-4
0.82667	-5
0.83033	-5
0.83400	-5
0.83767	-5
0.84133	-5
0.84500	-5
0.84867	-5
0.85233	-5
0.85600	-5
0.85967	-5
0.86333	-5
0.86700	-5
0.87067	-5
0.87433	-6
0.87800	-6
0.88167	-6
0.88533	-6
0.88900	-5
0.89267	-5
0.89633	-5
0.90000	-5
0.90367	-5
0.90733	-5
0.91100	-5
0.91467	-5
0.91833	-5
0.92200	-5
0.92567	-5
0.92933	-5
0.93300	-4
0.93667	-4
0.94033	-4
0.94400	-4
0.94767	-3
0.95133	-3
0.95500	-3
0.95867	-3
0.96233	-3
0.96600	-3
0.96967	-3
0.97333	-3
0.97700	-3
0.98067	-4
0.98433	-4
0.98800	-4
0.99167	-4
0.99533	-5
0.99900	-5
1.00267	-5
1.00633	-5
1.01000	-5
1.01367	-5
1.01733	-5
1.02100	-5
1.02467	-6
1.02833	-6
1.03200	-6
1.03567	-6
1.03933	-6
1.04300	-6
1.04667	-6
1.05033	-6
1.05400	-6
1.05767	-6
1.06133	-6
1.06500	-6
1.06867	-6
1.07233	-6
1.07600	-6
1.07967	-6
1.08333	-6
1.08700	-6
1.09067	-6
1.09433	-6
1.09800	-5
1.10167	-5
1.10533	-4
1.10900	-4
1.11267	-4
1.11633	-5
1.12000	-5
1.12367	-5
1.12733	-5
1.13100	-5
1.13467	-5
1.13833	-5
1.14200	-5
1.14567	-5
1.14933	-5
1.15300	-5
1.15667	-5
1.16033	-5
1.16400	-5
1.16767	-5
1.17133	-5
1.17500	-5
1.17867	-6
1.18233	-6
1.18600	-6
1.18967	-6
1.19333	-6
1.19700	-6
1.20067	-6
1.20433	-6
1.20800	-6
1.21167	-6
1.21533	-6
1.21900	-6
1.22267	-6
1.22633	-6
1.23000	-5
1.23367	-5
1.23733	-5
1.24100	-6
1.24467	-6
1.24833	-6
1.25200	-5
1.25567	-5
1.25933	-5
1.26300	-5
1.26667	-5
1.27033	-5
1.27400	-6
1.27767	-6
1.28133	-6
1.28500	-6
1.28867	-6
1.29233	-6
1.29600	-6
1.29967	-6
1.30333	-6
1.30700	-6
1.31067	-6
1.31433	-6
1.31800	-6
1.32167	-6
1.32533	-6
1.32900	-6
1.33267	-6
1.33633	-6
1.34000	-6
1.34367	-7
1.34733	-7
1.35100	-7
1.35467	-7
1.35833	-7
1.36200	-7
1.36567	-7
1.36933	-7
1.37300	-7
1.37667	-7
1.38033	-7
1.38400	-7
1.38767	-7
1.39133	-7
1.39500	-7
1.39867	-7
1.40233	-6
1.40600	-6
1.40967	-6
1.41333	-6
1.41700	-5
1.42067	-5
1.42433	-5
1.42800	-5
1.43167	-5
1.43533	-5
1.43900	-5
1.44267	-5
1.44633	-6
1.45000	-6
1.45367	-6
1.45733	-6
1.46100	-6
1.46467	-6
1.46833	-6
1.47200	-6
1.47567	-6
1.47933	-6
1.48300	-6
1.48667	-6
1.49033	-6
1.49400	-6
1.49767	-6
1.50133	-6
1.50500	-6
1.50867	-6
1.51233	-6
1.51600	-6
1.51967	-6
1.52333	-6
1.52700	-6
1.53067	-7
1.53433	-7
1.53800	-7
1.54167	-7
1.54533	-8
1.54900	-8
1.55267	-8
1.55633	-8
1.56000	-8
1.56367	-8
1.56733	-8
1.57100	-8
1.57467	-8
1.57833	-8
1.58200	-9
1.58567	-9
1.58933	-9
1.59300	-9
1.59667	-10
1.60033	-11
1.60400	-12
1.60767	-13
1.61133	-15
1.61500	-17
1.61867	-19
1.62233	-21
1.62600	-24
1.62967	-27
1.63333	-30
1.63700	-33
1.64067	-36
1.64433	-40
1.64800	-43
1.65167	-47
1.65533	-50
1.65900	-54
1.66267	-57
1.66633	-61
1.67000	-65
1.67367	-69
1.67733	-73
1.68100	-77
1.68467	-81
1.68833	-85
1.69200	-88
1.69567	-91
1.69933	-94
1.70300	-97
1.70667	-99
1.71033	-101
1.71400	-102
1.71767	-104
1.72133	-105
1.72500	-106
1.72867	-106
1.73233	-106
1.73600	-106
1.73967	-106
1.74333	-105
1.74700	-105
1.75067	-104
1.75433	-103
1.75800	-103
1.76167	-103
1.76533	-103
1.76900	-103
1.77267	-104
1.77633	-105
1.78000	-106
1.78367	-108
1.78733	-108
1.79100	-109
1.79467	-110
1.79833	-110
1.80200	-110
1.80567	-110
1.80933	-110
1.81300	-109
1.81667	-109
1.82033	-109
1.82400	-109
1.82767	-110
1.83133	-110
1.83500	-111
1.83867	-112
1.84233	-112
1.84600	-112
1.84967	-111
1.85333	-111
1.85700	-110
1.86067	-108
1.86433	-107
1.86800	-107
1.87167	-107
1.87533	-106
1.87900	-107
1.88267	-107
1.88633	-108
1.89000	-108
1.89367	-108
1.89733	-109
1.90100	-109
1.90467	-109
1.90833	-109
1.91200	-108
1.91567	-108
1.91933	-108
1.92300	-108
1.92667	-107
1.93033	-107
1.93400	-106
1.93767	-106
1.94133	-106
1.94500	-106
1.94867	-106
1.95233	-106
1.95600	-105
1.95967	-106
1.96333	-106
1.96700	-106
1.97067	-106
1.97433	-106
1.97800	-106
1.98167	-105
1.98533	-105
1.98900	-104
1.99267	-103
1.99633	-102
2.00000	-102
2.00367	-101
2.00733	-101
2.01100	-101
2.01467	-101
2.01833	-102
2.02200	-102
2.02567	-101
2.02933	-101
2.03300	-101
2.03667	-100
2.04033	-100
2.04400	-100
2.04767	-100
2.05133	-99
2.05500	-99
2.05867	-99
2.06233	-98
2.06600	-98
2.06967	-97
2.07333	-97
2.07700	-96
2.08067	-95
2.08433	-95
2.08800	-95
2.09167	-94
2.09533	-94
2.09900	-94
2.10267	-94
2.10633	-95
2.11000	-95
2.11367	-95
2.11733	-95
2.12100	-95
2.12467	-94
2.12833	-94
2.13200	-94
2.13567	-93
2.13933	-93
2.14300	-92
2.14667	-92
2.15033	-91
2.15400	-91
2.15767	-90
2.16133	-90
2.16500	-90
2.16867	-90
2.17233	-90
2.17600	-90
2.17967	-90
2.18333	-90
2.18700	-89
2.19067	-89
2.19433	-88
2.19800	-88
2.20167	-88
2.20533	-87
2.20900	-87
2.21267	-86
2.21633	-86
2.22000	-86
2.22367	-86
2.22733	-85
2.23100	-85
2.23467	-85
2.23833	-85
2.24200	-85
2.24567	-85
2.24933	-85
2.25300	-85
2.25667	-85
2.26033	-85
2.26400	-85
2.26767	-84
2.27133	-84
2.27500	-83
2.27867	-82
2.28233	-81
2.28600	-81
2.28967	-80
2.29333	-79
2.29700	-78
2.30067	-78
2.30433	-78
2.30800	-79
2.31167	-79
2.31533	-79
2.31900	-79
2.32267	-80
2.32633	-80
2.33000	-80
2.33367	-79
2.33733	-78
2.34100	-77
2.34467	-76
2.34833	-76
2.35200	-75
2.35567	-74
2.35933	-74
2.36300	-73
2.36667	-73
2.37033	-72
2.37400	-71
2.37767	-69
2.38133	-66
2.38500	-63
2.38867	-59
2.39233	-55
2.39600	-50
2.39967	-45
2.40333	-40
2.40700	-35
2.41067	-30
2.41433	-26
2.41800	-22
2.42167	-19
2.42533	-16
2.42900	-13
2.43267	-11
2.43633	-9
2.44000	-8
2.44367	-6
2.44733	-4
2.45100	-2
2.45467	-1
2.45833	1
2.46200	2
2.46567	3
2.46933	4
2.47300	5
2.47667	6
2.48033	7
2.48400	7
2.48767	8
2.49133	8
2.49500	9
2.49867	10
2.50233	10
2.50600	11
2.50967	11
2.51333	11
2.51700	11
2.52067	10
2.52433	9
2.52800	8
2.53167	7
2.53533	7
2.53900	6
2.54267	6
2.54633	6
2.55000	7
2.55367	8
2.55733	9
2.56100	10
2.56467	11
2.56833	12
2.57200	12
2.57567	13
2.57933	14
2.58300	14
2.58667	15
2.59033	15
2.59400	15
2.59767	16
2.60133	16
2.60500	16
2.60867	16
2.61233	16
2.61600	16
2.61967	16
2.62333	16
2.62700	16
2.63067	17
2.63433	17
2.63800	17
2.64167	17
2.64533	18
2.64900	18
2.65267	18
2.65633	18
2.66000	18
2.66367	19
2.66733	19
2.67100	19
2.67467	20
2.67833	20
2.68200	20
2.68567	19
2.68933	19
2.69300	19
2.69667	20
2.70033	20
2.70400	21
2.70767	21
2.71133	21
2.71500	21
2.71867	21
2.72233	21
2.72600	21
2.72967	22
2.73333	22
2.73700	22
2.74067	22
2.74433	22
2.74800	23
2.75167	23
2.75533	24
2.75900	24
2.76267	24
2.76633	25
2.77000	25
2.77367	26
2.77733	26
2.78100	26
2.78467	27
2.78833	26
2.79200	26
2.79567	25
2.79933	25
2.80300	24
2.80667	23
2.81033	22
2.81400	22
2.81767	22
2.82133	21
2.82500	21
2.82867	21
2.83233	21
2.83600	21
2.83967	21
2.84333	22
2.84700	22
2.85067	23
2.85433	23
2.85800	23
2.86167	23
2.86533	21
2.86900	17
2.87267	11
2.87633	2
2.88000	-11
2.88367	-29
2.88733	-51
2.89100	-79
2.89467	-111
2.89833	-149
2.90200	-192
2.90567	-239
2.90933	-290
2.91300	-344
2.91667	-402
2.92033	-461
2.92400	-522
2.92767	-583
2.93133	-644
2.93500	-705
2.93867	-764
2.94233	-820
2.94600	-873
2.94967	-924
2.95333	-978
2.95700	-1034
2.96067	-1081
2.96433	-1111
2.96800	-1117
2.97167	-1098
2.97533	-1056
2.97900	-996
2.98267	-924
2.98633	-846
2.99000	-764
2.99367	-684
2.99733	-607
3.00100	-535
3.00467	-468
3.00833	-408
3.01200	-353
3.01567	-304
3.01933	-262
3.02300	-224
3.02667	-191
3.03033	-162
3.03400	-137
3.03767	-116
3.04133	-98
3.04500	-82
3.04867	-69
3.05233	-57
3.05600	-47
3.05967	-39
3.06333	-32
3.06700	-26
3.07067	-21
3.07433	-16
3.07800	-12
3.08167	-9
3.08533	-6
3.08900	-4
3.09267	-2
3.09633	-0
3.10000	1
3.10367	3
3.10733	4
3.11100	6
3.11467	7
3.11833	8
3.12200	9
3.12567	9
3.12933	10
3.13300	11
3.13667	11
3.14033	12
3.14400	12
3.14767	13
3.15133	13
3.15500	14
3.15867	14
3.16233	15
3.16600	15
3.16967	15
3.17333	16
3.17700	16
3.18067	16
3.18433	17
3.18800	17
3.19167	17
3.19533	17
3.19900	17
3.20267	17
3.20633	17
3.21000	17
3.21367	17
3.21733	17
3.22100	17
3.22467	17
3.22833	17
3.23200	17
3.23567	17
3.23933	17
3.24300	17
3.24667	17
3.25033	17
3.25400	18
3.25767	18
3.26133	18
3.26500	18
3.26867	19
3.27233	19
3.27600	19
3.27967	19
3.28333	20
3.28700	20
3.29067	20
3.29433	21
3.29800	21
3.30167	21
3.30533	21
3.30900	21
3.31267	21
3.31633	21
3.32000	21
3.32367	21
3.32733	21
3.33100	21
3.33467	21
3.33833	22
3.34200	22
3.34567	22
3.34933	22
3.35300	22
3.35667	23
3.36033	23
3.36400	23
3.36767	23
3.37133	23
3.37500	23
3.37867	23
3.38233	23
3.38600	23
3.38967	23
3.39333	23
3.39700	23
3.40067	23
3.40433	23
3.40800	23
3.41167	23
3.41533	23
3.41900	23
3.42267	23
3.42633	23
3.43000	23
3.43367	23
3.43733	23
3.44100	22
3.44467	22
3.44833	22
3.45200	22
3.45567	22
3.45933	22
3.46300	22
3.46667	22
3.47033	22
3.47400	22
3.47767	22
3.48133	22
3.48500	22
3.48867	23
3.49233	23
3.49600	23
3.49967	24
3.50333	24
3.50700	24
3.51067	25
3.51433	25
3.51800	25
3.52167	26
3.52533	26
3.52900	26
3.53267	26
3.53633	26
3.54000	26
3.54367	26
3.54733	26
3.55100	26
3.55467	26
3.55833	26
3.56200	26
3.56567	26
3.56933	26
3.57300	26
3.57667	26
3.58033	26
3.58400	26
3.58767	25
3.59133	25
3.59500	25
3.59867	25
3.60233	25
3.60600	25
3.60967	26
3.61333	26
3.61700	25
3.62067	25
3.62433	25
3.62800	25
3.63167	25
3.63533	25
3.63900	25
3.64267	25
3.64633	24
3.65000	24
3.65367	24
3.65733	24
3.66100	24
3.66467	24
3.66833	24
3.67200	24
3.67567	24
3.67933	24
3.68300	24
3.68667	24
3.69033	24
3.69400	24
3.69767	24
3.70133	24
3.70500	24
3.70867	24
3.71233	24
3.71600	24
3.71967	24
3.72333	24
3.72700	24
3.73067	24
3.73433	24
3.73800	24
3.74167	24
3.74533	24
3.74900	24
3.75267	24
3.75633	24
3.76000	24
3.76367	23
3.76733	23
3.77100	23
3.77467	23
3.77833	23
3.78200	23
3.78567	23
3.78933	23
3.79300	23
3.79667	23
3.80033	23
3.80400	23
3.80767	23
3.81133	23
3.81500	23
3.81867	23
3.82233	23
3.82600	23
3.82967	23
3.83333	24
3.83700	24
3.84067	24
3.84433	23
3.84800	23
3.85167	23
3.85533	23
3.85900	23
3.86267	23
3.86633	23
3.87000	23
3.87367	24
3.87733	24
3.88100	24
3.88467	24
3.88833	25
3.89200	25
3.89567	25
3.89933	25
3.90300	25
3.90667	25
3.91033	25
3.91400	25
3.91767	25
3.92133	25
3.92500	25
3.92867	25
3.93233	25
3.93600	25
3.93967	25
3.94333	25
3.94700	25
3.95067	25
3.95433	25
3.95800	25
3.96167	25
3.96533	25
3.96900	25
3.97267	25
3.97633	25
3.98000	24
3.98367	24
3.98733	24
3.99100	24
3.99467	24
3.99833	24

[Chromatogram (Ch3)]
Interval(msec)	220
# of Points	1091
Start Time(min)	0.002
End Time(min)	3.998
R.Time (min)	Intensity
0.00167	0
0.00533	1
0.00900	2
0.01267	1
0.01633	0
0.02000	-0
0.02367	-1
0.02733	0
0.03100	2
0.03467	1
0.03833	3
0.04200	4
0.04567	2
0.04933	-1
0.05300	-3
0.05667	-3
0.06033	-1
0.06400	1
0.06767	0
0.07133	-2
0.07500	-1
0.07867	-1
0.08233	-0
0.08600	-0
0.08967	-1
0.09333	-0
0.09700	2
0.10067	2
0.10433	2
0.10800	3
0.11167	1
0.11533	-1
0.11900	-1
0.12267	-2
0.12633	-3
0.13000	-3
0.13367	0
0.13733	4
0.14100	7
0.14467	9
0.14833	9
0.15200	8
0.15567	6
0.15933	4
0.16300	2
0.16667	0
0.17033	-1
0.17400	-2
0.17767	-2
0.18133	-0
0.18500	2
0.18867	5
0.19233	5
0.19600	6
0.19967	6
0.20333	5
0.20700	4
0.21067	6
0.21433	6
0.21800	6
0.22167	6
0.22533	7
0.22900	7
0.23267	7
0.23633	9
0.24000	10
0.24367	10
0.24733	9
0.25100	8
0.25467	7
0.25833	8
0.26200	11
0.26567	13
0.26933	12
0.27300	11
0.27667	11
0.28033	12
0.28400	12
0.28767	12
0.29133	11
0.29500	12
0.29867	14
0.30233	14
0.30600	12
0.30967	11
0.31333	9
0.31700	8
0.32067	9
0.32433	10
0.32800	11
0.33167	12
0.33533	13
0.33900	15
0.34267	14
0.34633	12
0.35000	11
0.35367	10
0.35733	10
0.36100	9
0.36467	11
0.36833	11
0.37200	9
0.37567	8
0.37933	7
0.38300	8
0.38667	10
0.39033	11
0.39400	13
0.39767	14
0.40133	14
0.40500	13
0.40867	12
0.41233	12
0.41600	12
0.41967	12
0.42333	10
0.42700	9
0.43067	8
0.43433	7
0.43800	8
0.44167	9
0.44533	9
0.44900	10
0.45267	9
0.45633	10
0.46000	11
0.46367	11
0.46733	9
0.47100	7
0.47467	8
0.47833	10
0.48200	12
0.48567	13
0.48933	13
0.49300	13
0.49667	14
0.50033	13
0.50400	12
0.50767	11
0.51133	12
0.51500	14
0.51867	16
0.52233	16
0.52600	18
0.52967	18
0.53333	17
0.53700	16
0.54067	14
0.54433	12
0.54800	12
0.55167	12
0.55533	13
0.55900	13
0.56267	13
0.56633	13
0.57000	12
0.57367	14
0.57733	14
0.58100	13
0.58467	14
0.58833	16
0.59200	16
0.59567	17
0.59933	17
0.60300	18
0.60667	19
0.61033	19
0.61400	19
0.61767	18
0.62133	15
0.62500	15
0.62867	14
0.63233	13
0.63600	12
0.63967	12
0.64333	15
0.64700	17
0.65067	18
0.65433	18
0.65800	17
0.66167	17
0.66533	18
0.66900	19
0.67267	19
0.67633	18
0.68000	19
0.68367	19
0.68733	17
0.69100	17
0.69467	16
0.69833	15
0.70200	15
0.70567	14
0.70933	14
0.71300	16
0.71667	17
0.72033	18
0.72400	17
0.72767	18
0.73133	20
0.73500	20
0.73867	18
0.74233	19
0.74600	20
0.74967	22
0.75333	23
0.75700	22
0.76067	23
0.76433	22
0.76800	21
0.77167	20
0.77533	19
0.77900	16
0.78267	14
0.78633	14
0.79000	19
0.79367	20
0.79733	21
0.80100	23
0.80467	24
0.80833	23
0.81200	21
0.81567	22
0.81933	25
0.82300	27
0.82667	28
0.83033	28
0.83400	26
0.83767	23
0.84133	22
0.84500	20
0.84867	18
0.85233	17
0.85600	19
0.85967	19
0.86333	20
0.86700	20
0.87067	21
0.87433	23
0.87800	24
0.88167	24
0.88533	23
0.88900	23
0.89267	23
0.89633	23
0.90000	23
0.90367	24
0.90733	24
0.91100	22
0.91467	21
0.91833	22
0.92200	24
0.92567	24
0.92933	24
0.93300	26
0.93667	25
0.94033	24
0.94400	22
0.94767	24
0.95133	25
0.95500	24
0.95867	23
0.96233	24
0.96600	24
0.96967	23
0.97333	25
0.97700	27
0.98067	26
0.98433	25
0.98800	24
0.99167	23
0.99533	22
0.99900	22
1.00267	23
1.00633	25
1.01000	27
1.01367	26
1.01733	24
1.02100	23
1.02467	23
1.02833	24
1.03200	25
1.03567	25
1.03933	25
1.04300	25
1.04667	26
1.05033	26
1.05400	27
1.05767	25
1.06133	22
1.06500	21
1.06867	23
1.07233	24
1.07600	25
1.07967	26
1.08333	25
1.08700	27
1.09067	30
1.09433	30
1.09800	28
1.10167	27
1.10533	27
1.10900	26
1.11267	27
1.11633	26
1.12000	24
1.12367	22
1.12733	23
1.13100	24
1.13467	22
1.13833	21
1.14200	20
1.14567	20
1.14933	21
1.15300	22
1.15667	23
1.16033	23
1.16400	24
1.16767	26
1.17133	26
1.17500	26
1.17867	25
1.18233	24
1.18600	25
1.18967	27
1.19333	27
1.19700	26
1.20067	27
1.20433	29
1.20800	30
1.21167	29
1.21533	26
1.21900	27
1.22267	30
1.22633	32
1.23000	30
1.23367	28
1.23733	28
1.24100	29
1.24467	27
1.24833	25
1.25200	24
1.25567	25
1.25933	26
1.26300	26
1.26667	26
1.27033	26
1.27400	27
1.27767	29
1.28133	30
1.28500	28
1.28867	28
1.29233	27
1.29600	26
1.29967	23
1.30333	23
1.30700	26
1.31067	26
1.31433	26
1.31800	26
1.32167	26
1.32533	26
1.32900	26
1.33267	27
1.33633	29
1.34000	29
1.34367	28
1.34733	28
1.35100	28
1.35467	28
1.35833	27
1.36200	27
1.36567	27
1.36933	26
1.37300	27
1.37667	26
1.38033	24
1.38400	25
1.38767	26
1.39133	27
1.39500	29
1.39867	29
1.40233	27
1.40600	27
1.40967	27
1.41333	27
1.41700	27
1.42067	27
1.42433	28
1.42800	31
1.43167	33
1.43533	33
1.43900	31
1.44267	30
1.44633	28
1.45000	26
1.45367	27
1.45733	29
1.46100	29
1.46467	30
1.46833	31
1.47200	30
1.47567	29
1.47933	29
1.48300	29
1.48667	28
1.49033	28
1.49400	26
1.49767	26
1.50133	26
1.50500	25
1.50867	24
1.51233	22
1.51600	23
1.51967	24
1.52333	24
1.52700	28
1.53067	30
1.53433	31
1.53800	31
1.54167	33
1.54533	35
1.54900	34
1.55267	32
1.55633	30
1.56000	30
1.56367	32
1.56733	32
1.57100	32
1.57467	32
1.57833	32
1.58200	29
1.58567	28
1.58933	28
1.59300	29
1.59667	31
1.60033	30
1.60400	30
1.60767	30
1.61133	28
1.61500	28
1.61867	30
1.62233	31
1.62600	33
1.62967	33
1.63333	33
1.63700	34
1.64067	35
1.64433	36
1.64800	37
1.65167	36
1.65533	38
1.65900	39
1.66267	41
1.66633	41
1.67000	41
1.67367	40
1.67733	39
1.68100	38
1.68467	40
1.68833	41
1.69200	43
1.69567	44
1.69933	47
1.70300	47
1.70667	46
1.71033	46
1.71400	47
1.71767	48
1.72133	48
1.72500	47
1.72867	44
1.73233	42
1.73600	42
1.73967	44
1.74333	44
1.74700	43
1.75067	43
1.75433	43
1.75800	46
1.76167	48
1.76533	50
1.76900	49
1.77267	48
1.77633	47
1.78000	47
1.78367	48
1.78733	47
1.79100	46
1.79467	46
1.79833	46
1.80200	49
1.80567	50
1.80933	51
1.81300	51
1.81667	51
1.82033	51
1.82400	52
1.82767	54
1.83133	57
1.83500	58
1.83867	59
1.84233	61
1.84600	64
1.84967	66
1.85333	65
1.85700	63
1.86067	62
1.86433	61
1.86800	63
1.87167	63
1.87533	63
1.87900	63
1.88267	62
1.88633	62
1.89000	64
1.89367	68
1.89733	70
1.90100	70
1.90467	70
1.90833	70
1.91200	72
1.91567	73
1.91933	74
1.92300	74
1.92667	74
1.93033	74
1.93400	75
1.93767	77
1.94133	80
1.94500	82
1.94867	82
1.95233	83
1.95600	83
1.95967	85
1.96333	85
1.96700	88
1.97067	90
1.97433	89
1.97800	86
1.98167	84
1.98533	83
1.98900	82
1.99267	84
1.99633	85
2.00000	88
2.00367	90
2.00733	93
2.01100	94
2.01467	95
2.01833	97
2.02200	98
2.02567	99
2.02933	100
2.03300	100
2.03667	101
2.04033	103
2.04400	103
2.04767	101
2.05133	98
2.05500	99
2.05867	103
2.06233	104
2.06600	104
2.06967	104
2.07333	106
2.07700	107
2.08067	106
2.08433	104
2.08800	106
2.09167	109
2.09533	110
2.09900	111
2.10267	110
2.10633	112
2.11000	114
2.11367	116
2.11733	118
2.12100	119
2.12467	118
2.12833	117
2.13200	117
2.13567	119
2.13933	118
2.14300	117
2.14667	118
2.15033	120
2.15400	122
2.15767	122
2.16133	123
2.16500	123
2.16867	124
2.17233	124
2.17600	124
2.17967	123
2.18333	120
2.18700	119
2.19067	122
2.19433	124
2.19800	125
2.20167	126
2.20533	127
2.20900	129
2.21267	129
2.21633	130
2.22000	131
2.22367	131
2.22733	130
2.23100	131
2.23467	132
2.23833	134
2.24200	137
2.24567	138
2.24933	138
2.25300	138
2.25667	139
2.26033	139
2.26400	138
2.26767	136
2.27133	135
2.27500	134
2.27867	133
2.28233	133
2.28600	134
2.28967	137
2.29333	139
2.29700	141
2.30067	143
2.30433	144
2.30800	144
2.31167	144
2.31533	147
2.31900	149
2.32267	149
2.32633	147
2.33000	146
2.33367	147
2.33733	148
2.34100	150
2.34467	150
2.34833	148
2.35200	148
2.35567	146
2.35933	144
2.36300	145
2.36667	143
2.37033	142
2.37400	143
2.37767	144
2.38133	145
2.38500	146
2.38867	145
2.39233	144
2.39600	144
2.39967	144
2.40333	145
2.40700	148
2.41067	151
2.41433	153
2.41800	153
2.42167	154
2.42533	156
2.42900	157
2.43267	157
2.43633	157
2.44000	160
2.44367	201
2.44733	284
2.45100	363
2.45467	422
2.45833	449
2.46200	445
2.46567	427
2.46933	409
2.47300	394
2.47667	378
2.48033	358
2.48400	332
2.48767	304
2.49133	278
2.49500	254
2.49867	239
2.50233	229
2.50600	222
2.50967	223
2.51333	240
2.51700	281
2.52067	332
2.52433	382
2.52800	422
2.53167	454
2.53533	481
2.53900	507
2.54267	531
2.54633	556
2.55000	581
2.55367	608
2.55733	635
2.56100	662
2.56467	691
2.56833	717
2.57200	741
2.57567	763
2.57933	778
2.58300	788
2.58667	794
2.59033	796
2.59400	794
2.59767	787
2.60133	778
2.60500	765
2.60867	751
2.61233	737
2.61600	724
2.61967	712
2.62333	701
2.62700	688
2.63067	675
2.63433	663
2.63800	653
2.64167	644
2.64533	637
2.64900	633
2.65267	632
2.65633	633
2.66000	632
2.66367	631
2.66733	630
2.67100	629
2.67467	629
2.67833	631
2.68200	634
2.68567	634
2.68933	638
2.69300	644
2.69667	649
2.70033	652
2.70400	656
2.70767	660
2.71133	662
2.71500	665
2.71867	666
2.72233	670
2.72600	675
2.72967	678
2.73333	678
2.73700	678
2.74067	677
2.74433	673
2.74800	670
2.75167	666
2.75533	661
2.75900	656
2.76267	649
2.76633	643
2.77000	637
2.77367	632
2.77733	628
2.78100	623
2.78467	618
2.78833	614
2.79200	611
2.79567	608
2.79933	605
2.80300	601
2.80667	598
2.81033	597
2.81400	595
2.81767	593
2.82133	591
2.82500	590
2.82867	590
2.83233	594
2.83600	604
2.83967	629
2.84333	683
2.84700	785
2.85067	958
2.85433	1227
2.85800	1598
2.86167	2071
2.86533	2623
2.86900	3216
2.87267	3807
2.87633	4348
2.88000	4792
2.88367	5104
2.88733	5269
2.89100	5287
2.89467	5180
2.89833	4976
2.90200	4705
2.90567	4389
2.90933	4049
2.91300	3704
2.91667	3372
2.92033	3059
2.92400	2766
2.92767	2502
2.93133	2265
2.93500	2052
2.93867	1863
2.94233	1696
2.94600	1549
2.94967	1420
2.95333	1310
2.95700	1213
2.96067	1128
2.96433	1056
2.96800	996
2.97167	943
2.97533	899
2.97900	861
2.98267	826
2.98633	796
2.99000	770
2.99367	747
2.99733	725
3.00100	709
3.00467	694
3.00833	682
3.01200	673
3.01567	664
3.01933	657
3.02300	651
3.02667	646
3.03033	641
3.03400	638
3.03767	637
3.04133	635
3.04500	632
3.04867	630
3.05233	629
3.05600	626
3.05967	624
3.06333	622
3.06700	621
3.07067	622
3.07433	623
3.07800	624
3.08167	623
3.08533	620
3.08900	620
3.09267	620
3.09633	619
3.10000	617
3.10367	614
3.10733	612
3.11100	609
3.11467	608
3.11833	609
3.12200	609
3.12567	609
3.12933	607
3.13300	604
3.13667	603
3.14033	602
3.14400	602
3.14767	602
3.15133	601
3.15500	601
3.15867	599
3.16233	597
3.16600	596
3.16967	596
3.17333	598
3.17700	598
3.18067	595
3.18433	594
3.18800	594
3.19167	592
3.19533	591
3.19900	589
3.20267	587
3.20633	587
3.21000	588
3.21367	590
3.21733	590
3.22100	590
3.22467	589
3.22833	589
3.23200	588
3.23567	587
3.23933	586
3.24300	585
3.24667	585
3.25033	586
3.25400	588
3.25767	588
3.26133	585
3.26500	584
3.26867	583
3.27233	581
3.27600	578
3.27967	576
3.28333	573
3.28700	570
3.29067	569
3.29433	568
3.29800	568
3.30167	567
3.30533	566
3.30900	563
3.31267	559
3.31633	557
3.32000	555
3.32367	552
3.32733	550
3.33100	545
3.33467	543
3.33833	542
3.34200	542
3.34567	542
3.34933	540
3.35300	537
3.35667	533
3.36033	532
3.36400	532
3.36767	530
3.37133	527
3.37500	523
3.37867	522
3.38233	523
3.38600	522
3.38967	521
3.39333	520
3.39700	517
3.40067	516
3.40433	514
3.40800	510
3.41167	506
3.41533	506
3.41900	505
3.42267	501
3.42633	498
3.43000	495
3.43367	494
3.43733	494
3.44100	493
3.44467	491
3.44833	487
3.45200	487
3.45567	485
3.45933	482
3.46300	480
3.46667	480
3.47033	479
3.47400	477
3.47767	474
3.48133	470
3.48500	467
3.48867	467
3.49233	467
3.49600	466
3.49967	464
3.50333	463
3.50700	460
3.51067	458
3.51433	455
3.51800	454
3.52167	452
3.52533	448
3.52900	446
3.53267	445
3.53633	445
3.54000	447
3.54367	447
3.54733	444
3.55100	440
3.55467	436
3.55833	434
3.56200	432
3.56567	432
3.56933	433
3.57300	434
3.57667	436
3.58033	436
3.58400	433
3.58767	430
3.59133	427
3.59500	425
3.59867	425
3.60233	425
3.60600	423
3.60967	422
3.61333	420
3.61700	418
3.62067	417
3.62433	417
3.62800	416
3.63167	412
3.63533	409
3.63900	405
3.64267	404
3.64633	404
3.65000	405
3.65367	405
3.65733	405
3.66100	405
3.66467	406
3.66833	402
3.67200	396
3.67567	395
3.67933	394
3.68300	393
3.68667	393
3.69033	393
3.69400	391
3.69767	389
3.70133	387
3.70500	385
3.70867	381
3.71233	381
3.71600	381
3.71967	381
3.72333	381
3.72700	381
3.73067	380
3.73433	379
3.73800	379
3.74167	377
3.74533	376
3.74900	375
3.75267	372
3.75633	371
3.76000	371
3.76367	370
3.76733	367
3.77100	366
3.77467	364
3.77833	360
3.78200	359
3.78567	360
3.78933	360
3.79300	358
3.79667	355
3.80033	353
3.80400	351
3.80767	350
3.81133	350
3.81500	348
3.81867	346
3.82233	347
3.82600	348
3.82967	345
3.83333	340
3.83700	336
3.84067	335
3.84433	337
3.84800	338
3.85167	339
3.85533	338
3.85900	337
3.86267	334
3.86633	331
3.87000	329
3.87367	327
3.87733	324
3.88100	324
3.88467	323
3.88833	319
3.89200	316
3.89567	311
3.89933	309
3.90300	309
3.90667	309
3.91033	311
3.91400	310
3.91767	310
3.92133	308
3.92500	305
3.92867	304
3.93233	302
3.93600	302
3.93967	302
3.94333	304
3.94700	302
3.95067	299
3.95433	296
3.95800	296
3.96167	298
3.96533	297
3.96900	293
3.97267	291
3.97633	289
3.98000	290
3.98367	288
3.98733	286
3.99100	285
3.99467	282
3.99833	279

[Status Trace (Column Oven Temperature)]
Interval(msec)	1000
# of Points	240
Start Time(min)	0.013
End Time(min)	3.996
Intensity Units	
Intensity Multiplier	1
R.Time (min)	Intensity
0.01305	35.05
0.02972	35.06
0.04638	35.05
0.06305	35.06
0.07972	35.05
0.09638	35.04
0.11305	35.03
0.12972	35.04
0.14638	35.05
0.16305	35.04
0.17972	35.04
0.19638	35.04
0.21305	35.04
0.22972	35.03
0.24638	35.03
0.26305	35.04
0.27972	35.04
0.29638	35.03
0.31305	35.02
0.32972	35.02
0.34638	35.02
0.36305	35.02
0.37972	35.01
0.39638	35.00
0.41305	35.00
0.42972	35.00
0.44638	35.00
0.46305	35.01
0.47972	35.00
0.49638	35.01
0.51305	35.01
0.52972	35.00
0.54638	35.00
0.56305	35.00
0.57972	35.01
0.59638	35.02
0.61305	35.03
0.62972	35.03
0.64638	35.03
0.66305	35.03
0.67972	35.03
0.69638	35.03
0.71305	35.02
0.72972	35.02
0.74638	35.01
0.76305	35.00
0.77972	35.00
0.79638	35.00
0.81305	35.01
0.82972	35.01
0.84638	35.00
0.86305	35.00
0.87972	35.01
0.89638	35.02
0.91305	35.01
0.92972	35.01
0.94638	35.00
0.96305	34.99
0.97972	34.99
0.99638	34.99
1.01305	34.99
1.02972	35.00
1.04638	35.00
1.06305	35.00
1.07972	35.00
1.09638	35.00
1.11305	35.00
1.12972	34.99
1.14638	34.99
1.16305	34.98
1.17972	34.99
1.19638	34.99
1.21305	34.98
1.22972	34.98
1.24638	34.99
1.26305	34.99
1.27972	34.99
1.29638	34.99
1.31305	34.99
1.32972	34.99
1.34638	35.00
1.36305	35.01
1.37972	35.00
1.39638	35.00
1.41305	35.00
1.42972	34.99
1.44638	34.99
1.46305	34.99
1.47972	34.98
1.49638	34.98
1.51305	34.98
1.52972	34.98
1.54638	34.98
1.56305	34.99
1.57972	34.99
1.59638	35.02
1.61305	35.10
1.62972	35.25
1.64638	35.46
1.66305	35.73
1.67972	36.07
1.69638	36.42
1.71305	36.78
1.72972	37.12
1.74638	37.43
1.76305	37.74
1.77972	38.09
1.79638	38.43
1.81305	38.75
1.82972	39.09
1.84638	39.44
1.86305	39.74
1.87972	40.07
1.89638	40.40
1.91305	40.73
1.92972	41.05
1.94638	41.38
1.96305	41.69
1.97972	42.04
1.99638	42.33
2.01305	42.66
2.02972	42.99
2.04638	43.31
2.06305	43.64
2.07972	43.95
2.09638	44.28
2.11305	44.62
2.12972	44.95
2.14638	45.28
2.16305	45.61
2.17972	45.94
2.19638	46.26
2.21305	46.59
2.22972	46.92
2.24638	47.26
2.26305	47.60
2.27972	47.92
2.29638	48.24
2.31305	48.57
2.32972	48.90
2.34638	49.21
2.36305	49.52
2.37972	49.74
2.39638	49.79
2.41305	49.77
2.42972	49.78
2.44638	49.78
2.46305	49.78
2.47972	49.79
2.49638	49.80
2.51305	49.78
2.52972	49.81
2.54638	49.81
2.56305	49.81
2.57972	49.80
2.59638	49.81
2.61305	49.81
2.62972	49.82
2.64638	49.84
2.66305	49.84
2.67972	49.84
2.69638	49.84
2.71305	49.86
2.72972	49.87
2.74638	49.87
2.76305	49.86
2.77972	49.84
2.79638	49.86
2.81305	49.88
2.82972	49.90
2.84638	49.89
2.86305	49.89
2.87972	49.90
2.89638	49.90
2.91305	49.91
2.92972	49.91
2.94638	49.93
2.96305	49.94
2.97972	49.94
2.99638	49.95
3.01305	49.96
3.02972	49.96
3.04638	49.97
3.06305	49.98
3.07972	49.99
3.09638	50.01
3.11305	50.02
3.12972	50.02
3.14638	50.02
3.16305	50.02
3.17972	50.02
3.19638	50.03
3.21305	50.04
3.22972	50.05
3.24638	50.07
3.26305	50.08
3.27972	50.09
3.29638	50.08
3.31305	50.08
3.32972	50.09
3.34638	50.09
3.36305	50.08
3.37972	50.08
3.39638	50.09
3.41305	50.09
3.42972	50.10
3.44638	50.10
3.46305	50.11
3.47972	50.11
3.49638	50.10
3.51305	50.09
3.52972	50.08
3.54638	50.06
3.56305	50.06
3.57972	50.05
3.59638	50.04
3.61305	50.04
3.62972	50.05
3.64638	50.05
3.66305	50.06
3.67972	50.06
3.69638	50.05
3.71305	50.05
3.72972	50.05
3.74638	50.05
3.76305	50.05
3.77972	50.05
3.79638	50.06
3.81305	50.06
3.82972	50.07
3.84638	50.07
3.86305	50.07
3.87972	50.06
3.89638	50.06
3.91305	50.05
3.92972	50.05
3.94638	50.04
3.96305	50.05
3.97972	50.05
3.99638	50.05

[Status Trace (Injection Unit Temperature)]
Interval(msec)	1000
# of Points	240
Start Time(min)	0.013
End Time(min)	3.996
Intensity Units	
Intensity Multiplier	1
R.Time (min)	Intensity
0.01305	100.00
0.02972	100.00
0.04638	100.00
0.06305	100.00
0.07972	100.00
0.09638	100.00
0.11305	99.99
0.12972	99.99
0.14638	99.99
0.16305	99.99
0.17972	99.99
0.19638	99.98
0.21305	99.99
0.22972	99.98
0.24638	99.98
0.26305	99.98
0.27972	99.98
0.29638	99.98
0.31305	99.98
0.32972	99.98
0.34638	99.98
0.36305	99.98
0.37972	99.97
0.39638	99.98
0.41305	99.98
0.42972	99.98
0.44638	99.98
0.46305	99.97
0.47972	99.98
0.49638	99.98
0.51305	99.97
0.52972	99.97
0.54638	99.98
0.56305	99.98
0.57972	99.98
0.59638	99.98
0.61305	99.98
0.62972	99.98
0.64638	99.98
0.66305	99.98
0.67972	99.98
0.69638	99.98
0.71305	99.98
0.72972	99.98
0.74638	99.98
0.76305	99.98
0.77972	99.99
0.79638	99.98
0.81305	99.98
0.82972	99.98
0.84638	99.98
0.86305	99.98
0.87972	99.98
0.89638	99.98
0.91305	99.99
0.92972	99.99
0.94638	99.99
0.96305	99.99
0.97972	99.98
0.99638	99.99
1.01305	99.99
1.02972	99.99
1.04638	99.99
1.06305	99.99
1.07972	99.99
1.09638	99.99
1.11305	99.99
1.12972	99.99
1.14638	99.99
1.16305	99.99
1.17972	99.99
1.19638	99.99
1.21305	99.99
1.22972	99.99
1.24638	99.99
1.26305	99.98
1.27972	99.99
1.29638	99.98
1.31305	99.99
1.32972	99.99
1.34638	99.98
1.36305	99.99
1.37972	99.99
1.39638	99.99
1.41305	99.99
1.42972	99.99
1.44638	99.99
1.46305	99.99
1.47972	99.99
1.49638	99.99
1.51305	99.99
1.52972	99.99
1.54638	99.99
1.56305	99.99
1.57972	99.99
1.59638	99.99
1.61305	99.99
1.62972	99.99
1.64638	99.99
1.66305	99.99
1.67972	99.99
1.69638	99.99
1.71305	99.99
1.72972	99.99
1.74638	99.99
1.76305	99.99
1.77972	99.99
1.79638	99.99
1.81305	99.99
1.82972	99.98
1.84638	99.98
1.86305	99.99
1.87972	99.98
1.89638	99.98
1.91305	99.98
1.92972	99.98
1.94638	99.98
1.96305	99.98
1.97972	99.98
1.99638	99.98
2.01305	99.98
2.02972	99.98
2.04638	99.97
2.06305	99.97
2.07972	99.98
2.09638	99.98
2.11305	99.98
2.12972	99.97
2.14638	99.97
2.16305	99.97
2.17972	99.97
2.19638	99.97
2.21305	99.97
2.22972	99.97
2.24638	99.97
2.26305	99.97
2.27972	99.97
2.29638	99.97
2.31305	99.97
2.32972	99.97
2.34638	99.97
2.36305	99.96
2.37972	99.97
2.39638	99.97
2.41305	99.97
2.42972	99.96
2.44638	99.97
2.46305	99.97
2.47972	99.97
2.49638	99.97
2.51305	99.97
2.52972	99.97
2.54638	99.97
2.56305	99.97
2.57972	99.97
2.59638	99.98
2.61305	99.97
2.62972	99.97
2.64638	99.98
2.66305	99.98
2.67972	99.98
2.69638	99.98
2.71305	99.98
2.72972	99.98
2.74638	99.99
2.76305	99.98
2.77972	99.99
2.79638	99.99
2.81305	99.99
2.82972	100.00
2.84638	99.99
2.86305	99.99
2.87972	100.00
2.89638	100.00
2.91305	100.00
2.92972	100.00
2.94638	100.00
2.96305	100.01
2.97972	100.00
2.99638	100.01
3.01305	100.01
3.02972	100.01
3.04638	100.01
3.06305	100.01
3.07972	100.01
3.09638	100.01
3.11305	100.02
3.12972	100.02
3.14638	100.02
3.16305	100.02
3.17972	100.02
3.19638	100.02
3.21305	100.02
3.22972	100.03
3.24638	100.03
3.26305	100.03
3.27972	100.03
3.29638	100.03
3.31305	100.03
3.32972	100.03
3.34638	100.03
3.36305	100.03
3.37972	100.03
3.39638	100.03
3.41305	100.03
3.42972	100.03
3.44638	100.03
3.46305	100.03
3.47972	100.04
3.49638	100.03
3.51305	100.03
3.52972	100.04
3.54638	100.03
3.56305	100.04
3.57972	100.03
3.59638	100.04
3.61305	100.04
3.62972	100.04
3.64638	100.04
3.66305	100.04
3.67972	100.04
3.69638	100.04
3.71305	100.04
3.72972	100.04
3.74638	100.04
3.76305	100.04
3.77972	100.04
3.79638	100.05
3.81305	100.04
3.82972	100.04
3.84638	100.04
3.86305	100.04
3.87972	100.04
3.89638	100.04
3.91305	100.05
3.92972	100.05
3.94638	100.05
3.96305	100.05
3.97972	100.05
3.99638	100.05

[Status Trace (Carrier Gas Pressure)]
Interval(msec)	1000
# of Points	240
Start Time(min)	0.013
End Time(min)	3.996
Intensity Units	
Intensity Multiplier	1
R.Time (min)	Intensity
0.01305	57.82
0.02972	55.02
0.04638	57.86
0.06305	59.83
0.07972	58.73
0.09638	57.98
0.11305	58.00
0.12972	58.01
0.14638	58.01
0.16305	58.00
0.17972	58.00
0.19638	58.00
0.21305	58.00
0.22972	58.00
0.24638	58.00
0.26305	58.00
0.27972	58.00
0.29638	58.00
0.31305	58.00
0.32972	58.00
0.34638	58.00
0.36305	58.00
0.37972	58.00
0.39638	58.00
0.41305	58.00
0.42972	58.00
0.44638	58.00
0.46305	58.00
0.47972	58.00
0.49638	58.00
0.51305	58.00
0.52972	58.00
0.54638	58.00
0.56305	58.00
0.57972	58.00
0.59638	58.00
0.61305	58.00
0.62972	58.00
0.64638	58.00
0.66305	58.00
0.67972	58.00
0.69638	58.00
0.71305	58.00
0.72972	58.00
0.74638	58.00
0.76305	58.00
0.77972	58.00
0.79638	58.00
0.81305	58.00
0.82972	58.00
0.84638	58.00
0.86305	58.00
0.87972	58.00
0.89638	58.00
0.91305	58.00
0.92972	58.00
0.94638	58.00
0.96305	58.00
0.97972	58.00
0.99638	58.00
1.01305	58.00
1.02972	58.00
1.04638	58.00
1.06305	58.00
1.07972	58.00
1.09638	58.00
1.11305	58.00
1.12972	58.00
1.14638	58.00
1.16305	58.00
1.17972	58.00
1.19638	58.00
1.21305	58.00
1.22972	58.00
1.24638	58.00
1.26305	58.00
1.27972	58.00
1.29638	58.00
1.31305	58.00
1.32972	58.00
1.34638	58.00
1.36305	58.00
1.37972	58.00
1.39638	58.00
1.41305	58.00
1.42972	58.00
1.44638	58.00
1.46305	58.00
1.47972	58.00
1.49638	58.00
1.51305	58.00
1.52972	58.00
1.54638	58.00
1.56305	58.00
1.57972	58.00
1.59638	58.00
1.61305	58.00
1.62972	58.00
1.64638	58.00
1.66305	58.00
1.67972	58.01
1.69638	58.00
1.71305	58.00
1.72972	58.00
1.74638	58.00
1.76305	58.00
1.77972	58.00
1.79638	58.00
1.81305	58.00
1.82972	58.00
1.84638	58.00
1.86305	58.00
1.87972	58.00
1.89638	58.00
1.91305	58.00
1.92972	58.00
1.94638	58.00
1.96305	58.00
1.97972	58.00
1.99638	58.00
2.01305	58.00
2.02972	58.00
2.04638	58.00
2.06305	58.00
2.07972	58.00
2.09638	58.00
2.11305	58.00
2.12972	58.00
2.14638	58.00
2.16305	58.00
2.17972	58.00
2.19638	58.00
2.21305	58.00
2.22972	58.00
2.24638	58.00
2.26305	58.00
2.27972	58.00
2.29638	58.00
2.31305	58.00
2.32972	58.00
2.34638	58.00
2.36305	58.00
2.37972	58.00
2.39638	57.99
2.41305	57.99
2.42972	58.00
2.44638	58.00
2.46305	58.00
2.47972	58.00
2.49638	58.00
2.51305	57.99
2.52972	57.99
2.54638	58.00
2.56305	58.00
2.57972	58.00
2.59638	58.00
2.61305	58.00
2.62972	58.00
2.64638	58.00
2.66305	58.00
2.67972	58.00
2.69638	58.00
2.71305	58.00
2.72972	58.00
2.74638	58.00
2.76305	58.00
2.77972	58.00
2.79638	58.00
2.81305	58.00
2.82972	58.00
2.84638	58.00
2.86305	58.00
2.87972	58.00
2.89638	58.00
2.91305	58.00
2.92972	58.00
2.94638	58.00
2.96305	58.00
2.97972	58.00
2.99638	58.00
3.01305	58.00
3.02972	58.00
3.04638	58.00
3.06305	58.00
3.07972	58.00
3.09638	58.00
3.11305	58.00
3.12972	58.00
3.14638	58.00
3.16305	58.00
3.17972	58.00
3.19638	58.00
3.21305	58.00
3.22972	58.00
3.24638	58.00
3.26305	58.00
3.27972	58.00
3.29638	58.00
3.31305	58.00
3.32972	58.00
3.34638	58.00
3.36305	58.00
3.37972	58.00
3.39638	58.00
3.41305	58.00
3.42972	58.00
3.44638	58.00
3.46305	58.00
3.47972	58.00
3.49638	58.00
3.51305	58.00
3.52972	58.00
3.54638	58.00
3.56305	58.00
3.57972	58.00
3.59638	58.00
3.61305	58.00
3.62972	58.00
3.64638	58.00
3.66305	58.00
3.67972	58.00
3.69638	58.00
3.71305	58.00
3.72972	58.00
3.74638	58.00
3.76305	58.00
3.77972	58.00
3.79638	58.00
3.81305	58.00
3.82972	58.00
3.84638	58.00
3.86305	58.00
3.87972	58.00
3.89638	58.00
3.91305	58.00
3.92972	58.00
3.94638	58.00
3.96305	58.00
3.97972	58.00
3.99638	58.00

[Status Trace (Carrier Gas Flow)]
Interval(msec)	1000
# of Points	240
Start Time(min)	0.013
End Time(min)	3.996
Intensity Units	
Intensity Multiplier	1
R.Time (min)	Intensity
0.01305	34.58
0.02972	34.54
0.04638	34.55
0.06305	34.52
0.07972	34.50
0.09638	34.52
0.11305	34.52
0.12972	34.51
0.14638	34.52
0.16305	34.52
0.17972	34.52
0.19638	34.52
0.21305	34.52
0.22972	34.52
0.24638	34.52
0.26305	34.52
0.27972	34.52
0.29638	34.52
0.31305	34.52
0.32972	34.52
0.34638	34.52
0.36305	34.52
0.37972	34.51
0.39638	34.52
0.41305	34.52
0.42972	34.52
0.44638	34.51
0.46305	34.51
0.47972	34.53
0.49638	34.53
0.51305	34.52
0.52972	34.52
0.54638	34.52
0.56305	34.52
0.57972	34.52
0.59638	34.52
0.61305	34.52
0.62972	34.51
0.64638	34.52
0.66305	34.52
0.67972	34.52
0.69638	34.52
0.71305	34.52
0.72972	34.52
0.74638	34.52
0.76305	34.52
0.77972	34.52
0.79638	34.52
0.81305	34.52
0.82972	34.53
0.84638	34.52
0.86305	34.52
0.87972	34.52
0.89638	34.52
0.91305	34.52
0.92972	34.51
0.94638	34.53
0.96305	34.52
0.97972	34.51
0.99638	34.51
1.01305	34.52
1.02972	34.52
1.04638	34.52
1.06305	34.52
1.07972	34.52
1.09638	34.52
1.11305	34.52
1.12972	34.52
1.14638	34.52
1.16305	34.51
1.17972	34.52
1.19638	34.52
1.21305	34.52
1.22972	34.52
1.24638	34.52
1.26305	34.52
1.27972	34.52
1.29638	34.52
1.31305	34.52
1.32972	34.52
1.34638	34.51
1.36305	34.52
1.37972	34.52
1.39638	34.52
1.41305	34.52
1.42972	34.52
1.44638	34.52
1.46305	34.52
1.47972	34.52
1.49638	34.52
1.51305	34.52
1.52972	34.52
1.54638	34.52
1.56305	34.52
1.57972	34.52
1.59638	34.52
1.61305	34.52
1.62972	34.52
1.64638	34.51
1.66305	34.52
1.67972	34.52
1.69638	34.52
1.71305	34.52
1.72972	34.51
1.74638	34.52
1.76305	34.52
1.77972	34.52
1.79638	34.52
1.81305	34.51
1.82972	34.52
1.84638	34.52
1.86305	34.52
1.87972	34.51
1.89638	34.52
1.91305	34.52
1.92972	34.52
1.94638	34.52
1.96305	34.51
1.97972	34.52
1.99638	34.52
2.01305	34.53
2.02972	34.53
2.04638	34.52
2.06305	34.51
2.07972	34.52
2.09638	34.52
2.11305	34.52
2.12972	34.52
2.14638	34.52
2.16305	34.52
2.17972	34.52
2.19638	34.53
2.21305	34.52
2.22972	34.52
2.24638	34.52
2.26305	34.52
2.27972	34.52
2.29638	34.52
2.31305	34.52
2.32972	34.52
2.34638	34.52
2.36305	34.52
2.37972	34.52
2.39638	34.52
2.41305	34.52
2.42972	34.53
2.44638	34.52
2.46305	34.52
2.47972	34.52
2.49638	34.51
2.51305	34.52
2.52972	34.52
2.54638	34.52
2.56305	34.52
2.57972	34.52
2.59638	34.52
2.61305	34.52
2.62972	34.52
2.64638	34.52
2.66305	34.51
2.67972	34.52
2.69638	34.52
2.71305	34.52
2.72972	34.52
2.74638	34.52
2.76305	34.52
2.77972	34.52
2.79638	34.51
2.81305	34.52
2.82972	34.52
2.84638	34.52
2.86305	34.52
2.87972	34.52
2.89638	34.51
2.91305	34.52
2.92972	34.52
2.94638	34.52
2.96305	34.52
2.97972	34.52
2.99638	34.52
3.01305	34.52
3.02972	34.51
3.04638	34.52
3.06305	34.52
3.07972	34.52
3.09638	34.51
3.11305	34.52
3.12972	34.52
3.14638	34.52
3.16305	34.52
3.17972	34.52
3.19638	34.52
3.21305	34.52
3.22972	34.52
3.24638	34.52
3.26305	34.52
3.27972	34.52
3.29638	34.52
3.31305	34.52
3.32972	34.52
3.34638	34.52
3.36305	34.52
3.37972	34.52
3.39638	34.52
3.41305	34.52
3.42972	34.52
3.44638	34.52
3.46305	34.52
3.47972	34.52
3.49638	34.52
3.51305	34.52
3.52972	34.52
3.54638	34.52
3.56305	34.52
3.57972	34.52
3.59638	34.52
3.61305	34.52
3.62972	34.52
3.64638	34.52
3.66305	34.52
3.67972	34.52
3.69638	34.52
3.71305	34.52
3.72972	34.52
3.74638	34.51
3.76305	34.51
3.77972	34.52
3.79638	34.52
3.81305	34.51
3.82972	34.52
3.84638	34.52
3.86305	34.52
3.87972	34.52
3.89638	34.52
3.91305	34.52
3.92972	34.52
3.94638	34.52
3.96305	34.52
3.97972	34.52
3.99638	34.52

[Status Trace (Column Flow)]
Interval(msec)	1000
# of Points	240
Start Time(min)	0.013
End Time(min)	3.996
Intensity Units	
Intensity Multiplier	1
R.Time (min)	Intensity
0.01305	5.51
0.02972	5.19
0.04638	5.51
0.06305	5.75
0.07972	5.62
0.09638	5.53
0.11305	5.53
0.12972	5.53
0.14638	5.53
0.16305	5.53
0.17972	5.53
0.19638	5.53
0.21305	5.53
0.22972	5.53
0.24638	5.53
0.26305	5.53
0.27972	5.53
0.29638	5.53
0.31305	5.53
0.32972	5.53
0.34638	5.53
0.36305	5.53
0.37972	5.53
0.39638	5.53
0.41305	5.53
0.42972	5.53
0.44638	5.53
0.46305	5.53
0.47972	5.53
0.49638	5.53
0.51305	5.53
0.52972	5.53
0.54638	5.53
0.56305	5.53
0.57972	5.53
0.59638	5.53
0.61305	5.53
0.62972	5.53
0.64638	5.53
0.66305	5.53
0.67972	5.53
0.69638	5.53
0.71305	5.53
0.72972	5.53
0.74638	5.53
0.76305	5.53
0.77972	5.53
0.79638	5.53
0.81305	5.53
0.82972	5.53
0.84638	5.53
0.86305	5.53
0.87972	5.53
0.89638	5.53
0.91305	5.53
0.92972	5.53
0.94638	5.53
0.96305	5.53
0.97972	5.53
0.99638	5.53
1.01305	5.53
1.02972	5.53
1.04638	5.53
1.06305	5.53
1.07972	5.53
1.09638	5.53
1.11305	5.53
1.12972	5.53
1.14638	5.53
1.16305	5.53
1.17972	5.53
1.19638	5.53
1.21305	5.53
1.22972	5.53
1.24638	5.53
1.26305	5.53
1.27972	5.53
1.29638	5.53
1.31305	5.53
1.32972	5.53
1.34638	5.53
1.36305	5.53
1.37972	5.53
1.39638	5.53
1.41305	5.53
1.42972	5.53
1.44638	5.53
1.46305	5.53
1.47972	5.53
1.49638	5.53
1.51305	5.53
1.52972	5.53
1.54638	5.53
1.56305	5.53
1.57972	5.53
1.59638	5.53
1.61305	5.53
1.62972	5.52
1.64638	5.52
1.66305	5.51
1.67972	5.50
1.69638	5.49
1.71305	5.48
1.72972	5.47
1.74638	5.46
1.76305	5.45
1.77972	5.44
1.79638	5.43
1.81305	5.42
1.82972	5.41
1.84638	5.39
1.86305	5.39
1.87972	5.38
1.89638	5.37
1.91305	5.36
1.92972	5.35
1.94638	5.34
1.96305	5.33
1.97972	5.32
1.99638	5.31
2.01305	5.30
2.02972	5.29
2.04638	5.28
2.06305	5.27
2.07972	5.26
2.09638	5.25
2.11305	5.24
2.12972	5.23
2.14638	5.22
2.16305	5.21
2.17972	5.20
2.19638	5.19
2.21305	5.18
2.22972	5.17
2.24638	5.17
2.26305	5.16
2.27972	5.15
2.29638	5.14
2.31305	5.13
2.32972	5.12
2.34638	5.11
2.36305	5.10
2.37972	5.09
2.39638	5.09
2.41305	5.09
2.42972	5.09
2.44638	5.09
2.46305	5.09
2.47972	5.09
2.49638	5.09
2.51305	5.09
2.52972	5.09
2.54638	5.09
2.56305	5.09
2.57972	5.09
2.59638	5.09
2.61305	5.09
2.62972	5.09
2.64638	5.09
2.66305	5.09
2.67972	5.09
2.69638	5.09
2.71305	5.09
2.72972	5.09
2.74638	5.09
2.76305	5.09
2.77972	5.09
2.79638	5.09
2.81305	5.09
2.82972	5.09
2.84638	5.09
2.86305	5.09
2.87972	5.09
2.89638	5.09
2.91305	5.09
2.92972	5.09
2.94638	5.09
2.96305	5.09
2.97972	5.09
2.99638	5.09
3.01305	5.09
3.02972	5.09
3.04638	5.09
3.06305	5.09
3.07972	5.09
3.09638	5.09
3.11305	5.09
3.12972	5.09
3.14638	5.09
3.16305	5.09
3.17972	5.09
3.19638	5.09
3.21305	5.09
3.22972	5.09
3.24638	5.09
3.26305	5.09
3.27972	5.09
3.29638	5.09
3.31305	5.09
3.32972	5.09
3.34638	5.09
3.36305	5.09
3.37972	5.09
3.39638	5.09
3.41305	5.09
3.42972	5.09
3.44638	5.09
3.46305	5.08
3.47972	5.08
3.49638	5.08
3.51305	5.09
3.52972	5.09
3.54638	5.09
3.56305	5.09
3.57972	5.09
3.59638	5.09
3.61305	5.09
3.62972	5.09
3.64638	5.09
3.66305	5.09
3.67972	5.09
3.69638	5.09
3.71305	5.09
3.72972	5.09
3.74638	5.09
3.76305	5.09
3.77972	5.09
3.79638	5.09
3.81305	5.09
3.82972	5.09
3.84638	5.09
3.86305	5.09
3.87972	5.09
3.89638	5.09
3.91305	5.09
3.92972	5.09
3.94638	5.09
3.96305	5.09
3.97972	5.09
3.99638	5.09

[Status Trace (Linear Velocity)]
Interval(msec)	1000
# of Points	240
Start Time(min)	0.013
End Time(min)	3.996
Intensity Units	
Intensity Multiplier	1
R.Time (min)	Intensity
0.01305	38.90
0.02972	37.06
0.04638	38.92
0.06305	40.21
0.07972	39.49
0.09638	39.00
0.11305	39.01
0.12972	39.02
0.14638	39.02
0.16305	39.02
0.17972	39.02
0.19638	39.02
0.21305	39.02
0.22972	39.02
0.24638	39.02
0.26305	39.02
0.27972	39.02
0.29638	39.02
0.31305	39.02
0.32972	39.02
0.34638	39.02
0.36305	39.02
0.37972	39.02
0.39638	39.02
0.41305	39.02
0.42972	39.02
0.44638	39.02
0.46305	39.02
0.47972	39.02
0.49638	39.02
0.51305	39.02
0.52972	39.02
0.54638	39.02
0.56305	39.02
0.57972	39.02
0.59638	39.02
0.61305	39.02
0.62972	39.02
0.64638	39.02
0.66305	39.02
0.67972	39.02
0.69638	39.02
0.71305	39.02
0.72972	39.02
0.74638	39.02
0.76305	39.02
0.77972	39.02
0.79638	39.02
0.81305	39.02
0.82972	39.02
0.84638	39.02
0.86305	39.02
0.87972	39.02
0.89638	39.02
0.91305	39.02
0.92972	39.02
0.94638	39.02
0.96305	39.02
0.97972	39.02
0.99638	39.02
1.01305	39.02
1.02972	39.02
1.04638	39.02
1.06305	39.02
1.07972	39.02
1.09638	39.02
1.11305	39.02
1.12972	39.02
1.14638	39.02
1.16305	39.02
1.17972	39.02
1.19638	39.02
1.21305	39.02
1.22972	39.02
1.24638	39.02
1.26305	39.02
1.27972	39.02
1.29638	39.02
1.31305	39.02
1.32972	39.02
1.34638	39.02
1.36305	39.02
1.37972	39.02
1.39638	39.02
1.41305	39.02
1.42972	39.02
1.44638	39.02
1.46305	39.02
1.47972	39.02
1.49638	39.02
1.51305	39.02
1.52972	39.02
1.54638	39.02
1.56305	39.02
1.57972	39.02
1.59638	39.02
1.61305	39.01
1.62972	39.00
1.64638	38.98
1.66305	38.95
1.67972	38.92
1.69638	38.88
1.71305	38.85
1.72972	38.82
1.74638	38.79
1.76305	38.76
1.77972	38.73
1.79638	38.69
1.81305	38.66
1.82972	38.63
1.84638	38.60
1.86305	38.57
1.87972	38.54
1.89638	38.51
1.91305	38.48
1.92972	38.45
1.94638	38.42
1.96305	38.39
1.97972	38.35
1.99638	38.33
2.01305	38.30
2.02972	38.27
2.04638	38.24
2.06305	38.21
2.07972	38.18
2.09638	38.15
2.11305	38.12
2.12972	38.09
2.14638	38.06
2.16305	38.03
2.17972	38.00
2.19638	37.97
2.21305	37.94
2.22972	37.91
2.24638	37.88
2.26305	37.85
2.27972	37.82
2.29638	37.79
2.31305	37.76
2.32972	37.73
2.34638	37.70
2.36305	37.68
2.37972	37.66
2.39638	37.65
2.41305	37.65
2.42972	37.65
2.44638	37.65
2.46305	37.65
2.47972	37.65
2.49638	37.65
2.51305	37.65
2.52972	37.65
2.54638	37.65
2.56305	37.65
2.57972	37.65
2.59638	37.65
2.61305	37.65
2.62972	37.65
2.64638	37.65
2.66305	37.65
2.67972	37.65
2.69638	37.65
2.71305	37.65
2.72972	37.65
2.74638	37.65
2.76305	37.65
2.77972	37.65
2.79638	37.65
2.81305	37.65
2.82972	37.64
2.84638	37.64
2.86305	37.64
2.87972	37.64
2.89638	37.64
2.91305	37.64
2.92972	37.64
2.94638	37.64
2.96305	37.64
2.97972	37.64
2.99638	37.64
3.01305	37.64
3.02972	37.64
3.04638	37.64
3.06305	37.64
3.07972	37.64
3.09638	37.63
3.11305	37.63
3.12972	37.63
3.14638	37.63
3.16305	37.63
3.17972	37.63
3.19638	37.63
3.21305	37.63
3.22972	37.63
3.24638	37.63
3.26305	37.63
3.27972	37.63
3.29638	37.63
3.31305	37.63
3.32972	37.63
3.34638	37.63
3.36305	37.63
3.37972	37.63
3.39638	37.63
3.41305	37.63
3.42972	37.63
3.44638	37.63
3.46305	37.63
3.47972	37.62
3.49638	37.63
3.51305	37.63
3.52972	37.63
3.54638	37.63
3.56305	37.63
3.57972	37.63
3.59638	37.63
3.61305	37.63
3.62972	37.63
3.64638	37.63
3.66305	37.63
3.67972	37.63
3.69638	37.63
3.71305	37.63
3.72972	37.63
3.74638	37.63
3.76305	37.63
3.77972	37.63
3.79638	37.63
3.81305	37.63
3.82972	37.63
3.84638	37.63
3.86305	37.63
3.87972	37.63
3.89638	37.63
3.91305	37.63
3.92972	37.63
3.94638	37.63
3.96305	37.63
3.97972	37.63
3.99638	37.63

