[Header]
Application Name	LabSolutions
Version	5.110
Data File Name	C:\Users\User\Desktop\Junior\UIC Prairie Sampling\5.18.23\05182023_077.gcd
Output Date	6/5/2023
Output Time	2:17:30 PM

[File Information]
Type	Data File
Generated	5/24/2023 9:01:06 PM
Generated by	System Administrator
Modified	5/24/2023 9:08:39 PM
Modified by	System Administrator

[Sample Information]
Operator Name	System Administrator
Acquired	5/24/2023 9:04:39 PM
Sample Type	0:Unknown
Level	0
Sample Name	077
Sample ID	077
ISTD Amount1	1
ISTD Amount2	1
ISTD Amount3	1
ISTD Amount4	1
ISTD Amount5	1
ISTD Amount6	1
ISTD Amount7	1
ISTD Amount8	1
ISTD Amount9	1
ISTD Amount10	1
ISTD Amount11	1
ISTD Amount12	1
ISTD Amount13	1
ISTD Amount14	1
ISTD Amount15	1
ISTD Amount16	1
ISTD Amount17	1
ISTD Amount18	1
ISTD Amount19	1
ISTD Amount20	1
ISTD Amount21	1
ISTD Amount22	1
ISTD Amount23	1
ISTD Amount24	1
ISTD Amount25	1
ISTD Amount26	1
ISTD Amount27	1
ISTD Amount28	1
ISTD Amount29	1
ISTD Amount30	1
ISTD Amount31	1
ISTD Amount32	1
Sample Amount	1
Dilution Factor	1
Vial#	76
Injection Volume	1
Injection Count	1
Bar Code	

[Original Files]
Data File	C:\Users\User\Desktop\Junior\UIC Prairie Sampling\5.18.23\05182023_077.gcd
Method File	C:\LabSolutions\Data\GHG_4min_2022\ghg3_togas_w_acet_4 min_new_int.gcm
Batch File	C:\LabSolutions\Data\AutoSamplerTesting\05182023.gcb
Report Format File	c:\LabSolutions\System\DEFAULT.lsr

[File Description]


[Configuration]
Instrument Name	C0B7VH3-Instrument1
Instrument #	1
Line #	1
# of Detectors	3
Detector ID	DET#1	DET#2	DET#3
Detector Name	FID	PTCD	ECD
# of Channels	1	1	1

[Peak Table(Ch1)]
# of Peaks	3
Peak#	R.Time	I.Time	F.Time	Area	Height	A/H	Conc.	Mark	ID#	Name	k'	Plate #	Plate Ht.	Tailing	Resolution	Sep.Factor	Area Ratio	Height Ratio	Conc. %	Norm Conc.
1	1.472	1.435	1.527	3772	1849	2.040	0.000	   	1	CO	0.000	9399	15.959	1.218	0.000	0.000	0	0	0.000	0.000
2	1.564	1.527	1.630	4339	2210	1.963	21.153	 V 	2	CH4	0.062	11576	12.958	1.176	1.542	0.000	0	0	4.506	4.506
3	1.989	1.945	2.506	2325970	1115310	2.085	448.257	   	3	CO2	0.351	17370	8.636	1.308	7.179	5.640	0	0	95.494	95.494

[Peak Table(Ch2)]
# of Peaks	0

[Peak Table(Ch3)]
# of Peaks	4
Peak#	R.Time	I.Time	F.Time	Area	Height	A/H	Conc.	Mark	ID#	Name	k'	Plate #	Plate Ht.	Tailing	Resolution	Sep.Factor	Area Ratio	Height Ratio	Conc. %	Norm Conc.
1	2.499	2.440	2.535	2641	583	4.529	0.000	   			0.000	1707	87.891	0.000	0.000	0.000	0	0	0.000	0.000
2	2.565	2.535	2.675	3471	532	6.525	0.000	 V 			0.026	303	495.842	0.000	0.159	0.000	0	0	0.000	0.000
3	2.722	2.675	2.825	2431	315	7.727	0.000	 V 			0.090	107	1404.414	0.000	0.192	3.389	0	0	0.000	0.000
4	2.891	2.825	3.203	19351	4800	4.031	0.286	 V 	1	N2O	0.157	13088	11.461	1.482	0.292	1.754	0	0	100.000	100.000

[Compound Results(Ch1)]
# of IDs	6
ID#	Name	R.Time	Area	Height	Conc.	Curve	3rd	2nd	1st	Constant	Area Ratio	Height Ratio	Conc. %	Norm Conc.
1	CO	1.472	3772	1849	0.000	Linear	0.000000e+00	0.000000e+00	0.000000e+00	0.000000e+00	0	0	0.000	0.000
2	CH4	1.564	4339	2210	21.153	Linear	0.000000e+00	0.000000e+00	2.051179e+002	0.000000e+00	0	0	4.506	4.506
3	CO2	1.989	2325970	1115310	448.257	Linear	0.000000e+00	0.000000e+00	5.188919e+003	0.000000e+00	0	0	95.494	95.494
4	Ethylene	0.000	0	0	0.000	Linear	0.000000e+00	0.000000e+00	0.000000e+00	0.000000e+00	0	0	0.000	0.000
5	Acetylene	0.000	0	0	0.000	Linear	0.000000e+00	0.000000e+00	0.000000e+00	0.000000e+00	0	0	0.000	0.000
6	Ethane	0.000	0	0	0.000	Linear	0.000000e+00	0.000000e+00	0.000000e+00	0.000000e+00	0	0	0.000	0.000

[Compound Results(Ch2)]
# of IDs	5
ID#	Name	R.Time	Area	Height	Conc.	Curve	3rd	2nd	1st	Constant	Area Ratio	Height Ratio	Conc. %	Norm Conc.
1	Hydrogen	0.000	0	0	0.000	Linear	0.000000e+00	0.000000e+00	0.000000e+00	0.000000e+00	0	0	0.000	0.000
2	Oxygen	0.000	0	0	0.000	Linear	0.000000e+00	0.000000e+00	0.000000e+00	0.000000e+00	0	0	0.000	0.000
3	Nitrogen	0.000	0	0	0.000	Linear	0.000000e+00	0.000000e+00	0.000000e+00	0.000000e+00	0	0	0.000	0.000
4	Methane	0.000	0	0	0.000	Linear	0.000000e+00	0.000000e+00	0.000000e+00	0.000000e+00	0	0	0.000	0.000
5	Carbon Monoxide	0.000	0	0	0.000	Linear	0.000000e+00	0.000000e+00	0.000000e+00	0.000000e+00	0	0	0.000	0.000

[Compound Results(Ch3)]
# of IDs	2
ID#	Name	R.Time	Area	Height	Conc.	Curve	3rd	2nd	1st	Constant	Area Ratio	Height Ratio	Conc. %	Norm Conc.
1	N2O	2.891	19351	4800	0.286	Linear	0.000000e+00	0.000000e+00	6.759880e+004	0.000000e+00	0	0	100.000	100.000
2	SF6	0.000	0	0	0.000	Linear	0.000000e+00	0.000000e+00	0.000000e+00	0.000000e+00	0	0	0.000	0.000

[Group Results(Ch1)]
# of Groups	0

[Group Results(Ch2)]
# of Groups	0

[Group Results(Ch3)]
# of Groups	0

[Chromatogram (Ch1)]
Interval(msec)	220
# of Points	1091
Start Time(min)	0.002
End Time(min)	3.998
R.Time (min)	Intensity
0.00167	29
0.00533	29
0.00900	29
0.01267	29
0.01633	28
0.02000	24
0.02367	20
0.02733	17
0.03100	14
0.03467	11
0.03833	10
0.04200	10
0.04567	5
0.04933	-0
0.05300	-1
0.05667	-1
0.06033	-0
0.06400	-0
0.06767	-2
0.07133	-2
0.07500	-1
0.07867	2
0.08233	7
0.08600	14
0.08967	20
0.09333	20
0.09700	17
0.10067	14
0.10433	10
0.10800	6
0.11167	1
0.11533	2
0.11900	4
0.12267	11
0.12633	21
0.13000	30
0.13367	38
0.13733	45
0.14100	50
0.14467	53
0.14833	47
0.15200	33
0.15567	14
0.15933	2
0.16300	-2
0.16667	0
0.17033	7
0.17400	13
0.17767	19
0.18133	24
0.18500	29
0.18867	32
0.19233	34
0.19600	31
0.19967	25
0.20333	22
0.20700	23
0.21067	23
0.21433	20
0.21800	13
0.22167	12
0.22533	19
0.22900	25
0.23267	26
0.23633	26
0.24000	26
0.24367	25
0.24733	22
0.25100	16
0.25467	11
0.25833	5
0.26200	3
0.26567	1
0.26933	-3
0.27300	-4
0.27667	-2
0.28033	2
0.28400	9
0.28767	16
0.29133	21
0.29500	25
0.29867	28
0.30233	33
0.30600	40
0.30967	43
0.31333	41
0.31700	33
0.32067	22
0.32433	13
0.32800	9
0.33167	5
0.33533	6
0.33900	11
0.34267	19
0.34633	25
0.35000	28
0.35367	27
0.35733	22
0.36100	15
0.36467	12
0.36833	11
0.37200	12
0.37567	10
0.37933	8
0.38300	5
0.38667	2
0.39033	-0
0.39400	1
0.39767	8
0.40133	14
0.40500	16
0.40867	10
0.41233	2
0.41600	-5
0.41967	-8
0.42333	-9
0.42700	-5
0.43067	-1
0.43433	3
0.43800	9
0.44167	13
0.44533	15
0.44900	19
0.45267	21
0.45633	19
0.46000	16
0.46367	17
0.46733	21
0.47100	27
0.47467	28
0.47833	23
0.48200	20
0.48567	23
0.48933	23
0.49300	21
0.49667	19
0.50033	19
0.50400	20
0.50767	18
0.51133	15
0.51500	15
0.51867	14
0.52233	10
0.52600	3
0.52967	-4
0.53333	-7
0.53700	-7
0.54067	-5
0.54433	-4
0.54800	-5
0.55167	-8
0.55533	-10
0.55900	-6
0.56267	0
0.56633	6
0.57000	9
0.57367	13
0.57733	18
0.58100	21
0.58467	20
0.58833	16
0.59200	7
0.59567	2
0.59933	4
0.60300	9
0.60667	16
0.61033	18
0.61400	16
0.61767	11
0.62133	7
0.62500	6
0.62867	6
0.63233	7
0.63600	8
0.63967	10
0.64333	13
0.64700	18
0.65067	25
0.65433	28
0.65800	28
0.66167	25
0.66533	16
0.66900	3
0.67267	-4
0.67633	-7
0.68000	-8
0.68367	-4
0.68733	1
0.69100	2
0.69467	1
0.69833	-3
0.70200	-10
0.70567	-15
0.70933	-21
0.71300	-24
0.71667	-21
0.72033	-12
0.72400	-0
0.72767	7
0.73133	9
0.73500	9
0.73867	8
0.74233	11
0.74600	14
0.74967	16
0.75333	13
0.75700	9
0.76067	8
0.76433	12
0.76800	19
0.77167	23
0.77533	23
0.77900	22
0.78267	22
0.78633	22
0.79000	20
0.79367	18
0.79733	16
0.80100	17
0.80467	21
0.80833	19
0.81200	14
0.81567	7
0.81933	-1
0.82300	-9
0.82667	-13
0.83033	-11
0.83400	-7
0.83767	-7
0.84133	-11
0.84500	-11
0.84867	-10
0.85233	-11
0.85600	-9
0.85967	-7
0.86333	-4
0.86700	-4
0.87067	-4
0.87433	0
0.87800	10
0.88167	15
0.88533	12
0.88900	3
0.89267	-5
0.89633	-7
0.90000	-4
0.90367	-2
0.90733	-2
0.91100	-7
0.91467	-16
0.91833	-26
0.92200	-29
0.92567	-28
0.92933	-24
0.93300	-19
0.93667	-13
0.94033	-9
0.94400	-7
0.94767	-6
0.95133	-8
0.95500	-13
0.95867	-15
0.96233	-14
0.96600	-15
0.96967	-14
0.97333	-10
0.97700	-1
0.98067	6
0.98433	10
0.98800	10
0.99167	9
0.99533	8
0.99900	12
1.00267	16
1.00633	17
1.01000	15
1.01367	12
1.01733	8
1.02100	5
1.02467	0
1.02833	-6
1.03200	-11
1.03567	-10
1.03933	-10
1.04300	-10
1.04667	-6
1.05033	-0
1.05400	4
1.05767	6
1.06133	9
1.06500	13
1.06867	16
1.07233	20
1.07600	26
1.07967	30
1.08333	35
1.08700	40
1.09067	41
1.09433	36
1.09800	25
1.10167	9
1.10533	-6
1.10900	-19
1.11267	-32
1.11633	-45
1.12000	-58
1.12367	-66
1.12733	-65
1.13100	-57
1.13467	-46
1.13833	-37
1.14200	-33
1.14567	-28
1.14933	-25
1.15300	-26
1.15667	-30
1.16033	-35
1.16400	-39
1.16767	-39
1.17133	-37
1.17500	-31
1.17867	-24
1.18233	-16
1.18600	-10
1.18967	-7
1.19333	-5
1.19700	-3
1.20067	3
1.20433	6
1.20800	5
1.21167	1
1.21533	-4
1.21900	-10
1.22267	-18
1.22633	-22
1.23000	-23
1.23367	-24
1.23733	-24
1.24100	-22
1.24467	-17
1.24833	-13
1.25200	-9
1.25567	-4
1.25933	-2
1.26300	-5
1.26667	-12
1.27033	-16
1.27400	-21
1.27767	-23
1.28133	-25
1.28500	-23
1.28867	-17
1.29233	-10
1.29600	-6
1.29967	-3
1.30333	-3
1.30700	-8
1.31067	-11
1.31433	-10
1.31800	-7
1.32167	-6
1.32533	-7
1.32900	-5
1.33267	-1
1.33633	7
1.34000	12
1.34367	12
1.34733	7
1.35100	-1
1.35467	-8
1.35833	-12
1.36200	-11
1.36567	-9
1.36933	-12
1.37300	-13
1.37667	-15
1.38033	-14
1.38400	-14
1.38767	-18
1.39133	-24
1.39500	-24
1.39867	-21
1.40233	-17
1.40600	-18
1.40967	-17
1.41333	-17
1.41700	-17
1.42067	-18
1.42433	-19
1.42800	-22
1.43167	-22
1.43533	-9
1.43900	24
1.44267	59
1.44633	116
1.45000	280
1.45367	575
1.45733	927
1.46100	1258
1.46467	1533
1.46833	1734
1.47200	1836
1.47567	1806
1.47933	1645
1.48300	1388
1.48667	1093
1.49033	817
1.49400	591
1.49767	417
1.50133	287
1.50500	193
1.50867	121
1.51233	69
1.51600	32
1.51967	7
1.52333	-8
1.52700	-15
1.53067	-15
1.53433	16
1.53800	136
1.54167	402
1.54533	799
1.54900	1238
1.55267	1632
1.55633	1940
1.56000	2133
1.56367	2186
1.56733	2074
1.57100	1810
1.57467	1461
1.57833	1098
1.58200	780
1.58567	533
1.58933	350
1.59300	222
1.59667	136
1.60033	81
1.60400	47
1.60767	24
1.61133	7
1.61500	-5
1.61867	-15
1.62233	-23
1.62600	-28
1.62967	-32
1.63333	-37
1.63700	-45
1.64067	-52
1.64433	-59
1.64800	-63
1.65167	-61
1.65533	-61
1.65900	-60
1.66267	-57
1.66633	-55
1.67000	-48
1.67367	-43
1.67733	-41
1.68100	-42
1.68467	-43
1.68833	-42
1.69200	-36
1.69567	-29
1.69933	-24
1.70300	-23
1.70667	-24
1.71033	-25
1.71400	-30
1.71767	-39
1.72133	-45
1.72500	-44
1.72867	-38
1.73233	-31
1.73600	-27
1.73967	-29
1.74333	-29
1.74700	-26
1.75067	-23
1.75433	-26
1.75800	-31
1.76167	-34
1.76533	-37
1.76900	-42
1.77267	-45
1.77633	-43
1.78000	-42
1.78367	-43
1.78733	-43
1.79100	-39
1.79467	-33
1.79833	-32
1.80200	-37
1.80567	-43
1.80933	-47
1.81300	-51
1.81667	-53
1.82033	-53
1.82400	-49
1.82767	-43
1.83133	-39
1.83500	-41
1.83867	-45
1.84233	-48
1.84600	-48
1.84967	-49
1.85333	-47
1.85700	-43
1.86067	-39
1.86433	-36
1.86800	-34
1.87167	-35
1.87533	-34
1.87900	-32
1.88267	-30
1.88633	-29
1.89000	-29
1.89367	-31
1.89733	-35
1.90100	-40
1.90467	-43
1.90833	-42
1.91200	-40
1.91567	-37
1.91933	-31
1.92300	-24
1.92667	-19
1.93033	-13
1.93400	-10
1.93767	-9
1.94133	-10
1.94500	4
1.94867	135
1.95233	990
1.95600	5203
1.95967	20672
1.96333	63887
1.96700	156557
1.97067	310376
1.97433	512355
1.97800	728435
1.98167	919746
1.98533	1055038
1.98900	1115348
1.99267	1095212
1.99633	1003214
2.00000	860710
2.00367	695762
2.00733	534331
2.01100	393921
2.01467	281931
2.01833	198058
2.02200	137971
2.02567	96196
2.02933	67691
2.03300	48430
2.03667	35446
2.04033	26656
2.04400	20644
2.04767	16460
2.05133	13487
2.05500	11324
2.05867	9711
2.06233	8473
2.06600	7493
2.06967	6703
2.07333	6058
2.07700	5525
2.08067	5075
2.08433	4690
2.08800	4357
2.09167	4066
2.09533	3812
2.09900	3587
2.10267	3383
2.10633	3196
2.11000	3023
2.11367	2865
2.11733	2724
2.12100	2599
2.12467	2485
2.12833	2382
2.13200	2286
2.13567	2193
2.13933	2103
2.14300	2018
2.14667	1940
2.15033	1870
2.15400	1807
2.15767	1744
2.16133	1685
2.16500	1628
2.16867	1573
2.17233	1522
2.17600	1476
2.17967	1435
2.18333	1400
2.18700	1368
2.19067	1332
2.19433	1295
2.19800	1260
2.20167	1228
2.20533	1200
2.20900	1167
2.21267	1131
2.21633	1098
2.22000	1072
2.22367	1053
2.22733	1034
2.23100	1013
2.23467	990
2.23833	967
2.24200	948
2.24567	933
2.24933	917
2.25300	898
2.25667	881
2.26033	866
2.26400	848
2.26767	831
2.27133	821
2.27500	813
2.27867	799
2.28233	778
2.28600	755
2.28967	734
2.29333	717
2.29700	704
2.30067	696
2.30433	690
2.30800	684
2.31167	677
2.31533	669
2.31900	661
2.32267	655
2.32633	651
2.33000	648
2.33367	644
2.33733	640
2.34100	629
2.34467	614
2.34833	598
2.35200	583
2.35567	571
2.35933	564
2.36300	561
2.36667	561
2.37033	559
2.37400	557
2.37767	553
2.38133	552
2.38500	550
2.38867	545
2.39233	540
2.39600	534
2.39967	529
2.40333	525
2.40700	520
2.41067	514
2.41433	509
2.41800	505
2.42167	501
2.42533	496
2.42900	492
2.43267	490
2.43633	490
2.44000	491
2.44367	492
2.44733	494
2.45100	494
2.45467	491
2.45833	485
2.46200	481
2.46567	480
2.46933	475
2.47300	467
2.47667	459
2.48033	453
2.48400	450
2.48767	447
2.49133	445
2.49500	443
2.49867	443
2.50233	439
2.50600	434
2.50967	426
2.51333	418
2.51700	412
2.52067	413
2.52433	421
2.52800	431
2.53167	440
2.53533	448
2.53900	454
2.54267	457
2.54633	456
2.55000	451
2.55367	440
2.55733	424
2.56100	408
2.56467	396
2.56833	393
2.57200	397
2.57567	400
2.57933	401
2.58300	401
2.58667	398
2.59033	394
2.59400	387
2.59767	378
2.60133	372
2.60500	371
2.60867	374
2.61233	378
2.61600	383
2.61967	387
2.62333	387
2.62700	383
2.63067	383
2.63433	389
2.63800	399
2.64167	408
2.64533	415
2.64900	417
2.65267	414
2.65633	410
2.66000	409
2.66367	408
2.66733	402
2.67100	396
2.67467	396
2.67833	401
2.68200	410
2.68567	415
2.68933	418
2.69300	421
2.69667	416
2.70033	406
2.70400	393
2.70767	383
2.71133	379
2.71500	381
2.71867	383
2.72233	384
2.72600	387
2.72967	391
2.73333	398
2.73700	403
2.74067	405
2.74433	404
2.74800	403
2.75167	400
2.75533	396
2.75900	393
2.76267	393
2.76633	397
2.77000	406
2.77367	412
2.77733	410
2.78100	403
2.78467	396
2.78833	393
2.79200	393
2.79567	395
2.79933	396
2.80300	396
2.80667	399
2.81033	402
2.81400	405
2.81767	408
2.82133	411
2.82500	413
2.82867	414
2.83233	413
2.83600	414
2.83967	415
2.84333	417
2.84700	419
2.85067	415
2.85433	408
2.85800	402
2.86167	403
2.86533	408
2.86900	418
2.87267	428
2.87633	435
2.88000	437
2.88367	436
2.88733	433
2.89100	428
2.89467	423
2.89833	417
2.90200	414
2.90567	415
2.90933	418
2.91300	421
2.91667	427
2.92033	438
2.92400	447
2.92767	449
2.93133	445
2.93500	441
2.93867	439
2.94233	436
2.94600	430
2.94967	419
2.95333	412
2.95700	411
2.96067	414
2.96433	420
2.96800	425
2.97167	429
2.97533	432
2.97900	434
2.98267	437
2.98633	444
2.99000	450
2.99367	456
2.99733	460
3.00100	463
3.00467	464
3.00833	461
3.01200	459
3.01567	455
3.01933	450
3.02300	444
3.02667	438
3.03033	435
3.03400	437
3.03767	443
3.04133	450
3.04500	454
3.04867	458
3.05233	459
3.05600	452
3.05967	446
3.06333	442
3.06700	437
3.07067	434
3.07433	439
3.07800	447
3.08167	455
3.08533	458
3.08900	455
3.09267	449
3.09633	444
3.10000	440
3.10367	440
3.10733	441
3.11100	439
3.11467	439
3.11833	440
3.12200	441
3.12567	442
3.12933	444
3.13300	444
3.13667	443
3.14033	449
3.14400	461
3.14767	470
3.15133	470
3.15500	462
3.15867	452
3.16233	441
3.16600	432
3.16967	426
3.17333	423
3.17700	421
3.18067	423
3.18433	430
3.18800	436
3.19167	439
3.19533	445
3.19900	456
3.20267	466
3.20633	474
3.21000	472
3.21367	463
3.21733	455
3.22100	451
3.22467	450
3.22833	448
3.23200	447
3.23567	447
3.23933	449
3.24300	451
3.24667	452
3.25033	452
3.25400	453
3.25767	452
3.26133	448
3.26500	442
3.26867	437
3.27233	432
3.27600	431
3.27967	434
3.28333	437
3.28700	441
3.29067	448
3.29433	453
3.29800	455
3.30167	457
3.30533	457
3.30900	454
3.31267	449
3.31633	446
3.32000	446
3.32367	448
3.32733	448
3.33100	452
3.33467	463
3.33833	474
3.34200	478
3.34567	471
3.34933	457
3.35300	442
3.35667	430
3.36033	423
3.36400	420
3.36767	423
3.37133	427
3.37500	429
3.37867	428
3.38233	427
3.38600	425
3.38967	423
3.39333	420
3.39700	418
3.40067	417
3.40433	417
3.40800	418
3.41167	419
3.41533	421
3.41900	419
3.42267	413
3.42633	410
3.43000	409
3.43367	411
3.43733	414
3.44100	420
3.44467	426
3.44833	430
3.45200	432
3.45567	432
3.45933	431
3.46300	425
3.46667	418
3.47033	416
3.47400	419
3.47767	422
3.48133	425
3.48500	427
3.48867	433
3.49233	439
3.49600	442
3.49967	447
3.50333	447
3.50700	443
3.51067	436
3.51433	429
3.51800	422
3.52167	420
3.52533	420
3.52900	419
3.53267	418
3.53633	419
3.54000	420
3.54367	419
3.54733	421
3.55100	421
3.55467	419
3.55833	415
3.56200	411
3.56567	407
3.56933	401
3.57300	398
3.57667	398
3.58033	403
3.58400	407
3.58767	411
3.59133	411
3.59500	407
3.59867	403
3.60233	402
3.60600	403
3.60967	407
3.61333	410
3.61700	410
3.62067	409
3.62433	408
3.62800	410
3.63167	413
3.63533	414
3.63900	410
3.64267	410
3.64633	414
3.65000	417
3.65367	418
3.65733	416
3.66100	410
3.66467	401
3.66833	395
3.67200	389
3.67567	388
3.67933	390
3.68300	393
3.68667	396
3.69033	397
3.69400	396
3.69767	393
3.70133	392
3.70500	386
3.70867	377
3.71233	370
3.71600	367
3.71967	370
3.72333	379
3.72700	389
3.73067	397
3.73433	400
3.73800	398
3.74167	393
3.74533	390
3.74900	389
3.75267	391
3.75633	392
3.76000	391
3.76367	389
3.76733	385
3.77100	380
3.77467	377
3.77833	372
3.78200	371
3.78567	377
3.78933	384
3.79300	384
3.79667	382
3.80033	378
3.80400	375
3.80767	376
3.81133	380
3.81500	384
3.81867	393
3.82233	404
3.82600	406
3.82967	403
3.83333	394
3.83700	388
3.84067	384
3.84433	383
3.84800	385
3.85167	389
3.85533	390
3.85900	388
3.86267	382
3.86633	372
3.87000	363
3.87367	358
3.87733	354
3.88100	349
3.88467	344
3.88833	342
3.89200	341
3.89567	339
3.89933	339
3.90300	341
3.90667	345
3.91033	348
3.91400	349
3.91767	350
3.92133	350
3.92500	350
3.92867	348
3.93233	347
3.93600	348
3.93967	351
3.94333	356
3.94700	359
3.95067	358
3.95433	359
3.95800	365
3.96167	368
3.96533	367
3.96900	365
3.97267	363
3.97633	363
3.98000	363
3.98367	359
3.98733	351
3.99100	345
3.99467	342
3.99833	341

[Chromatogram (Ch2)]
Interval(msec)	220
# of Points	1091
Start Time(min)	0.002
End Time(min)	3.998
R.Time (min)	Intensity
0.00167	0
0.00533	0
0.00900	0
0.01267	0
0.01633	-0
0.02000	-0
0.02367	-1
0.02733	-1
0.03100	-1
0.03467	-1
0.03833	-1
0.04200	-1
0.04567	-2
0.04933	-2
0.05300	-2
0.05667	-2
0.06033	-2
0.06400	-2
0.06767	-2
0.07133	-2
0.07500	-2
0.07867	-3
0.08233	-3
0.08600	-3
0.08967	-3
0.09333	-3
0.09700	-3
0.10067	-3
0.10433	-4
0.10800	-4
0.11167	-4
0.11533	-4
0.11900	-4
0.12267	-4
0.12633	-4
0.13000	-5
0.13367	-5
0.13733	-5
0.14100	-5
0.14467	-5
0.14833	-5
0.15200	-5
0.15567	-5
0.15933	-5
0.16300	-4
0.16667	-4
0.17033	-4
0.17400	-4
0.17767	-4
0.18133	-5
0.18500	-5
0.18867	-5
0.19233	-5
0.19600	-5
0.19967	-5
0.20333	-5
0.20700	-5
0.21067	-5
0.21433	-5
0.21800	-5
0.22167	-4
0.22533	-4
0.22900	-4
0.23267	-4
0.23633	-4
0.24000	-3
0.24367	-3
0.24733	-3
0.25100	-4
0.25467	-4
0.25833	-4
0.26200	-4
0.26567	-5
0.26933	-5
0.27300	-5
0.27667	-5
0.28033	-5
0.28400	-5
0.28767	-4
0.29133	-4
0.29500	-4
0.29867	-3
0.30233	-3
0.30600	-3
0.30967	-3
0.31333	-3
0.31700	-3
0.32067	-3
0.32433	-3
0.32800	-4
0.33167	-4
0.33533	-5
0.33900	-5
0.34267	-5
0.34633	-6
0.35000	-6
0.35367	-6
0.35733	-7
0.36100	-7
0.36467	-7
0.36833	-7
0.37200	-6
0.37567	-6
0.37933	-6
0.38300	-5
0.38667	-5
0.39033	-5
0.39400	-4
0.39767	-4
0.40133	-4
0.40500	-3
0.40867	-3
0.41233	-3
0.41600	-3
0.41967	-3
0.42333	-3
0.42700	-3
0.43067	-3
0.43433	-3
0.43800	-3
0.44167	-2
0.44533	-2
0.44900	-2
0.45267	-2
0.45633	-3
0.46000	-3
0.46367	-3
0.46733	-3
0.47100	-3
0.47467	-4
0.47833	-4
0.48200	-4
0.48567	-5
0.48933	-5
0.49300	-5
0.49667	-6
0.50033	-6
0.50400	-6
0.50767	-6
0.51133	-6
0.51500	-6
0.51867	-6
0.52233	-6
0.52600	-6
0.52967	-6
0.53333	-6
0.53700	-7
0.54067	-7
0.54433	-6
0.54800	-6
0.55167	-6
0.55533	-6
0.55900	-5
0.56267	-5
0.56633	-5
0.57000	-6
0.57367	-5
0.57733	-5
0.58100	-5
0.58467	-5
0.58833	-5
0.59200	-5
0.59567	-5
0.59933	-6
0.60300	-6
0.60667	-6
0.61033	-6
0.61400	-6
0.61767	-6
0.62133	-6
0.62500	-5
0.62867	-5
0.63233	-5
0.63600	-5
0.63967	-5
0.64333	-5
0.64700	-5
0.65067	-5
0.65433	-5
0.65800	-5
0.66167	-5
0.66533	-5
0.66900	-6
0.67267	-6
0.67633	-6
0.68000	-6
0.68367	-6
0.68733	-6
0.69100	-6
0.69467	-6
0.69833	-6
0.70200	-6
0.70567	-6
0.70933	-6
0.71300	-6
0.71667	-6
0.72033	-6
0.72400	-6
0.72767	-6
0.73133	-6
0.73500	-6
0.73867	-6
0.74233	-6
0.74600	-6
0.74967	-6
0.75333	-5
0.75700	-5
0.76067	-5
0.76433	-5
0.76800	-5
0.77167	-5
0.77533	-5
0.77900	-5
0.78267	-5
0.78633	-5
0.79000	-5
0.79367	-5
0.79733	-5
0.80100	-5
0.80467	-5
0.80833	-5
0.81200	-5
0.81567	-6
0.81933	-6
0.82300	-6
0.82667	-6
0.83033	-6
0.83400	-6
0.83767	-6
0.84133	-6
0.84500	-6
0.84867	-5
0.85233	-5
0.85600	-5
0.85967	-5
0.86333	-5
0.86700	-5
0.87067	-6
0.87433	-6
0.87800	-6
0.88167	-6
0.88533	-6
0.88900	-7
0.89267	-7
0.89633	-7
0.90000	-8
0.90367	-8
0.90733	-8
0.91100	-8
0.91467	-8
0.91833	-8
0.92200	-8
0.92567	-8
0.92933	-8
0.93300	-8
0.93667	-8
0.94033	-8
0.94400	-8
0.94767	-8
0.95133	-8
0.95500	-8
0.95867	-8
0.96233	-8
0.96600	-8
0.96967	-7
0.97333	-7
0.97700	-7
0.98067	-7
0.98433	-7
0.98800	-7
0.99167	-7
0.99533	-7
0.99900	-7
1.00267	-7
1.00633	-7
1.01000	-6
1.01367	-6
1.01733	-6
1.02100	-6
1.02467	-6
1.02833	-6
1.03200	-5
1.03567	-5
1.03933	-5
1.04300	-5
1.04667	-5
1.05033	-6
1.05400	-6
1.05767	-6
1.06133	-6
1.06500	-7
1.06867	-7
1.07233	-7
1.07600	-7
1.07967	-7
1.08333	-7
1.08700	-7
1.09067	-8
1.09433	-8
1.09800	-8
1.10167	-8
1.10533	-8
1.10900	-8
1.11267	-8
1.11633	-8
1.12000	-8
1.12367	-7
1.12733	-7
1.13100	-7
1.13467	-6
1.13833	-6
1.14200	-6
1.14567	-7
1.14933	-7
1.15300	-7
1.15667	-7
1.16033	-7
1.16400	-7
1.16767	-7
1.17133	-7
1.17500	-7
1.17867	-7
1.18233	-7
1.18600	-7
1.18967	-7
1.19333	-7
1.19700	-7
1.20067	-7
1.20433	-7
1.20800	-7
1.21167	-7
1.21533	-8
1.21900	-8
1.22267	-8
1.22633	-8
1.23000	-8
1.23367	-8
1.23733	-8
1.24100	-8
1.24467	-8
1.24833	-7
1.25200	-7
1.25567	-7
1.25933	-7
1.26300	-7
1.26667	-7
1.27033	-7
1.27400	-7
1.27767	-6
1.28133	-6
1.28500	-6
1.28867	-6
1.29233	-6
1.29600	-7
1.29967	-7
1.30333	-7
1.30700	-7
1.31067	-7
1.31433	-7
1.31800	-7
1.32167	-7
1.32533	-7
1.32900	-7
1.33267	-7
1.33633	-7
1.34000	-7
1.34367	-7
1.34733	-6
1.35100	-6
1.35467	-6
1.35833	-6
1.36200	-5
1.36567	-5
1.36933	-5
1.37300	-5
1.37667	-6
1.38033	-6
1.38400	-6
1.38767	-6
1.39133	-6
1.39500	-6
1.39867	-5
1.40233	-5
1.40600	-5
1.40967	-5
1.41333	-6
1.41700	-6
1.42067	-6
1.42433	-6
1.42800	-6
1.43167	-6
1.43533	-6
1.43900	-6
1.44267	-6
1.44633	-6
1.45000	-6
1.45367	-5
1.45733	-5
1.46100	-5
1.46467	-5
1.46833	-4
1.47200	-4
1.47567	-5
1.47933	-5
1.48300	-4
1.48667	-5
1.49033	-5
1.49400	-5
1.49767	-6
1.50133	-6
1.50500	-6
1.50867	-6
1.51233	-7
1.51600	-7
1.51967	-7
1.52333	-7
1.52700	-7
1.53067	-7
1.53433	-7
1.53800	-7
1.54167	-6
1.54533	-6
1.54900	-6
1.55267	-6
1.55633	-6
1.56000	-6
1.56367	-6
1.56733	-6
1.57100	-6
1.57467	-6
1.57833	-6
1.58200	-7
1.58567	-7
1.58933	-7
1.59300	-8
1.59667	-9
1.60033	-10
1.60400	-11
1.60767	-12
1.61133	-14
1.61500	-16
1.61867	-19
1.62233	-21
1.62600	-24
1.62967	-27
1.63333	-30
1.63700	-33
1.64067	-36
1.64433	-40
1.64800	-44
1.65167	-47
1.65533	-51
1.65900	-54
1.66267	-58
1.66633	-62
1.67000	-66
1.67367	-70
1.67733	-74
1.68100	-78
1.68467	-82
1.68833	-86
1.69200	-89
1.69567	-92
1.69933	-95
1.70300	-97
1.70667	-98
1.71033	-99
1.71400	-101
1.71767	-102
1.72133	-102
1.72500	-103
1.72867	-103
1.73233	-104
1.73600	-104
1.73967	-105
1.74333	-105
1.74700	-106
1.75067	-107
1.75433	-107
1.75800	-108
1.76167	-108
1.76533	-108
1.76900	-108
1.77267	-108
1.77633	-108
1.78000	-108
1.78367	-108
1.78733	-108
1.79100	-109
1.79467	-109
1.79833	-110
1.80200	-110
1.80567	-110
1.80933	-110
1.81300	-110
1.81667	-110
1.82033	-110
1.82400	-110
1.82767	-111
1.83133	-111
1.83500	-112
1.83867	-112
1.84233	-112
1.84600	-111
1.84967	-111
1.85333	-111
1.85700	-111
1.86067	-111
1.86433	-110
1.86800	-110
1.87167	-110
1.87533	-109
1.87900	-109
1.88267	-109
1.88633	-109
1.89000	-108
1.89367	-108
1.89733	-108
1.90100	-108
1.90467	-108
1.90833	-108
1.91200	-108
1.91567	-108
1.91933	-108
1.92300	-108
1.92667	-108
1.93033	-108
1.93400	-108
1.93767	-107
1.94133	-107
1.94500	-107
1.94867	-107
1.95233	-106
1.95600	-106
1.95967	-105
1.96333	-105
1.96700	-105
1.97067	-105
1.97433	-105
1.97800	-105
1.98167	-104
1.98533	-104
1.98900	-103
1.99267	-103
1.99633	-103
2.00000	-103
2.00367	-103
2.00733	-103
2.01100	-103
2.01467	-103
2.01833	-103
2.02200	-102
2.02567	-102
2.02933	-101
2.03300	-100
2.03667	-100
2.04033	-100
2.04400	-100
2.04767	-99
2.05133	-100
2.05500	-100
2.05867	-100
2.06233	-100
2.06600	-100
2.06967	-99
2.07333	-99
2.07700	-99
2.08067	-99
2.08433	-99
2.08800	-99
2.09167	-99
2.09533	-99
2.09900	-99
2.10267	-99
2.10633	-99
2.11000	-98
2.11367	-97
2.11733	-97
2.12100	-96
2.12467	-95
2.12833	-95
2.13200	-94
2.13567	-94
2.13933	-94
2.14300	-93
2.14667	-93
2.15033	-92
2.15400	-92
2.15767	-92
2.16133	-92
2.16500	-92
2.16867	-92
2.17233	-92
2.17600	-92
2.17967	-92
2.18333	-91
2.18700	-91
2.19067	-91
2.19433	-91
2.19800	-90
2.20167	-90
2.20533	-89
2.20900	-88
2.21267	-88
2.21633	-87
2.22000	-87
2.22367	-86
2.22733	-86
2.23100	-85
2.23467	-85
2.23833	-85
2.24200	-85
2.24567	-84
2.24933	-84
2.25300	-83
2.25667	-82
2.26033	-82
2.26400	-82
2.26767	-82
2.27133	-83
2.27500	-84
2.27867	-85
2.28233	-86
2.28600	-86
2.28967	-86
2.29333	-86
2.29700	-86
2.30067	-84
2.30433	-83
2.30800	-82
2.31167	-81
2.31533	-81
2.31900	-80
2.32267	-80
2.32633	-80
2.33000	-80
2.33367	-79
2.33733	-79
2.34100	-79
2.34467	-78
2.34833	-77
2.35200	-76
2.35567	-76
2.35933	-75
2.36300	-74
2.36667	-73
2.37033	-71
2.37400	-69
2.37767	-66
2.38133	-63
2.38500	-59
2.38867	-56
2.39233	-51
2.39600	-47
2.39967	-42
2.40333	-38
2.40700	-33
2.41067	-29
2.41433	-25
2.41800	-21
2.42167	-17
2.42533	-15
2.42900	-13
2.43267	-11
2.43633	-9
2.44000	-7
2.44367	-5
2.44733	-4
2.45100	-3
2.45467	-1
2.45833	-0
2.46200	1
2.46567	2
2.46933	3
2.47300	4
2.47667	5
2.48033	6
2.48400	7
2.48767	7
2.49133	7
2.49500	7
2.49867	7
2.50233	7
2.50600	7
2.50967	8
2.51333	8
2.51700	7
2.52067	7
2.52433	6
2.52800	6
2.53167	5
2.53533	5
2.53900	5
2.54267	5
2.54633	5
2.55000	6
2.55367	6
2.55733	6
2.56100	6
2.56467	6
2.56833	7
2.57200	8
2.57567	9
2.57933	10
2.58300	11
2.58667	11
2.59033	12
2.59400	12
2.59767	13
2.60133	13
2.60500	14
2.60867	14
2.61233	15
2.61600	15
2.61967	15
2.62333	16
2.62700	16
2.63067	16
2.63433	16
2.63800	16
2.64167	16
2.64533	16
2.64900	16
2.65267	17
2.65633	17
2.66000	17
2.66367	17
2.66733	18
2.67100	18
2.67467	19
2.67833	19
2.68200	19
2.68567	19
2.68933	19
2.69300	19
2.69667	19
2.70033	19
2.70400	19
2.70767	20
2.71133	20
2.71500	20
2.71867	20
2.72233	20
2.72600	20
2.72967	21
2.73333	21
2.73700	21
2.74067	21
2.74433	21
2.74800	22
2.75167	22
2.75533	22
2.75900	23
2.76267	23
2.76633	22
2.77000	22
2.77367	22
2.77733	21
2.78100	21
2.78467	21
2.78833	21
2.79200	21
2.79567	21
2.79933	22
2.80300	22
2.80667	22
2.81033	23
2.81400	23
2.81767	23
2.82133	23
2.82500	23
2.82867	23
2.83233	24
2.83600	24
2.83967	24
2.84333	24
2.84700	24
2.85067	24
2.85433	24
2.85800	24
2.86167	24
2.86533	23
2.86900	20
2.87267	14
2.87633	5
2.88000	-8
2.88367	-25
2.88733	-47
2.89100	-74
2.89467	-107
2.89833	-144
2.90200	-187
2.90567	-234
2.90933	-286
2.91300	-340
2.91667	-398
2.92033	-458
2.92400	-520
2.92767	-582
2.93133	-644
2.93500	-706
2.93867	-765
2.94233	-822
2.94600	-875
2.94967	-926
2.95333	-980
2.95700	-1035
2.96067	-1083
2.96433	-1114
2.96800	-1120
2.97167	-1101
2.97533	-1060
2.97900	-1000
2.98267	-928
2.98633	-849
2.99000	-768
2.99367	-687
2.99733	-610
3.00100	-537
3.00467	-470
3.00833	-409
3.01200	-354
3.01567	-306
3.01933	-263
3.02300	-225
3.02667	-192
3.03033	-164
3.03400	-139
3.03767	-117
3.04133	-99
3.04500	-83
3.04867	-70
3.05233	-58
3.05600	-48
3.05967	-40
3.06333	-33
3.06700	-27
3.07067	-22
3.07433	-17
3.07800	-13
3.08167	-10
3.08533	-7
3.08900	-4
3.09267	-1
3.09633	1
3.10000	2
3.10367	4
3.10733	5
3.11100	6
3.11467	6
3.11833	7
3.12200	8
3.12567	8
3.12933	9
3.13300	9
3.13667	10
3.14033	10
3.14400	10
3.14767	11
3.15133	12
3.15500	12
3.15867	12
3.16233	12
3.16600	13
3.16967	13
3.17333	14
3.17700	14
3.18067	15
3.18433	15
3.18800	15
3.19167	15
3.19533	16
3.19900	16
3.20267	16
3.20633	16
3.21000	16
3.21367	16
3.21733	16
3.22100	16
3.22467	16
3.22833	16
3.23200	16
3.23567	17
3.23933	17
3.24300	17
3.24667	17
3.25033	18
3.25400	18
3.25767	18
3.26133	18
3.26500	18
3.26867	18
3.27233	18
3.27600	19
3.27967	19
3.28333	19
3.28700	19
3.29067	19
3.29433	19
3.29800	19
3.30167	19
3.30533	19
3.30900	20
3.31267	20
3.31633	20
3.32000	20
3.32367	20
3.32733	20
3.33100	20
3.33467	20
3.33833	20
3.34200	20
3.34567	20
3.34933	20
3.35300	21
3.35667	21
3.36033	21
3.36400	21
3.36767	21
3.37133	22
3.37500	22
3.37867	22
3.38233	22
3.38600	22
3.38967	22
3.39333	22
3.39700	22
3.40067	22
3.40433	23
3.40800	23
3.41167	23
3.41533	23
3.41900	23
3.42267	23
3.42633	23
3.43000	23
3.43367	22
3.43733	22
3.44100	22
3.44467	22
3.44833	21
3.45200	21
3.45567	21
3.45933	21
3.46300	21
3.46667	20
3.47033	20
3.47400	21
3.47767	21
3.48133	20
3.48500	20
3.48867	20
3.49233	20
3.49600	20
3.49967	21
3.50333	21
3.50700	21
3.51067	21
3.51433	21
3.51800	21
3.52167	21
3.52533	21
3.52900	21
3.53267	21
3.53633	22
3.54000	22
3.54367	22
3.54733	22
3.55100	22
3.55467	22
3.55833	23
3.56200	23
3.56567	23
3.56933	24
3.57300	24
3.57667	24
3.58033	24
3.58400	24
3.58767	25
3.59133	25
3.59500	25
3.59867	25
3.60233	25
3.60600	26
3.60967	26
3.61333	26
3.61700	26
3.62067	25
3.62433	25
3.62800	25
3.63167	25
3.63533	25
3.63900	25
3.64267	25
3.64633	24
3.65000	24
3.65367	24
3.65733	24
3.66100	24
3.66467	24
3.66833	24
3.67200	24
3.67567	24
3.67933	24
3.68300	24
3.68667	24
3.69033	24
3.69400	24
3.69767	24
3.70133	24
3.70500	24
3.70867	24
3.71233	24
3.71600	24
3.71967	24
3.72333	24
3.72700	24
3.73067	24
3.73433	24
3.73800	24
3.74167	24
3.74533	24
3.74900	24
3.75267	24
3.75633	24
3.76000	24
3.76367	24
3.76733	23
3.77100	23
3.77467	23
3.77833	23
3.78200	23
3.78567	23
3.78933	23
3.79300	23
3.79667	23
3.80033	23
3.80400	23
3.80767	23
3.81133	23
3.81500	23
3.81867	23
3.82233	23
3.82600	22
3.82967	22
3.83333	22
3.83700	22
3.84067	23
3.84433	23
3.84800	23
3.85167	23
3.85533	23
3.85900	23
3.86267	23
3.86633	23
3.87000	23
3.87367	23
3.87733	23
3.88100	23
3.88467	23
3.88833	23
3.89200	23
3.89567	22
3.89933	22
3.90300	22
3.90667	22
3.91033	22
3.91400	22
3.91767	22
3.92133	22
3.92500	22
3.92867	22
3.93233	22
3.93600	22
3.93967	22
3.94333	22
3.94700	22
3.95067	22
3.95433	22
3.95800	22
3.96167	22
3.96533	22
3.96900	22
3.97267	22
3.97633	22
3.98000	22
3.98367	22
3.98733	22
3.99100	22
3.99467	22
3.99833	22

[Chromatogram (Ch3)]
Interval(msec)	220
# of Points	1091
Start Time(min)	0.002
End Time(min)	3.998
R.Time (min)	Intensity
0.00167	-0
0.00533	1
0.00900	4
0.01267	5
0.01633	3
0.02000	2
0.02367	3
0.02733	3
0.03100	4
0.03467	3
0.03833	1
0.04200	-1
0.04567	-2
0.04933	-1
0.05300	-1
0.05667	-1
0.06033	-3
0.06400	-5
0.06767	-5
0.07133	-4
0.07500	-2
0.07867	0
0.08233	1
0.08600	1
0.08967	1
0.09333	1
0.09700	1
0.10067	1
0.10433	4
0.10800	5
0.11167	6
0.11533	5
0.11900	3
0.12267	2
0.12633	2
0.13000	2
0.13367	4
0.13733	6
0.14100	7
0.14467	10
0.14833	10
0.15200	9
0.15567	8
0.15933	4
0.16300	3
0.16667	3
0.17033	3
0.17400	7
0.17767	7
0.18133	5
0.18500	6
0.18867	4
0.19233	3
0.19600	4
0.19967	6
0.20333	8
0.20700	7
0.21067	7
0.21433	8
0.21800	7
0.22167	5
0.22533	6
0.22900	6
0.23267	6
0.23633	4
0.24000	2
0.24367	1
0.24733	2
0.25100	3
0.25467	4
0.25833	5
0.26200	6
0.26567	6
0.26933	7
0.27300	8
0.27667	8
0.28033	7
0.28400	7
0.28767	8
0.29133	7
0.29500	6
0.29867	3
0.30233	3
0.30600	4
0.30967	7
0.31333	10
0.31700	10
0.32067	9
0.32433	8
0.32800	7
0.33167	8
0.33533	8
0.33900	9
0.34267	9
0.34633	8
0.35000	6
0.35367	3
0.35733	3
0.36100	3
0.36467	4
0.36833	7
0.37200	8
0.37567	8
0.37933	8
0.38300	9
0.38667	9
0.39033	7
0.39400	9
0.39767	12
0.40133	14
0.40500	13
0.40867	11
0.41233	13
0.41600	14
0.41967	13
0.42333	12
0.42700	10
0.43067	8
0.43433	7
0.43800	8
0.44167	12
0.44533	16
0.44900	16
0.45267	16
0.45633	15
0.46000	14
0.46367	16
0.46733	16
0.47100	13
0.47467	12
0.47833	12
0.48200	10
0.48567	9
0.48933	10
0.49300	12
0.49667	14
0.50033	14
0.50400	16
0.50767	18
0.51133	18
0.51500	17
0.51867	15
0.52233	13
0.52600	13
0.52967	14
0.53333	17
0.53700	21
0.54067	20
0.54433	20
0.54800	20
0.55167	20
0.55533	18
0.55900	17
0.56267	18
0.56633	18
0.57000	17
0.57367	16
0.57733	14
0.58100	13
0.58467	14
0.58833	15
0.59200	13
0.59567	12
0.59933	10
0.60300	9
0.60667	9
0.61033	8
0.61400	10
0.61767	12
0.62133	15
0.62500	16
0.62867	16
0.63233	14
0.63600	15
0.63967	15
0.64333	15
0.64700	14
0.65067	13
0.65433	14
0.65800	16
0.66167	16
0.66533	14
0.66900	11
0.67267	11
0.67633	13
0.68000	13
0.68367	14
0.68733	15
0.69100	15
0.69467	16
0.69833	16
0.70200	17
0.70567	17
0.70933	17
0.71300	16
0.71667	15
0.72033	16
0.72400	17
0.72767	19
0.73133	21
0.73500	22
0.73867	20
0.74233	17
0.74600	15
0.74967	15
0.75333	15
0.75700	17
0.76067	19
0.76433	19
0.76800	20
0.77167	19
0.77533	19
0.77900	18
0.78267	20
0.78633	22
0.79000	22
0.79367	21
0.79733	21
0.80100	19
0.80467	18
0.80833	18
0.81200	19
0.81567	20
0.81933	19
0.82300	19
0.82667	21
0.83033	23
0.83400	22
0.83767	22
0.84133	21
0.84500	22
0.84867	22
0.85233	22
0.85600	22
0.85967	22
0.86333	20
0.86700	20
0.87067	19
0.87433	19
0.87800	20
0.88167	19
0.88533	21
0.88900	21
0.89267	22
0.89633	20
0.90000	20
0.90367	22
0.90733	22
0.91100	22
0.91467	23
0.91833	26
0.92200	27
0.92567	26
0.92933	24
0.93300	22
0.93667	22
0.94033	23
0.94400	23
0.94767	24
0.95133	26
0.95500	26
0.95867	24
0.96233	24
0.96600	23
0.96967	21
0.97333	18
0.97700	19
0.98067	20
0.98433	21
0.98800	23
0.99167	23
0.99533	22
0.99900	22
1.00267	22
1.00633	24
1.01000	25
1.01367	24
1.01733	24
1.02100	25
1.02467	26
1.02833	28
1.03200	25
1.03567	24
1.03933	21
1.04300	20
1.04667	20
1.05033	23
1.05400	26
1.05767	28
1.06133	30
1.06500	29
1.06867	28
1.07233	28
1.07600	26
1.07967	26
1.08333	26
1.08700	25
1.09067	26
1.09433	28
1.09800	29
1.10167	28
1.10533	26
1.10900	24
1.11267	23
1.11633	22
1.12000	23
1.12367	24
1.12733	24
1.13100	24
1.13467	23
1.13833	24
1.14200	24
1.14567	26
1.14933	28
1.15300	27
1.15667	27
1.16033	25
1.16400	24
1.16767	24
1.17133	23
1.17500	25
1.17867	28
1.18233	29
1.18600	28
1.18967	27
1.19333	25
1.19700	24
1.20067	24
1.20433	24
1.20800	21
1.21167	19
1.21533	21
1.21900	24
1.22267	24
1.22633	24
1.23000	25
1.23367	25
1.23733	27
1.24100	29
1.24467	29
1.24833	28
1.25200	28
1.25567	27
1.25933	27
1.26300	28
1.26667	29
1.27033	29
1.27400	28
1.27767	27
1.28133	26
1.28500	25
1.28867	24
1.29233	23
1.29600	23
1.29967	24
1.30333	26
1.30700	26
1.31067	26
1.31433	26
1.31800	26
1.32167	27
1.32533	29
1.32900	29
1.33267	29
1.33633	27
1.34000	25
1.34367	26
1.34733	27
1.35100	28
1.35467	28
1.35833	27
1.36200	27
1.36567	26
1.36933	24
1.37300	24
1.37667	25
1.38033	26
1.38400	26
1.38767	27
1.39133	27
1.39500	25
1.39867	23
1.40233	24
1.40600	26
1.40967	28
1.41333	30
1.41700	30
1.42067	30
1.42433	29
1.42800	28
1.43167	27
1.43533	29
1.43900	29
1.44267	27
1.44633	26
1.45000	25
1.45367	23
1.45733	23
1.46100	24
1.46467	26
1.46833	25
1.47200	26
1.47567	27
1.47933	27
1.48300	26
1.48667	28
1.49033	31
1.49400	31
1.49767	28
1.50133	26
1.50500	26
1.50867	27
1.51233	27
1.51600	28
1.51967	27
1.52333	26
1.52700	27
1.53067	26
1.53433	25
1.53800	23
1.54167	23
1.54533	23
1.54900	23
1.55267	24
1.55633	24
1.56000	26
1.56367	27
1.56733	27
1.57100	26
1.57467	24
1.57833	22
1.58200	22
1.58567	22
1.58933	24
1.59300	25
1.59667	24
1.60033	24
1.60400	23
1.60767	22
1.61133	24
1.61500	27
1.61867	27
1.62233	27
1.62600	27
1.62967	26
1.63333	26
1.63700	28
1.64067	30
1.64433	32
1.64800	32
1.65167	32
1.65533	33
1.65900	34
1.66267	36
1.66633	35
1.67000	35
1.67367	37
1.67733	38
1.68100	37
1.68467	36
1.68833	36
1.69200	35
1.69567	36
1.69933	37
1.70300	38
1.70667	38
1.71033	39
1.71400	42
1.71767	44
1.72133	45
1.72500	45
1.72867	43
1.73233	42
1.73600	44
1.73967	45
1.74333	47
1.74700	47
1.75067	46
1.75433	45
1.75800	47
1.76167	50
1.76533	52
1.76900	53
1.77267	53
1.77633	52
1.78000	50
1.78367	50
1.78733	51
1.79100	51
1.79467	53
1.79833	52
1.80200	51
1.80567	50
1.80933	48
1.81300	48
1.81667	49
1.82033	50
1.82400	50
1.82767	50
1.83133	51
1.83500	53
1.83867	57
1.84233	59
1.84600	59
1.84967	59
1.85333	57
1.85700	58
1.86067	60
1.86433	61
1.86800	60
1.87167	61
1.87533	62
1.87900	63
1.88267	66
1.88633	68
1.89000	70
1.89367	73
1.89733	74
1.90100	74
1.90467	75
1.90833	74
1.91200	71
1.91567	69
1.91933	68
1.92300	68
1.92667	68
1.93033	72
1.93400	75
1.93767	76
1.94133	76
1.94500	73
1.94867	71
1.95233	70
1.95600	70
1.95967	71
1.96333	75
1.96700	77
1.97067	79
1.97433	81
1.97800	80
1.98167	80
1.98533	80
1.98900	81
1.99267	83
1.99633	84
2.00000	86
2.00367	87
2.00733	87
2.01100	87
2.01467	87
2.01833	88
2.02200	86
2.02567	87
2.02933	91
2.03300	94
2.03667	96
2.04033	97
2.04400	98
2.04767	99
2.05133	99
2.05500	98
2.05867	99
2.06233	99
2.06600	101
2.06967	101
2.07333	102
2.07700	104
2.08067	105
2.08433	108
2.08800	110
2.09167	110
2.09533	108
2.09900	108
2.10267	108
2.10633	109
2.11000	111
2.11367	111
2.11733	109
2.12100	109
2.12467	111
2.12833	111
2.13200	112
2.13567	113
2.13933	116
2.14300	116
2.14667	115
2.15033	115
2.15400	113
2.15767	114
2.16133	117
2.16500	119
2.16867	118
2.17233	117
2.17600	116
2.17967	116
2.18333	116
2.18700	115
2.19067	118
2.19433	120
2.19800	120
2.20167	120
2.20533	120
2.20900	122
2.21267	123
2.21633	124
2.22000	126
2.22367	126
2.22733	127
2.23100	129
2.23467	130
2.23833	131
2.24200	132
2.24567	133
2.24933	133
2.25300	132
2.25667	132
2.26033	132
2.26400	132
2.26767	131
2.27133	132
2.27500	131
2.27867	128
2.28233	129
2.28600	132
2.28967	135
2.29333	137
2.29700	135
2.30067	133
2.30433	132
2.30800	132
2.31167	133
2.31533	133
2.31900	134
2.32267	136
2.32633	139
2.33000	139
2.33367	139
2.33733	139
2.34100	140
2.34467	140
2.34833	140
2.35200	141
2.35567	141
2.35933	140
2.36300	138
2.36667	139
2.37033	138
2.37400	139
2.37767	141
2.38133	141
2.38500	140
2.38867	139
2.39233	139
2.39600	141
2.39967	143
2.40333	143
2.40700	142
2.41067	144
2.41433	147
2.41800	152
2.42167	153
2.42533	155
2.42900	156
2.43267	155
2.43633	155
2.44000	159
2.44367	202
2.44733	302
2.45100	413
2.45467	502
2.45833	570
2.46200	619
2.46567	653
2.46933	672
2.47300	682
2.47667	689
2.48033	700
2.48400	715
2.48767	732
2.49133	747
2.49500	761
2.49867	770
2.50233	771
2.50600	762
2.50967	749
2.51333	734
2.51700	721
2.52067	713
2.52433	706
2.52800	701
2.53167	700
2.53533	701
2.53900	704
2.54267	709
2.54633	714
2.55000	719
2.55367	727
2.55733	736
2.56100	745
2.56467	749
2.56833	750
2.57200	745
2.57567	737
2.57933	728
2.58300	716
2.58667	702
2.59033	687
2.59400	671
2.59767	659
2.60133	648
2.60500	639
2.60867	631
2.61233	625
2.61600	622
2.61967	618
2.62333	615
2.62700	611
2.63067	604
2.63433	597
2.63800	590
2.64167	584
2.64533	579
2.64900	574
2.65267	568
2.65633	564
2.66000	563
2.66367	562
2.66733	564
2.67100	567
2.67467	567
2.67833	569
2.68200	570
2.68567	576
2.68933	581
2.69300	587
2.69667	591
2.70033	592
2.70400	594
2.70767	596
2.71133	599
2.71500	601
2.71867	604
2.72233	606
2.72600	606
2.72967	604
2.73333	601
2.73700	597
2.74067	593
2.74433	590
2.74800	584
2.75167	578
2.75533	575
2.75900	571
2.76267	568
2.76633	565
2.77000	560
2.77367	556
2.77733	553
2.78100	551
2.78467	549
2.78833	549
2.79200	551
2.79567	551
2.79933	550
2.80300	549
2.80667	548
2.81033	550
2.81400	550
2.81767	550
2.82133	549
2.82500	551
2.82867	554
2.83233	557
2.83600	566
2.83967	589
2.84333	640
2.84700	738
2.85067	904
2.85433	1161
2.85800	1521
2.86167	1981
2.86533	2520
2.86900	3103
2.87267	3687
2.87633	4219
2.88000	4658
2.88367	4970
2.88733	5141
2.89100	5171
2.89467	5074
2.89833	4876
2.90200	4606
2.90567	4292
2.90933	3956
2.91300	3616
2.91667	3285
2.92033	2970
2.92400	2676
2.92767	2409
2.93133	2169
2.93500	1956
2.93867	1766
2.94233	1599
2.94600	1454
2.94967	1326
2.95333	1213
2.95700	1116
2.96067	1032
2.96433	960
2.96800	897
2.97167	844
2.97533	801
2.97900	763
2.98267	729
2.98633	699
2.99000	674
2.99367	652
2.99733	633
3.00100	619
3.00467	606
3.00833	596
3.01200	587
3.01567	578
3.01933	573
3.02300	569
3.02667	565
3.03033	561
3.03400	558
3.03767	555
3.04133	552
3.04500	551
3.04867	552
3.05233	551
3.05600	549
3.05967	546
3.06333	545
3.06700	544
3.07067	543
3.07433	541
3.07800	539
3.08167	541
3.08533	540
3.08900	538
3.09267	536
3.09633	533
3.10000	533
3.10367	534
3.10733	533
3.11100	531
3.11467	530
3.11833	528
3.12200	528
3.12567	529
3.12933	532
3.13300	533
3.13667	531
3.14033	527
3.14400	524
3.14767	524
3.15133	525
3.15500	526
3.15867	527
3.16233	527
3.16600	525
3.16967	523
3.17333	522
3.17700	523
3.18067	524
3.18433	524
3.18800	523
3.19167	521
3.19533	519
3.19900	517
3.20267	517
3.20633	517
3.21000	518
3.21367	515
3.21733	512
3.22100	508
3.22467	506
3.22833	507
3.23200	509
3.23567	511
3.23933	512
3.24300	512
3.24667	510
3.25033	508
3.25400	505
3.25767	501
3.26133	500
3.26500	502
3.26867	504
3.27233	503
3.27600	500
3.27967	496
3.28333	493
3.28700	491
3.29067	491
3.29433	490
3.29800	489
3.30167	488
3.30533	484
3.30900	482
3.31267	481
3.31633	481
3.32000	482
3.32367	482
3.32733	480
3.33100	480
3.33467	479
3.33833	477
3.34200	474
3.34567	470
3.34933	467
3.35300	462
3.35667	460
3.36033	460
3.36400	459
3.36767	459
3.37133	455
3.37500	450
3.37867	449
3.38233	451
3.38600	449
3.38967	446
3.39333	443
3.39700	441
3.40067	439
3.40433	436
3.40800	434
3.41167	432
3.41533	431
3.41900	431
3.42267	430
3.42633	427
3.43000	423
3.43367	420
3.43733	419
3.44100	417
3.44467	415
3.44833	414
3.45200	412
3.45567	410
3.45933	409
3.46300	409
3.46667	406
3.47033	403
3.47400	402
3.47767	401
3.48133	400
3.48500	399
3.48867	397
3.49233	395
3.49600	394
3.49967	393
3.50333	390
3.50700	388
3.51067	386
3.51433	386
3.51800	387
3.52167	388
3.52533	386
3.52900	383
3.53267	383
3.53633	383
3.54000	383
3.54367	384
3.54733	382
3.55100	380
3.55467	377
3.55833	375
3.56200	374
3.56567	372
3.56933	369
3.57300	367
3.57667	366
3.58033	367
3.58400	367
3.58767	364
3.59133	361
3.59500	360
3.59867	357
3.60233	355
3.60600	354
3.60967	352
3.61333	350
3.61700	348
3.62067	347
3.62433	347
3.62800	345
3.63167	343
3.63533	341
3.63900	339
3.64267	337
3.64633	337
3.65000	337
3.65367	338
3.65733	339
3.66100	337
3.66467	336
3.66833	336
3.67200	335
3.67567	332
3.67933	331
3.68300	331
3.68667	329
3.69033	328
3.69400	325
3.69767	321
3.70133	319
3.70500	317
3.70867	314
3.71233	314
3.71600	314
3.71967	312
3.72333	309
3.72700	307
3.73067	306
3.73433	305
3.73800	303
3.74167	301
3.74533	302
3.74900	302
3.75267	302
3.75633	300
3.76000	298
3.76367	297
3.76733	296
3.77100	295
3.77467	291
3.77833	287
3.78200	284
3.78567	281
3.78933	280
3.79300	282
3.79667	282
3.80033	280
3.80400	278
3.80767	276
3.81133	275
3.81500	276
3.81867	275
3.82233	271
3.82600	270
3.82967	269
3.83333	268
3.83700	266
3.84067	263
3.84433	259
3.84800	254
3.85167	254
3.85533	255
3.85900	255
3.86267	251
3.86633	246
3.87000	245
3.87367	247
3.87733	248
3.88100	248
3.88467	244
3.88833	238
3.89200	235
3.89567	235
3.89933	235
3.90300	234
3.90667	232
3.91033	230
3.91400	228
3.91767	225
3.92133	223
3.92500	223
3.92867	222
3.93233	221
3.93600	216
3.93967	210
3.94333	206
3.94700	204
3.95067	203
3.95433	202
3.95800	201
3.96167	200
3.96533	199
3.96900	197
3.97267	197
3.97633	197
3.98000	197
3.98367	194
3.98733	190
3.99100	185
3.99467	181
3.99833	179

[Status Trace (Column Oven Temperature)]
Interval(msec)	1000
# of Points	240
Start Time(min)	0.003
End Time(min)	3.986
Intensity Units	
Intensity Multiplier	1
R.Time (min)	Intensity
0.00298	35.02
0.01965	35.01
0.03632	35.00
0.05298	35.00
0.06965	35.00
0.08632	35.00
0.10298	35.02
0.11965	35.03
0.13632	35.04
0.15298	35.04
0.16965	35.04
0.18632	35.04
0.20298	35.05
0.21965	35.04
0.23632	35.03
0.25298	35.02
0.26965	35.03
0.28632	35.02
0.30298	35.02
0.31965	35.02
0.33632	35.03
0.35298	35.04
0.36965	35.04
0.38632	35.03
0.40298	35.02
0.41965	35.01
0.43632	35.01
0.45298	35.01
0.46965	35.00
0.48632	35.00
0.50298	35.01
0.51965	35.00
0.53632	35.02
0.55298	35.02
0.56965	35.01
0.58632	35.01
0.60298	35.01
0.61965	35.00
0.63632	35.01
0.65298	35.01
0.66965	35.02
0.68632	35.02
0.70298	35.02
0.71965	35.02
0.73632	35.01
0.75298	35.00
0.76965	34.98
0.78632	34.99
0.80298	34.99
0.81965	34.98
0.83632	34.98
0.85298	34.99
0.86965	34.99
0.88632	35.00
0.90298	35.00
0.91965	35.00
0.93632	35.00
0.95298	35.00
0.96965	35.00
0.98632	35.00
1.00298	34.99
1.01965	34.99
1.03632	34.98
1.05298	34.98
1.06965	34.99
1.08632	34.99
1.10298	35.00
1.11965	35.00
1.13632	35.00
1.15298	34.99
1.16965	34.99
1.18632	35.01
1.20298	35.02
1.21965	35.03
1.23632	35.04
1.25298	35.03
1.26965	35.03
1.28632	35.03
1.30298	35.03
1.31965	35.03
1.33632	35.03
1.35298	35.02
1.36965	35.01
1.38632	35.01
1.40298	35.01
1.41965	35.00
1.43632	35.00
1.45298	35.01
1.46965	34.98
1.48632	34.98
1.50298	34.98
1.51965	34.99
1.53632	34.98
1.55298	34.99
1.56965	34.99
1.58632	34.98
1.60298	35.02
1.61965	35.12
1.63632	35.30
1.65298	35.53
1.66965	35.84
1.68632	36.21
1.70298	36.56
1.71965	36.90
1.73632	37.23
1.75298	37.57
1.76965	37.88
1.78632	38.22
1.80298	38.56
1.81965	38.90
1.83632	39.23
1.85298	39.55
1.86965	39.88
1.88632	40.19
1.90298	40.51
1.91965	40.85
1.93632	41.17
1.95298	41.49
1.96965	41.82
1.98632	42.13
2.00298	42.47
2.01965	42.80
2.03632	43.12
2.05298	43.45
2.06965	43.78
2.08632	44.10
2.10298	44.43
2.11965	44.76
2.13632	45.08
2.15298	45.41
2.16965	45.75
2.18632	46.07
2.20298	46.39
2.21965	46.72
2.23632	47.04
2.25298	47.35
2.26965	47.72
2.28632	48.08
2.30298	48.39
2.31965	48.71
2.33632	49.04
2.35298	49.36
2.36965	49.62
2.38632	49.74
2.40298	49.75
2.41965	49.74
2.43632	49.73
2.45298	49.75
2.46965	49.74
2.48632	49.76
2.50298	49.77
2.51965	49.79
2.53632	49.78
2.55298	49.80
2.56965	49.80
2.58632	49.81
2.60298	49.81
2.61965	49.81
2.63632	49.82
2.65298	49.84
2.66965	49.83
2.68632	49.84
2.70298	49.85
2.71965	49.86
2.73632	49.85
2.75298	49.84
2.76965	49.86
2.78632	49.88
2.80298	49.87
2.81965	49.87
2.83632	49.86
2.85298	49.85
2.86965	49.85
2.88632	49.88
2.90298	49.91
2.91965	49.93
2.93632	49.94
2.95298	49.95
2.96965	49.94
2.98632	49.94
3.00298	49.94
3.01965	49.94
3.03632	49.94
3.05298	49.95
3.06965	49.95
3.08632	49.95
3.10298	49.96
3.11965	49.97
3.13632	49.97
3.15298	49.98
3.16965	49.99
3.18632	50.01
3.20298	50.01
3.21965	50.03
3.23632	50.03
3.25298	50.03
3.26965	50.05
3.28632	50.05
3.30298	50.06
3.31965	50.07
3.33632	50.08
3.35298	50.07
3.36965	50.07
3.38632	50.07
3.40298	50.07
3.41965	50.07
3.43632	50.08
3.45298	50.09
3.46965	50.10
3.48632	50.10
3.50298	50.11
3.51965	50.10
3.53632	50.10
3.55298	50.10
3.56965	50.09
3.58632	50.07
3.60298	50.06
3.61965	50.05
3.63632	50.04
3.65298	50.04
3.66965	50.03
3.68632	50.03
3.70298	50.01
3.71965	50.01
3.73632	50.00
3.75298	50.00
3.76965	50.00
3.78632	49.99
3.80298	49.99
3.81965	50.00
3.83632	49.99
3.85298	49.99
3.86965	49.99
3.88632	49.99
3.90298	49.99
3.91965	50.00
3.93632	50.00
3.95298	50.00
3.96965	50.01
3.98632	50.02

[Status Trace (Injection Unit Temperature)]
Interval(msec)	1000
# of Points	240
Start Time(min)	0.003
End Time(min)	3.986
Intensity Units	
Intensity Multiplier	1
R.Time (min)	Intensity
0.00298	99.98
0.01965	99.98
0.03632	99.98
0.05298	99.98
0.06965	99.99
0.08632	99.98
0.10298	99.98
0.11965	99.98
0.13632	99.97
0.15298	99.98
0.16965	99.98
0.18632	99.98
0.20298	99.99
0.21965	99.98
0.23632	99.98
0.25298	99.99
0.26965	99.99
0.28632	99.99
0.30298	99.99
0.31965	99.99
0.33632	99.99
0.35298	99.99
0.36965	99.99
0.38632	99.99
0.40298	99.99
0.41965	99.99
0.43632	99.99
0.45298	99.99
0.46965	99.99
0.48632	99.99
0.50298	99.99
0.51965	99.99
0.53632	99.99
0.55298	99.99
0.56965	99.99
0.58632	99.99
0.60298	99.99
0.61965	99.99
0.63632	99.99
0.65298	99.99
0.66965	99.99
0.68632	99.99
0.70298	99.99
0.71965	99.99
0.73632	99.99
0.75298	99.99
0.76965	99.98
0.78632	99.99
0.80298	99.99
0.81965	99.99
0.83632	99.98
0.85298	99.98
0.86965	99.98
0.88632	99.98
0.90298	99.99
0.91965	99.98
0.93632	99.98
0.95298	99.98
0.96965	99.99
0.98632	99.98
1.00298	99.97
1.01965	99.98
1.03632	99.98
1.05298	99.98
1.06965	99.98
1.08632	99.99
1.10298	99.99
1.11965	99.99
1.13632	99.99
1.15298	99.99
1.16965	99.99
1.18632	99.98
1.20298	99.99
1.21965	99.99
1.23632	99.99
1.25298	99.98
1.26965	99.99
1.28632	99.99
1.30298	99.99
1.31965	99.99
1.33632	99.99
1.35298	99.99
1.36965	99.98
1.38632	99.98
1.40298	99.99
1.41965	99.98
1.43632	99.99
1.45298	99.99
1.46965	99.99
1.48632	99.99
1.50298	99.99
1.51965	99.99
1.53632	99.99
1.55298	99.99
1.56965	99.99
1.58632	99.99
1.60298	99.99
1.61965	99.99
1.63632	99.99
1.65298	99.99
1.66965	99.99
1.68632	99.99
1.70298	99.99
1.71965	99.99
1.73632	99.99
1.75298	99.99
1.76965	99.99
1.78632	99.99
1.80298	99.99
1.81965	99.99
1.83632	99.99
1.85298	99.99
1.86965	99.99
1.88632	99.98
1.90298	99.99
1.91965	99.98
1.93632	99.99
1.95298	99.98
1.96965	99.99
1.98632	99.98
2.00298	99.98
2.01965	99.98
2.03632	99.98
2.05298	99.98
2.06965	99.98
2.08632	99.98
2.10298	99.97
2.11965	99.98
2.13632	99.98
2.15298	99.98
2.16965	99.97
2.18632	99.98
2.20298	99.98
2.21965	99.97
2.23632	99.97
2.25298	99.97
2.26965	99.97
2.28632	99.97
2.30298	99.96
2.31965	99.97
2.33632	99.97
2.35298	99.97
2.36965	99.97
2.38632	99.97
2.40298	99.96
2.41965	99.96
2.43632	99.97
2.45298	99.96
2.46965	99.97
2.48632	99.97
2.50298	99.97
2.51965	99.97
2.53632	99.97
2.55298	99.97
2.56965	99.97
2.58632	99.98
2.60298	99.98
2.61965	99.98
2.63632	99.98
2.65298	99.98
2.66965	99.98
2.68632	99.99
2.70298	99.98
2.71965	99.99
2.73632	99.99
2.75298	99.99
2.76965	100.00
2.78632	99.99
2.80298	99.99
2.81965	99.99
2.83632	100.00
2.85298	100.00
2.86965	100.00
2.88632	100.00
2.90298	100.00
2.91965	100.01
2.93632	100.01
2.95298	100.01
2.96965	100.01
2.98632	100.01
3.00298	100.01
3.01965	100.01
3.03632	100.01
3.05298	100.01
3.06965	100.02
3.08632	100.02
3.10298	100.01
3.11965	100.02
3.13632	100.03
3.15298	100.02
3.16965	100.02
3.18632	100.03
3.20298	100.03
3.21965	100.02
3.23632	100.02
3.25298	100.03
3.26965	100.02
3.28632	100.03
3.30298	100.03
3.31965	100.03
3.33632	100.03
3.35298	100.03
3.36965	100.03
3.38632	100.03
3.40298	100.03
3.41965	100.04
3.43632	100.03
3.45298	100.03
3.46965	100.03
3.48632	100.04
3.50298	100.03
3.51965	100.03
3.53632	100.03
3.55298	100.03
3.56965	100.03
3.58632	100.03
3.60298	100.03
3.61965	100.03
3.63632	100.03
3.65298	100.03
3.66965	100.03
3.68632	100.03
3.70298	100.03
3.71965	100.03
3.73632	100.03
3.75298	100.03
3.76965	100.03
3.78632	100.03
3.80298	100.03
3.81965	100.03
3.83632	100.04
3.85298	100.04
3.86965	100.04
3.88632	100.04
3.90298	100.04
3.91965	100.04
3.93632	100.04
3.95298	100.04
3.96965	100.04
3.98632	100.04

[Status Trace (Carrier Gas Pressure)]
Interval(msec)	1000
# of Points	240
Start Time(min)	0.003
End Time(min)	3.986
Intensity Units	
Intensity Multiplier	1
R.Time (min)	Intensity
0.00298	58.00
0.01965	56.16
0.03632	56.48
0.05298	58.68
0.06965	59.78
0.08632	58.20
0.10298	57.97
0.11965	58.00
0.13632	58.01
0.15298	58.01
0.16965	58.00
0.18632	58.00
0.20298	58.00
0.21965	58.00
0.23632	58.00
0.25298	58.00
0.26965	58.00
0.28632	58.00
0.30298	58.00
0.31965	58.00
0.33632	58.00
0.35298	58.00
0.36965	58.00
0.38632	58.00
0.40298	58.00
0.41965	58.00
0.43632	58.00
0.45298	58.00
0.46965	58.00
0.48632	58.00
0.50298	58.00
0.51965	58.00
0.53632	58.00
0.55298	58.00
0.56965	58.00
0.58632	58.00
0.60298	58.00
0.61965	58.00
0.63632	58.00
0.65298	58.00
0.66965	58.00
0.68632	58.00
0.70298	58.00
0.71965	58.00
0.73632	58.00
0.75298	58.00
0.76965	58.00
0.78632	58.00
0.80298	58.00
0.81965	58.00
0.83632	58.00
0.85298	58.00
0.86965	58.00
0.88632	58.00
0.90298	58.00
0.91965	58.00
0.93632	58.00
0.95298	58.00
0.96965	58.00
0.98632	58.00
1.00298	58.00
1.01965	58.00
1.03632	58.00
1.05298	58.00
1.06965	58.00
1.08632	58.00
1.10298	58.00
1.11965	58.00
1.13632	58.00
1.15298	58.00
1.16965	58.00
1.18632	58.00
1.20298	58.00
1.21965	58.00
1.23632	58.00
1.25298	58.00
1.26965	58.00
1.28632	58.00
1.30298	58.00
1.31965	58.00
1.33632	58.00
1.35298	58.00
1.36965	58.00
1.38632	58.00
1.40298	58.00
1.41965	58.00
1.43632	58.00
1.45298	58.00
1.46965	58.00
1.48632	58.00
1.50298	58.00
1.51965	58.00
1.53632	58.00
1.55298	58.00
1.56965	58.00
1.58632	58.00
1.60298	58.00
1.61965	58.00
1.63632	58.00
1.65298	58.00
1.66965	58.01
1.68632	58.01
1.70298	58.00
1.71965	58.00
1.73632	58.00
1.75298	58.00
1.76965	58.00
1.78632	58.00
1.80298	58.00
1.81965	58.00
1.83632	58.00
1.85298	58.00
1.86965	58.00
1.88632	58.00
1.90298	58.00
1.91965	58.00
1.93632	58.00
1.95298	58.00
1.96965	58.00
1.98632	58.00
2.00298	58.00
2.01965	58.00
2.03632	58.00
2.05298	58.00
2.06965	58.00
2.08632	58.00
2.10298	58.00
2.11965	58.00
2.13632	58.00
2.15298	58.00
2.16965	58.00
2.18632	58.00
2.20298	58.00
2.21965	58.00
2.23632	58.00
2.25298	58.00
2.26965	58.00
2.28632	58.00
2.30298	58.00
2.31965	58.00
2.33632	58.00
2.35298	58.00
2.36965	58.00
2.38632	57.99
2.40298	57.99
2.41965	58.00
2.43632	58.00
2.45298	58.00
2.46965	58.00
2.48632	58.00
2.50298	57.97
2.51965	58.01
2.53632	57.99
2.55298	58.00
2.56965	58.00
2.58632	58.00
2.60298	58.00
2.61965	58.00
2.63632	58.00
2.65298	58.00
2.66965	58.00
2.68632	58.00
2.70298	58.00
2.71965	58.00
2.73632	58.00
2.75298	58.00
2.76965	58.00
2.78632	58.00
2.80298	58.00
2.81965	58.00
2.83632	58.00
2.85298	58.00
2.86965	58.00
2.88632	58.00
2.90298	58.00
2.91965	58.00
2.93632	58.00
2.95298	58.00
2.96965	58.00
2.98632	58.00
3.00298	58.00
3.01965	58.00
3.03632	58.00
3.05298	58.00
3.06965	58.00
3.08632	58.00
3.10298	58.00
3.11965	58.00
3.13632	58.00
3.15298	58.00
3.16965	58.00
3.18632	58.00
3.20298	58.00
3.21965	58.00
3.23632	58.00
3.25298	58.00
3.26965	58.00
3.28632	58.00
3.30298	58.00
3.31965	58.00
3.33632	58.00
3.35298	58.00
3.36965	58.00
3.38632	58.00
3.40298	58.00
3.41965	58.00
3.43632	58.00
3.45298	58.00
3.46965	58.00
3.48632	58.00
3.50298	58.00
3.51965	58.00
3.53632	58.00
3.55298	58.00
3.56965	58.00
3.58632	58.00
3.60298	58.00
3.61965	58.00
3.63632	58.00
3.65298	58.00
3.66965	58.00
3.68632	58.00
3.70298	58.00
3.71965	58.00
3.73632	58.00
3.75298	58.00
3.76965	58.00
3.78632	58.00
3.80298	58.00
3.81965	58.00
3.83632	58.00
3.85298	58.00
3.86965	58.00
3.88632	58.00
3.90298	58.00
3.91965	58.00
3.93632	58.00
3.95298	58.00
3.96965	58.00
3.98632	58.00

[Status Trace (Carrier Gas Flow)]
Interval(msec)	1000
# of Points	240
Start Time(min)	0.003
End Time(min)	3.986
Intensity Units	
Intensity Multiplier	1
R.Time (min)	Intensity
0.00298	34.52
0.01965	34.59
0.03632	34.54
0.05298	34.55
0.06965	34.50
0.08632	34.51
0.10298	34.52
0.11965	34.52
0.13632	34.52
0.15298	34.52
0.16965	34.52
0.18632	34.52
0.20298	34.52
0.21965	34.52
0.23632	34.52
0.25298	34.52
0.26965	34.52
0.28632	34.52
0.30298	34.52
0.31965	34.52
0.33632	34.52
0.35298	34.52
0.36965	34.52
0.38632	34.52
0.40298	34.52
0.41965	34.52
0.43632	34.52
0.45298	34.52
0.46965	34.52
0.48632	34.52
0.50298	34.52
0.51965	34.52
0.53632	34.52
0.55298	34.52
0.56965	34.52
0.58632	34.52
0.60298	34.52
0.61965	34.52
0.63632	34.52
0.65298	34.52
0.66965	34.52
0.68632	34.53
0.70298	34.51
0.71965	34.52
0.73632	34.52
0.75298	34.52
0.76965	34.52
0.78632	34.52
0.80298	34.52
0.81965	34.52
0.83632	34.52
0.85298	34.52
0.86965	34.52
0.88632	34.52
0.90298	34.52
0.91965	34.52
0.93632	34.53
0.95298	34.52
0.96965	34.52
0.98632	34.53
1.00298	34.52
1.01965	34.51
1.03632	34.52
1.05298	34.52
1.06965	34.52
1.08632	34.52
1.10298	34.52
1.11965	34.52
1.13632	34.52
1.15298	34.52
1.16965	34.52
1.18632	34.51
1.20298	34.52
1.21965	34.52
1.23632	34.52
1.25298	34.52
1.26965	34.52
1.28632	34.52
1.30298	34.51
1.31965	34.53
1.33632	34.53
1.35298	34.52
1.36965	34.52
1.38632	34.51
1.40298	34.52
1.41965	34.52
1.43632	34.52
1.45298	34.52
1.46965	34.53
1.48632	34.51
1.50298	34.52
1.51965	34.52
1.53632	34.52
1.55298	34.52
1.56965	34.52
1.58632	34.52
1.60298	34.52
1.61965	34.52
1.63632	34.52
1.65298	34.52
1.66965	34.51
1.68632	34.52
1.70298	34.52
1.71965	34.52
1.73632	34.52
1.75298	34.52
1.76965	34.51
1.78632	34.52
1.80298	34.52
1.81965	34.52
1.83632	34.52
1.85298	34.52
1.86965	34.52
1.88632	34.52
1.90298	34.52
1.91965	34.52
1.93632	34.52
1.95298	34.52
1.96965	34.52
1.98632	34.52
2.00298	34.51
2.01965	34.51
2.03632	34.52
2.05298	34.52
2.06965	34.52
2.08632	34.52
2.10298	34.52
2.11965	34.52
2.13632	34.52
2.15298	34.52
2.16965	34.52
2.18632	34.52
2.20298	34.52
2.21965	34.52
2.23632	34.52
2.25298	34.52
2.26965	34.52
2.28632	34.52
2.30298	34.52
2.31965	34.52
2.33632	34.52
2.35298	34.52
2.36965	34.51
2.38632	34.52
2.40298	34.52
2.41965	34.52
2.43632	34.52
2.45298	34.52
2.46965	34.52
2.48632	34.52
2.50298	34.64
2.51965	34.53
2.53632	34.53
2.55298	34.52
2.56965	34.52
2.58632	34.52
2.60298	34.52
2.61965	34.52
2.63632	34.52
2.65298	34.52
2.66965	34.52
2.68632	34.52
2.70298	34.52
2.71965	34.52
2.73632	34.52
2.75298	34.52
2.76965	34.52
2.78632	34.52
2.80298	34.52
2.81965	34.52
2.83632	34.52
2.85298	34.51
2.86965	34.52
2.88632	34.52
2.90298	34.52
2.91965	34.52
2.93632	34.51
2.95298	34.52
2.96965	34.52
2.98632	34.52
3.00298	34.52
3.01965	34.52
3.03632	34.53
3.05298	34.52
3.06965	34.52
3.08632	34.51
3.10298	34.51
3.11965	34.52
3.13632	34.51
3.15298	34.53
3.16965	34.52
3.18632	34.52
3.20298	34.53
3.21965	34.52
3.23632	34.52
3.25298	34.52
3.26965	34.52
3.28632	34.52
3.30298	34.51
3.31965	34.52
3.33632	34.52
3.35298	34.52
3.36965	34.51
3.38632	34.52
3.40298	34.52
3.41965	34.52
3.43632	34.51
3.45298	34.51
3.46965	34.52
3.48632	34.52
3.50298	34.52
3.51965	34.52
3.53632	34.52
3.55298	34.52
3.56965	34.52
3.58632	34.52
3.60298	34.52
3.61965	34.52
3.63632	34.51
3.65298	34.52
3.66965	34.52
3.68632	34.52
3.70298	34.52
3.71965	34.52
3.73632	34.52
3.75298	34.51
3.76965	34.52
3.78632	34.52
3.80298	34.52
3.81965	34.51
3.83632	34.52
3.85298	34.52
3.86965	34.52
3.88632	34.52
3.90298	34.52
3.91965	34.52
3.93632	34.52
3.95298	34.52
3.96965	34.52
3.98632	34.52

[Status Trace (Column Flow)]
Interval(msec)	1000
# of Points	240
Start Time(min)	0.003
End Time(min)	3.986
Intensity Units	
Intensity Multiplier	1
R.Time (min)	Intensity
0.00298	5.53
0.01965	5.32
0.03632	5.35
0.05298	5.61
0.06965	5.74
0.08632	5.55
0.10298	5.53
0.11965	5.53
0.13632	5.53
0.15298	5.53
0.16965	5.53
0.18632	5.53
0.20298	5.53
0.21965	5.53
0.23632	5.53
0.25298	5.53
0.26965	5.53
0.28632	5.53
0.30298	5.53
0.31965	5.53
0.33632	5.53
0.35298	5.53
0.36965	5.53
0.38632	5.53
0.40298	5.53
0.41965	5.53
0.43632	5.53
0.45298	5.53
0.46965	5.53
0.48632	5.53
0.50298	5.53
0.51965	5.53
0.53632	5.53
0.55298	5.53
0.56965	5.53
0.58632	5.53
0.60298	5.53
0.61965	5.53
0.63632	5.53
0.65298	5.53
0.66965	5.53
0.68632	5.53
0.70298	5.53
0.71965	5.53
0.73632	5.53
0.75298	5.53
0.76965	5.53
0.78632	5.53
0.80298	5.53
0.81965	5.53
0.83632	5.53
0.85298	5.53
0.86965	5.53
0.88632	5.53
0.90298	5.53
0.91965	5.53
0.93632	5.53
0.95298	5.53
0.96965	5.53
0.98632	5.53
1.00298	5.53
1.01965	5.53
1.03632	5.53
1.05298	5.53
1.06965	5.53
1.08632	5.53
1.10298	5.53
1.11965	5.53
1.13632	5.53
1.15298	5.53
1.16965	5.53
1.18632	5.53
1.20298	5.53
1.21965	5.53
1.23632	5.53
1.25298	5.53
1.26965	5.53
1.28632	5.53
1.30298	5.53
1.31965	5.53
1.33632	5.53
1.35298	5.53
1.36965	5.53
1.38632	5.53
1.40298	5.53
1.41965	5.53
1.43632	5.53
1.45298	5.53
1.46965	5.53
1.48632	5.53
1.50298	5.53
1.51965	5.53
1.53632	5.53
1.55298	5.53
1.56965	5.53
1.58632	5.53
1.60298	5.53
1.61965	5.53
1.63632	5.52
1.65298	5.52
1.66965	5.51
1.68632	5.49
1.70298	5.48
1.71965	5.47
1.73632	5.46
1.75298	5.45
1.76965	5.44
1.78632	5.43
1.80298	5.42
1.81965	5.41
1.83632	5.40
1.85298	5.39
1.86965	5.38
1.88632	5.37
1.90298	5.36
1.91965	5.35
1.93632	5.34
1.95298	5.33
1.96965	5.32
1.98632	5.31
2.00298	5.30
2.01965	5.29
2.03632	5.28
2.05298	5.27
2.06965	5.26
2.08632	5.25
2.10298	5.24
2.11965	5.24
2.13632	5.23
2.15298	5.22
2.16965	5.21
2.18632	5.20
2.20298	5.19
2.21965	5.18
2.23632	5.17
2.25298	5.16
2.26965	5.15
2.28632	5.14
2.30298	5.13
2.31965	5.12
2.33632	5.11
2.35298	5.10
2.36965	5.10
2.38632	5.09
2.40298	5.09
2.41965	5.09
2.43632	5.09
2.45298	5.09
2.46965	5.09
2.48632	5.09
2.50298	5.09
2.51965	5.09
2.53632	5.09
2.55298	5.09
2.56965	5.09
2.58632	5.09
2.60298	5.09
2.61965	5.09
2.63632	5.09
2.65298	5.09
2.66965	5.09
2.68632	5.09
2.70298	5.09
2.71965	5.09
2.73632	5.09
2.75298	5.09
2.76965	5.09
2.78632	5.09
2.80298	5.09
2.81965	5.09
2.83632	5.09
2.85298	5.09
2.86965	5.09
2.88632	5.09
2.90298	5.09
2.91965	5.09
2.93632	5.09
2.95298	5.09
2.96965	5.09
2.98632	5.09
3.00298	5.09
3.01965	5.09
3.03632	5.09
3.05298	5.09
3.06965	5.09
3.08632	5.09
3.10298	5.09
3.11965	5.09
3.13632	5.09
3.15298	5.09
3.16965	5.09
3.18632	5.09
3.20298	5.09
3.21965	5.09
3.23632	5.09
3.25298	5.09
3.26965	5.09
3.28632	5.09
3.30298	5.09
3.31965	5.09
3.33632	5.08
3.35298	5.09
3.36965	5.09
3.38632	5.09
3.40298	5.09
3.41965	5.09
3.43632	5.08
3.45298	5.08
3.46965	5.08
3.48632	5.08
3.50298	5.08
3.51965	5.08
3.53632	5.08
3.55298	5.08
3.56965	5.08
3.58632	5.09
3.60298	5.09
3.61965	5.09
3.63632	5.09
3.65298	5.09
3.66965	5.09
3.68632	5.09
3.70298	5.09
3.71965	5.09
3.73632	5.09
3.75298	5.09
3.76965	5.09
3.78632	5.09
3.80298	5.09
3.81965	5.09
3.83632	5.09
3.85298	5.09
3.86965	5.09
3.88632	5.09
3.90298	5.09
3.91965	5.09
3.93632	5.09
3.95298	5.09
3.96965	5.09
3.98632	5.09

[Status Trace (Linear Velocity)]
Interval(msec)	1000
# of Points	240
Start Time(min)	0.003
End Time(min)	3.986
Intensity Units	
Intensity Multiplier	1
R.Time (min)	Intensity
0.00298	39.02
0.01965	37.81
0.03632	38.02
0.05298	39.46
0.06965	40.19
0.08632	39.15
0.10298	39.00
0.11965	39.02
0.13632	39.02
0.15298	39.02
0.16965	39.02
0.18632	39.02
0.20298	39.02
0.21965	39.02
0.23632	39.02
0.25298	39.02
0.26965	39.02
0.28632	39.02
0.30298	39.02
0.31965	39.02
0.33632	39.02
0.35298	39.01
0.36965	39.01
0.38632	39.02
0.40298	39.02
0.41965	39.02
0.43632	39.02
0.45298	39.02
0.46965	39.02
0.48632	39.02
0.50298	39.02
0.51965	39.02
0.53632	39.02
0.55298	39.02
0.56965	39.02
0.58632	39.02
0.60298	39.02
0.61965	39.02
0.63632	39.02
0.65298	39.02
0.66965	39.02
0.68632	39.02
0.70298	39.02
0.71965	39.02
0.73632	39.02
0.75298	39.02
0.76965	39.02
0.78632	39.02
0.80298	39.02
0.81965	39.02
0.83632	39.02
0.85298	39.02
0.86965	39.02
0.88632	39.02
0.90298	39.02
0.91965	39.02
0.93632	39.02
0.95298	39.02
0.96965	39.02
0.98632	39.02
1.00298	39.02
1.01965	39.02
1.03632	39.02
1.05298	39.02
1.06965	39.02
1.08632	39.02
1.10298	39.02
1.11965	39.02
1.13632	39.02
1.15298	39.02
1.16965	39.02
1.18632	39.02
1.20298	39.02
1.21965	39.02
1.23632	39.01
1.25298	39.02
1.26965	39.02
1.28632	39.02
1.30298	39.02
1.31965	39.02
1.33632	39.02
1.35298	39.02
1.36965	39.02
1.38632	39.02
1.40298	39.02
1.41965	39.02
1.43632	39.02
1.45298	39.02
1.46965	39.02
1.48632	39.02
1.50298	39.02
1.51965	39.02
1.53632	39.02
1.55298	39.02
1.56965	39.02
1.58632	39.02
1.60298	39.02
1.61965	39.01
1.63632	38.99
1.65298	38.97
1.66965	38.94
1.68632	38.91
1.70298	38.87
1.71965	38.84
1.73632	38.81
1.75298	38.77
1.76965	38.74
1.78632	38.71
1.80298	38.68
1.81965	38.65
1.83632	38.62
1.85298	38.59
1.86965	38.56
1.88632	38.53
1.90298	38.50
1.91965	38.46
1.93632	38.44
1.95298	38.41
1.96965	38.37
1.98632	38.35
2.00298	38.31
2.01965	38.28
2.03632	38.25
2.05298	38.22
2.06965	38.19
2.08632	38.16
2.10298	38.13
2.11965	38.10
2.13632	38.08
2.15298	38.05
2.16965	38.02
2.18632	37.99
2.20298	37.96
2.21965	37.93
2.23632	37.90
2.25298	37.87
2.26965	37.84
2.28632	37.81
2.30298	37.78
2.31965	37.75
2.33632	37.72
2.35298	37.69
2.36965	37.67
2.38632	37.65
2.40298	37.65
2.41965	37.66
2.43632	37.66
2.45298	37.66
2.46965	37.66
2.48632	37.66
2.50298	37.64
2.51965	37.66
2.53632	37.65
2.55298	37.65
2.56965	37.65
2.58632	37.65
2.60298	37.65
2.61965	37.65
2.63632	37.65
2.65298	37.65
2.66965	37.65
2.68632	37.65
2.70298	37.65
2.71965	37.65
2.73632	37.65
2.75298	37.65
2.76965	37.65
2.78632	37.65
2.80298	37.65
2.81965	37.65
2.83632	37.65
2.85298	37.65
2.86965	37.65
2.88632	37.65
2.90298	37.64
2.91965	37.64
2.93632	37.64
2.95298	37.64
2.96965	37.64
2.98632	37.64
3.00298	37.64
3.01965	37.64
3.03632	37.64
3.05298	37.64
3.06965	37.64
3.08632	37.64
3.10298	37.64
3.11965	37.64
3.13632	37.64
3.15298	37.64
3.16965	37.64
3.18632	37.63
3.20298	37.63
3.21965	37.63
3.23632	37.63
3.25298	37.63
3.26965	37.63
3.28632	37.63
3.30298	37.63
3.31965	37.63
3.33632	37.63
3.35298	37.63
3.36965	37.63
3.38632	37.63
3.40298	37.63
3.41965	37.63
3.43632	37.63
3.45298	37.63
3.46965	37.63
3.48632	37.63
3.50298	37.63
3.51965	37.63
3.53632	37.63
3.55298	37.63
3.56965	37.63
3.58632	37.63
3.60298	37.63
3.61965	37.63
3.63632	37.63
3.65298	37.63
3.66965	37.63
3.68632	37.63
3.70298	37.63
3.71965	37.63
3.73632	37.63
3.75298	37.63
3.76965	37.64
3.78632	37.64
3.80298	37.64
3.81965	37.64
3.83632	37.64
3.85298	37.64
3.86965	37.64
3.88632	37.64
3.90298	37.64
3.91965	37.63
3.93632	37.63
3.95298	37.63
3.96965	37.63
3.98632	37.63

