[Header]
Application Name	LabSolutions
Version	5.110
Data File Name	C:\Users\User\Desktop\Junior\UIC Prairie Sampling\5.18.23\05182023_012.gcd
Output Date	6/5/2023
Output Time	2:17:24 PM

[File Information]
Type	Data File
Generated	5/24/2023 12:59:06 PM
Generated by	System Administrator
Modified	5/24/2023 1:06:10 PM
Modified by	System Administrator

[Sample Information]
Operator Name	System Administrator
Acquired	5/24/2023 1:02:09 PM
Sample Type	0:Unknown
Level	0
Sample Name	012
Sample ID	012
ISTD Amount1	1
ISTD Amount2	1
ISTD Amount3	1
ISTD Amount4	1
ISTD Amount5	1
ISTD Amount6	1
ISTD Amount7	1
ISTD Amount8	1
ISTD Amount9	1
ISTD Amount10	1
ISTD Amount11	1
ISTD Amount12	1
ISTD Amount13	1
ISTD Amount14	1
ISTD Amount15	1
ISTD Amount16	1
ISTD Amount17	1
ISTD Amount18	1
ISTD Amount19	1
ISTD Amount20	1
ISTD Amount21	1
ISTD Amount22	1
ISTD Amount23	1
ISTD Amount24	1
ISTD Amount25	1
ISTD Amount26	1
ISTD Amount27	1
ISTD Amount28	1
ISTD Amount29	1
ISTD Amount30	1
ISTD Amount31	1
ISTD Amount32	1
Sample Amount	1
Dilution Factor	1
Vial#	11
Injection Volume	1
Injection Count	1
Bar Code	

[Original Files]
Data File	C:\Users\User\Desktop\Junior\UIC Prairie Sampling\5.18.23\05182023_012.gcd
Method File	C:\LabSolutions\Data\GHG_4min_2022\ghg3_togas_w_acet_4 min_new_int.gcm
Batch File	C:\LabSolutions\Data\AutoSamplerTesting\05182023.gcb
Report Format File	c:\LabSolutions\System\DEFAULT.lsr

[File Description]


[Configuration]
Instrument Name	C0B7VH3-Instrument1
Instrument #	1
Line #	1
# of Detectors	3
Detector ID	DET#1	DET#2	DET#3
Detector Name	FID	PTCD	ECD
# of Channels	1	1	1

[Peak Table(Ch1)]
# of Peaks	3
Peak#	R.Time	I.Time	F.Time	Area	Height	A/H	Conc.	Mark	ID#	Name	k'	Plate #	Plate Ht.	Tailing	Resolution	Sep.Factor	Area Ratio	Height Ratio	Conc. %	Norm Conc.
1	1.472	1.432	1.527	5637	2752	2.049	0.000	   	1	CO	0.000	9461	15.854	1.200	0.000	0.000	0	0	0.000	0.000
2	1.564	1.527	1.611	4515	2309	1.956	22.012	 V 	2	CH4	0.062	11497	13.047	1.146	1.542	0.000	0	0	9.611	9.611
3	1.993	1.941	2.403	1074138	511132	2.101	207.006	   	3	CO2	0.354	17492	8.575	1.173	7.234	5.680	0	0	90.389	90.389

[Peak Table(Ch2)]
# of Peaks	0

[Peak Table(Ch3)]
# of Peaks	5
Peak#	R.Time	I.Time	F.Time	Area	Height	A/H	Conc.	Mark	ID#	Name	k'	Plate #	Plate Ht.	Tailing	Resolution	Sep.Factor	Area Ratio	Height Ratio	Conc. %	Norm Conc.
1	2.458	2.440	2.506	736	279	2.639	0.000	   			0.000	15325	9.788	0.000	0.000	0.000	0	0	0.000	0.000
2	2.517	2.506	2.572	363	138	2.636	0.000	 V 			0.024	5863	25.583	0.000	0.556	0.000	0	0	0.000	0.000
3	2.616	2.572	2.667	381	107	3.542	0.000	 V 			0.064	8919	16.818	0.000	0.817	2.688	0	0	0.000	0.000
4	2.785	2.678	2.832	4022	592	6.788	0.059	   	1	N2O	0.133	775	193.488	0.000	0.660	2.070	0	0	10.190	10.190
5	2.891	2.832	3.921	35443	5091	6.962	0.524	 V 	1	N2O	0.176	11673	12.850	0.000	0.419	1.326	0	0	89.810	89.810

[Compound Results(Ch1)]
# of IDs	6
ID#	Name	R.Time	Area	Height	Conc.	Curve	3rd	2nd	1st	Constant	Area Ratio	Height Ratio	Conc. %	Norm Conc.
1	CO	1.472	5637	2752	0.000	Linear	0.000000e+00	0.000000e+00	0.000000e+00	0.000000e+00	0	0	0.000	0.000
2	CH4	1.564	4515	2309	22.012	Linear	0.000000e+00	0.000000e+00	2.051179e+002	0.000000e+00	0	0	9.611	9.611
3	CO2	1.993	1074138	511132	207.006	Linear	0.000000e+00	0.000000e+00	5.188919e+003	0.000000e+00	0	0	90.389	90.389
4	Ethylene	0.000	0	0	0.000	Linear	0.000000e+00	0.000000e+00	0.000000e+00	0.000000e+00	0	0	0.000	0.000
5	Acetylene	0.000	0	0	0.000	Linear	0.000000e+00	0.000000e+00	0.000000e+00	0.000000e+00	0	0	0.000	0.000
6	Ethane	0.000	0	0	0.000	Linear	0.000000e+00	0.000000e+00	0.000000e+00	0.000000e+00	0	0	0.000	0.000

[Compound Results(Ch2)]
# of IDs	5
ID#	Name	R.Time	Area	Height	Conc.	Curve	3rd	2nd	1st	Constant	Area Ratio	Height Ratio	Conc. %	Norm Conc.
1	Hydrogen	0.000	0	0	0.000	Linear	0.000000e+00	0.000000e+00	0.000000e+00	0.000000e+00	0	0	0.000	0.000
2	Oxygen	0.000	0	0	0.000	Linear	0.000000e+00	0.000000e+00	0.000000e+00	0.000000e+00	0	0	0.000	0.000
3	Nitrogen	0.000	0	0	0.000	Linear	0.000000e+00	0.000000e+00	0.000000e+00	0.000000e+00	0	0	0.000	0.000
4	Methane	0.000	0	0	0.000	Linear	0.000000e+00	0.000000e+00	0.000000e+00	0.000000e+00	0	0	0.000	0.000
5	Carbon Monoxide	0.000	0	0	0.000	Linear	0.000000e+00	0.000000e+00	0.000000e+00	0.000000e+00	0	0	0.000	0.000

[Compound Results(Ch3)]
# of IDs	2
ID#	Name	R.Time	Area	Height	Conc.	Curve	3rd	2nd	1st	Constant	Area Ratio	Height Ratio	Conc. %	Norm Conc.
1	N2O	2.891	39465	5683	0.584	Linear	0.000000e+00	0.000000e+00	6.759880e+004	0.000000e+00	0	0	100.000	100.000
2	SF6	0.000	0	0	0.000	Linear	0.000000e+00	0.000000e+00	0.000000e+00	0.000000e+00	0	0	0.000	0.000

[Group Results(Ch1)]
# of Groups	0

[Group Results(Ch2)]
# of Groups	0

[Group Results(Ch3)]
# of Groups	0

[Chromatogram (Ch1)]
Interval(msec)	220
# of Points	1091
Start Time(min)	0.002
End Time(min)	3.998
R.Time (min)	Intensity
0.00167	-34
0.00533	-35
0.00900	-33
0.01267	-29
0.01633	-26
0.02000	-29
0.02367	-33
0.02733	-33
0.03100	-29
0.03467	-25
0.03833	-24
0.04200	-26
0.04567	-27
0.04933	-27
0.05300	-27
0.05667	-26
0.06033	-25
0.06400	-24
0.06767	-23
0.07133	-22
0.07500	-20
0.07867	-19
0.08233	-18
0.08600	-21
0.08967	-29
0.09333	-37
0.09700	-45
0.10067	-49
0.10433	-48
0.10800	-41
0.11167	-28
0.11533	-15
0.11900	-7
0.12267	-6
0.12633	-7
0.13000	-6
0.13367	-6
0.13733	-6
0.14100	-8
0.14467	-14
0.14833	-23
0.15200	-33
0.15567	-41
0.15933	-44
0.16300	-47
0.16667	-49
0.17033	-47
0.17400	-47
0.17767	-51
0.18133	-54
0.18500	-52
0.18867	-46
0.19233	-37
0.19600	-31
0.19967	-28
0.20333	-24
0.20700	-20
0.21067	-19
0.21433	-18
0.21800	-21
0.22167	-26
0.22533	-31
0.22900	-34
0.23267	-32
0.23633	-26
0.24000	-19
0.24367	-15
0.24733	-17
0.25100	-19
0.25467	-19
0.25833	-20
0.26200	-23
0.26567	-29
0.26933	-33
0.27300	-33
0.27667	-34
0.28033	-35
0.28400	-36
0.28767	-32
0.29133	-25
0.29500	-15
0.29867	-5
0.30233	-2
0.30600	-3
0.30967	-8
0.31333	-16
0.31700	-22
0.32067	-25
0.32433	-30
0.32800	-35
0.33167	-38
0.33533	-38
0.33900	-36
0.34267	-34
0.34633	-35
0.35000	-34
0.35367	-30
0.35733	-27
0.36100	-26
0.36467	-23
0.36833	-22
0.37200	-23
0.37567	-24
0.37933	-30
0.38300	-39
0.38667	-48
0.39033	-51
0.39400	-47
0.39767	-42
0.40133	-37
0.40500	-29
0.40867	-27
0.41233	-30
0.41600	-31
0.41967	-27
0.42333	-24
0.42700	-25
0.43067	-30
0.43433	-38
0.43800	-42
0.44167	-40
0.44533	-34
0.44900	-26
0.45267	-18
0.45633	-14
0.46000	-17
0.46367	-22
0.46733	-23
0.47100	-22
0.47467	-23
0.47833	-25
0.48200	-29
0.48567	-30
0.48933	-26
0.49300	-17
0.49667	-5
0.50033	4
0.50400	2
0.50767	-8
0.51133	-19
0.51500	-28
0.51867	-36
0.52233	-41
0.52600	-44
0.52967	-46
0.53333	-45
0.53700	-47
0.54067	-49
0.54433	-51
0.54800	-52
0.55167	-51
0.55533	-49
0.55900	-46
0.56267	-43
0.56633	-38
0.57000	-32
0.57367	-30
0.57733	-31
0.58100	-28
0.58467	-22
0.58833	-18
0.59200	-19
0.59567	-22
0.59933	-24
0.60300	-26
0.60667	-31
0.61033	-35
0.61400	-37
0.61767	-36
0.62133	-41
0.62500	-49
0.62867	-54
0.63233	-56
0.63600	-56
0.63967	-55
0.64333	-53
0.64700	-53
0.65067	-53
0.65433	-50
0.65800	-43
0.66167	-40
0.66533	-36
0.66900	-30
0.67267	-30
0.67633	-36
0.68000	-42
0.68367	-46
0.68733	-48
0.69100	-48
0.69467	-46
0.69833	-45
0.70200	-44
0.70567	-44
0.70933	-44
0.71300	-45
0.71667	-43
0.72033	-37
0.72400	-33
0.72767	-31
0.73133	-27
0.73500	-23
0.73867	-25
0.74233	-32
0.74600	-39
0.74967	-42
0.75333	-40
0.75700	-40
0.76067	-41
0.76433	-44
0.76800	-47
0.77167	-48
0.77533	-49
0.77900	-52
0.78267	-53
0.78633	-52
0.79000	-51
0.79367	-53
0.79733	-53
0.80100	-53
0.80467	-52
0.80833	-49
0.81200	-45
0.81567	-42
0.81933	-45
0.82300	-47
0.82667	-49
0.83033	-48
0.83400	-44
0.83767	-42
0.84133	-41
0.84500	-38
0.84867	-37
0.85233	-37
0.85600	-38
0.85967	-37
0.86333	-34
0.86700	-33
0.87067	-32
0.87433	-32
0.87800	-35
0.88167	-40
0.88533	-46
0.88900	-48
0.89267	-46
0.89633	-44
0.90000	-45
0.90367	-46
0.90733	-45
0.91100	-44
0.91467	-43
0.91833	-44
0.92200	-43
0.92567	-37
0.92933	-31
0.93300	-29
0.93667	-35
0.94033	-46
0.94400	-56
0.94767	-62
0.95133	-63
0.95500	-63
0.95867	-62
0.96233	-62
0.96600	-59
0.96967	-52
0.97333	-43
0.97700	-36
0.98067	-33
0.98433	-35
0.98800	-40
0.99167	-44
0.99533	-45
0.99900	-45
1.00267	-41
1.00633	-37
1.01000	-32
1.01367	-27
1.01733	-24
1.02100	-27
1.02467	-32
1.02833	-32
1.03200	-31
1.03567	-32
1.03933	-35
1.04300	-35
1.04667	-33
1.05033	-34
1.05400	-39
1.05767	-46
1.06133	-54
1.06500	-59
1.06867	-61
1.07233	-57
1.07600	-49
1.07967	-42
1.08333	-37
1.08700	-36
1.09067	-41
1.09433	-51
1.09800	-56
1.10167	-60
1.10533	-62
1.10900	-59
1.11267	-58
1.11633	-61
1.12000	-64
1.12367	-64
1.12733	-61
1.13100	-56
1.13467	-51
1.13833	-49
1.14200	-48
1.14567	-48
1.14933	-53
1.15300	-60
1.15667	-67
1.16033	-70
1.16400	-69
1.16767	-64
1.17133	-53
1.17500	-43
1.17867	-40
1.18233	-40
1.18600	-42
1.18967	-49
1.19333	-57
1.19700	-64
1.20067	-71
1.20433	-74
1.20800	-72
1.21167	-69
1.21533	-65
1.21900	-61
1.22267	-61
1.22633	-61
1.23000	-59
1.23367	-52
1.23733	-43
1.24100	-39
1.24467	-40
1.24833	-47
1.25200	-55
1.25567	-59
1.25933	-64
1.26300	-66
1.26667	-68
1.27033	-74
1.27400	-79
1.27767	-80
1.28133	-81
1.28500	-78
1.28867	-71
1.29233	-63
1.29600	-54
1.29967	-50
1.30333	-53
1.30700	-58
1.31067	-61
1.31433	-65
1.31800	-68
1.32167	-69
1.32533	-71
1.32900	-72
1.33267	-71
1.33633	-67
1.34000	-59
1.34367	-49
1.34733	-41
1.35100	-37
1.35467	-41
1.35833	-48
1.36200	-55
1.36567	-60
1.36933	-59
1.37300	-57
1.37667	-56
1.38033	-56
1.38400	-56
1.38767	-56
1.39133	-58
1.39500	-63
1.39867	-69
1.40233	-78
1.40600	-84
1.40967	-85
1.41333	-79
1.41700	-68
1.42067	-63
1.42433	-63
1.42800	-63
1.43167	-58
1.43533	-38
1.43900	3
1.44267	55
1.44633	168
1.45000	457
1.45367	925
1.45733	1455
1.46100	1940
1.46467	2328
1.46833	2591
1.47200	2691
1.47567	2600
1.47933	2326
1.48300	1931
1.48667	1500
1.49033	1100
1.49400	772
1.49767	523
1.50133	343
1.50500	217
1.50867	129
1.51233	68
1.51600	25
1.51967	-5
1.52333	-25
1.52700	-34
1.53067	-32
1.53433	-0
1.53800	121
1.54167	388
1.54533	789
1.54900	1237
1.55267	1644
1.55633	1965
1.56000	2175
1.56367	2242
1.56733	2136
1.57100	1866
1.57467	1495
1.57833	1110
1.58200	775
1.58567	519
1.58933	333
1.59300	196
1.59667	99
1.60033	33
1.60400	-13
1.60767	-47
1.61133	-70
1.61500	-81
1.61867	-81
1.62233	-79
1.62600	-78
1.62967	-79
1.63333	-78
1.63700	-77
1.64067	-78
1.64433	-80
1.64800	-79
1.65167	-79
1.65533	-79
1.65900	-79
1.66267	-76
1.66633	-71
1.67000	-64
1.67367	-62
1.67733	-68
1.68100	-78
1.68467	-90
1.68833	-100
1.69200	-102
1.69567	-102
1.69933	-102
1.70300	-101
1.70667	-96
1.71033	-90
1.71400	-83
1.71767	-76
1.72133	-73
1.72500	-75
1.72867	-78
1.73233	-84
1.73600	-91
1.73967	-96
1.74333	-100
1.74700	-103
1.75067	-103
1.75433	-102
1.75800	-100
1.76167	-98
1.76533	-93
1.76900	-88
1.77267	-84
1.77633	-82
1.78000	-79
1.78367	-77
1.78733	-77
1.79100	-77
1.79467	-75
1.79833	-73
1.80200	-71
1.80567	-71
1.80933	-74
1.81300	-77
1.81667	-77
1.82033	-75
1.82400	-74
1.82767	-72
1.83133	-71
1.83500	-69
1.83867	-71
1.84233	-80
1.84600	-86
1.84967	-91
1.85333	-98
1.85700	-104
1.86067	-110
1.86433	-111
1.86800	-108
1.87167	-103
1.87533	-100
1.87900	-97
1.88267	-97
1.88633	-99
1.89000	-100
1.89367	-98
1.89733	-92
1.90100	-86
1.90467	-82
1.90833	-80
1.91200	-77
1.91567	-73
1.91933	-73
1.92300	-74
1.92667	-74
1.93033	-76
1.93400	-77
1.93767	-78
1.94133	-73
1.94500	-60
1.94867	1
1.95233	360
1.95600	2100
1.95967	8495
1.96333	26312
1.96700	64616
1.97067	129297
1.97433	216888
1.97800	314209
1.98167	404561
1.98533	473406
1.98900	510645
1.99267	511092
1.99633	476050
2.00000	413873
2.00367	337796
2.00733	261163
2.01100	193404
2.01467	138814
2.01833	97679
2.02200	68104
2.02567	47504
2.02933	33434
2.03300	23920
2.03667	17504
2.04033	13159
2.04400	10180
2.04767	8102
2.05133	6621
2.05500	5536
2.05867	4721
2.06233	4098
2.06600	3615
2.06967	3234
2.07333	2925
2.07700	2669
2.08067	2451
2.08433	2261
2.08800	2095
2.09167	1949
2.09533	1821
2.09900	1705
2.10267	1601
2.10633	1511
2.11000	1434
2.11367	1364
2.11733	1295
2.12100	1228
2.12467	1169
2.12833	1116
2.13200	1066
2.13567	1019
2.13933	974
2.14300	930
2.14667	887
2.15033	847
2.15400	813
2.15767	782
2.16133	751
2.16500	720
2.16867	691
2.17233	668
2.17600	649
2.17967	634
2.18333	622
2.18700	611
2.19067	600
2.19433	589
2.19800	573
2.20167	553
2.20533	533
2.20900	511
2.21267	489
2.21633	472
2.22000	458
2.22367	446
2.22733	437
2.23100	431
2.23467	429
2.23833	428
2.24200	427
2.24567	421
2.24933	412
2.25300	401
2.25667	393
2.26033	387
2.26400	381
2.26767	373
2.27133	361
2.27500	347
2.27867	334
2.28233	325
2.28600	318
2.28967	312
2.29333	307
2.29700	302
2.30067	298
2.30433	299
2.30800	301
2.31167	301
2.31533	295
2.31900	290
2.32267	288
2.32633	288
2.33000	286
2.33367	283
2.33733	277
2.34100	271
2.34467	263
2.34833	258
2.35200	257
2.35567	258
2.35933	260
2.36300	262
2.36667	260
2.37033	256
2.37400	256
2.37767	259
2.38133	260
2.38500	257
2.38867	251
2.39233	241
2.39600	232
2.39967	227
2.40333	225
2.40700	226
2.41067	227
2.41433	226
2.41800	225
2.42167	226
2.42533	228
2.42900	232
2.43267	236
2.43633	238
2.44000	237
2.44367	238
2.44733	237
2.45100	231
2.45467	225
2.45833	222
2.46200	218
2.46567	219
2.46933	222
2.47300	224
2.47667	220
2.48033	216
2.48400	215
2.48767	218
2.49133	223
2.49500	227
2.49867	228
2.50233	228
2.50600	227
2.50967	230
2.51333	235
2.51700	241
2.52067	245
2.52433	245
2.52800	241
2.53167	238
2.53533	237
2.53900	235
2.54267	234
2.54633	235
2.55000	237
2.55367	239
2.55733	240
2.56100	241
2.56467	237
2.56833	233
2.57200	230
2.57567	226
2.57933	225
2.58300	227
2.58667	232
2.59033	235
2.59400	236
2.59767	241
2.60133	247
2.60500	250
2.60867	250
2.61233	250
2.61600	250
2.61967	251
2.62333	250
2.62700	246
2.63067	240
2.63433	235
2.63800	235
2.64167	234
2.64533	233
2.64900	232
2.65267	232
2.65633	234
2.66000	239
2.66367	246
2.66733	253
2.67100	260
2.67467	266
2.67833	264
2.68200	261
2.68567	258
2.68933	258
2.69300	262
2.69667	269
2.70033	275
2.70400	276
2.70767	273
2.71133	268
2.71500	260
2.71867	247
2.72233	238
2.72600	234
2.72967	234
2.73333	238
2.73700	246
2.74067	256
2.74433	265
2.74800	270
2.75167	271
2.75533	270
2.75900	270
2.76267	271
2.76633	271
2.77000	271
2.77367	271
2.77733	272
2.78100	274
2.78467	277
2.78833	282
2.79200	286
2.79567	288
2.79933	288
2.80300	287
2.80667	287
2.81033	287
2.81400	288
2.81767	294
2.82133	301
2.82500	311
2.82867	317
2.83233	315
2.83600	309
2.83967	308
2.84333	310
2.84700	308
2.85067	304
2.85433	298
2.85800	295
2.86167	297
2.86533	301
2.86900	306
2.87267	311
2.87633	312
2.88000	307
2.88367	305
2.88733	308
2.89100	310
2.89467	310
2.89833	310
2.90200	308
2.90567	307
2.90933	309
2.91300	311
2.91667	315
2.92033	321
2.92400	323
2.92767	326
2.93133	332
2.93500	330
2.93867	321
2.94233	311
2.94600	304
2.94967	304
2.95333	308
2.95700	311
2.96067	315
2.96433	318
2.96800	325
2.97167	338
2.97533	350
2.97900	354
2.98267	349
2.98633	340
2.99000	332
2.99367	329
2.99733	329
3.00100	326
3.00467	318
3.00833	308
3.01200	304
3.01567	309
3.01933	321
3.02300	332
3.02667	334
3.03033	327
3.03400	318
3.03767	314
3.04133	315
3.04500	319
3.04867	324
3.05233	328
3.05600	332
3.05967	335
3.06333	338
3.06700	340
3.07067	342
3.07433	346
3.07800	348
3.08167	349
3.08533	352
3.08900	351
3.09267	345
3.09633	337
3.10000	328
3.10367	323
3.10733	320
3.11100	316
3.11467	313
3.11833	316
3.12200	326
3.12567	337
3.12933	345
3.13300	348
3.13667	350
3.14033	349
3.14400	345
3.14767	341
3.15133	338
3.15500	333
3.15867	326
3.16233	321
3.16600	318
3.16967	320
3.17333	325
3.17700	334
3.18067	343
3.18433	347
3.18800	346
3.19167	343
3.19533	338
3.19900	333
3.20267	327
3.20633	319
3.21000	317
3.21367	317
3.21733	317
3.22100	318
3.22467	322
3.22833	328
3.23200	336
3.23567	343
3.23933	349
3.24300	353
3.24667	353
3.25033	352
3.25400	349
3.25767	344
3.26133	336
3.26500	330
3.26867	327
3.27233	326
3.27600	327
3.27967	333
3.28333	338
3.28700	338
3.29067	331
3.29433	321
3.29800	315
3.30167	311
3.30533	310
3.30900	313
3.31267	321
3.31633	327
3.32000	333
3.32367	338
3.32733	342
3.33100	342
3.33467	338
3.33833	333
3.34200	333
3.34567	339
3.34933	346
3.35300	347
3.35667	344
3.36033	342
3.36400	340
3.36767	333
3.37133	326
3.37500	322
3.37867	320
3.38233	322
3.38600	326
3.38967	330
3.39333	333
3.39700	334
3.40067	332
3.40433	331
3.40800	334
3.41167	338
3.41533	340
3.41900	341
3.42267	338
3.42633	333
3.43000	327
3.43367	320
3.43733	318
3.44100	316
3.44467	314
3.44833	312
3.45200	309
3.45567	309
3.45933	308
3.46300	307
3.46667	306
3.47033	308
3.47400	314
3.47767	319
3.48133	324
3.48500	332
3.48867	335
3.49233	336
3.49600	332
3.49967	329
3.50333	329
3.50700	331
3.51067	334
3.51433	342
3.51800	347
3.52167	341
3.52533	329
3.52900	320
3.53267	315
3.53633	311
3.54000	307
3.54367	306
3.54733	308
3.55100	311
3.55467	313
3.55833	317
3.56200	321
3.56567	322
3.56933	317
3.57300	311
3.57667	306
3.58033	307
3.58400	313
3.58767	319
3.59133	324
3.59500	328
3.59867	327
3.60233	319
3.60600	308
3.60967	298
3.61333	287
3.61700	277
3.62067	273
3.62433	274
3.62800	282
3.63167	295
3.63533	305
3.63900	307
3.64267	304
3.64633	298
3.65000	293
3.65367	294
3.65733	296
3.66100	299
3.66467	301
3.66833	302
3.67200	301
3.67567	300
3.67933	297
3.68300	293
3.68667	290
3.69033	290
3.69400	291
3.69767	291
3.70133	289
3.70500	287
3.70867	286
3.71233	286
3.71600	287
3.71967	286
3.72333	284
3.72700	281
3.73067	280
3.73433	281
3.73800	284
3.74167	288
3.74533	292
3.74900	294
3.75267	290
3.75633	286
3.76000	281
3.76367	277
3.76733	274
3.77100	273
3.77467	272
3.77833	271
3.78200	273
3.78567	276
3.78933	279
3.79300	281
3.79667	283
3.80033	284
3.80400	284
3.80767	286
3.81133	291
3.81500	296
3.81867	299
3.82233	297
3.82600	291
3.82967	285
3.83333	281
3.83700	277
3.84067	271
3.84433	265
3.84800	261
3.85167	258
3.85533	258
3.85900	263
3.86267	266
3.86633	266
3.87000	267
3.87367	270
3.87733	277
3.88100	284
3.88467	285
3.88833	279
3.89200	273
3.89567	269
3.89933	266
3.90300	263
3.90667	262
3.91033	266
3.91400	273
3.91767	276
3.92133	278
3.92500	274
3.92867	267
3.93233	263
3.93600	261
3.93967	260
3.94333	260
3.94700	263
3.95067	268
3.95433	268
3.95800	264
3.96167	262
3.96533	261
3.96900	263
3.97267	266
3.97633	268
3.98000	268
3.98367	267
3.98733	267
3.99100	270
3.99467	272
3.99833	276

[Chromatogram (Ch2)]
Interval(msec)	220
# of Points	1091
Start Time(min)	0.002
End Time(min)	3.998
R.Time (min)	Intensity
0.00167	0
0.00533	0
0.00900	1
0.01267	1
0.01633	1
0.02000	1
0.02367	1
0.02733	0
0.03100	-0
0.03467	-1
0.03833	-1
0.04200	-1
0.04567	-2
0.04933	-2
0.05300	-2
0.05667	-2
0.06033	-2
0.06400	-2
0.06767	-2
0.07133	-2
0.07500	-1
0.07867	-1
0.08233	-1
0.08600	-0
0.08967	0
0.09333	1
0.09700	1
0.10067	1
0.10433	1
0.10800	1
0.11167	1
0.11533	1
0.11900	2
0.12267	1
0.12633	1
0.13000	1
0.13367	1
0.13733	1
0.14100	1
0.14467	1
0.14833	2
0.15200	2
0.15567	2
0.15933	2
0.16300	2
0.16667	2
0.17033	2
0.17400	2
0.17767	2
0.18133	2
0.18500	2
0.18867	2
0.19233	2
0.19600	1
0.19967	1
0.20333	0
0.20700	-0
0.21067	-1
0.21433	-1
0.21800	-1
0.22167	-2
0.22533	-2
0.22900	-2
0.23267	-2
0.23633	-2
0.24000	-2
0.24367	-2
0.24733	-2
0.25100	-2
0.25467	-2
0.25833	-1
0.26200	-1
0.26567	-1
0.26933	-0
0.27300	-0
0.27667	0
0.28033	0
0.28400	0
0.28767	0
0.29133	0
0.29500	-0
0.29867	-0
0.30233	-0
0.30600	-0
0.30967	-0
0.31333	-1
0.31700	-1
0.32067	-1
0.32433	-1
0.32800	-1
0.33167	-2
0.33533	-2
0.33900	-2
0.34267	-2
0.34633	-2
0.35000	-1
0.35367	-1
0.35733	-1
0.36100	-1
0.36467	-1
0.36833	-1
0.37200	-1
0.37567	-1
0.37933	-1
0.38300	-1
0.38667	-1
0.39033	-1
0.39400	-1
0.39767	-1
0.40133	-1
0.40500	-1
0.40867	-1
0.41233	-1
0.41600	-1
0.41967	-1
0.42333	-1
0.42700	-1
0.43067	-1
0.43433	-2
0.43800	-2
0.44167	-2
0.44533	-2
0.44900	-2
0.45267	-2
0.45633	-2
0.46000	-2
0.46367	-3
0.46733	-4
0.47100	-4
0.47467	-4
0.47833	-5
0.48200	-5
0.48567	-5
0.48933	-5
0.49300	-4
0.49667	-4
0.50033	-3
0.50400	-3
0.50767	-2
0.51133	-2
0.51500	-2
0.51867	-1
0.52233	-0
0.52600	0
0.52967	1
0.53333	1
0.53700	1
0.54067	2
0.54433	2
0.54800	2
0.55167	3
0.55533	3
0.55900	3
0.56267	3
0.56633	3
0.57000	3
0.57367	3
0.57733	2
0.58100	2
0.58467	1
0.58833	1
0.59200	0
0.59567	-0
0.59933	-0
0.60300	-1
0.60667	-1
0.61033	-1
0.61400	-1
0.61767	-1
0.62133	-1
0.62500	-0
0.62867	-0
0.63233	-0
0.63600	-0
0.63967	-0
0.64333	-0
0.64700	-0
0.65067	-1
0.65433	-1
0.65800	-1
0.66167	-1
0.66533	-1
0.66900	-0
0.67267	-0
0.67633	-0
0.68000	-0
0.68367	-0
0.68733	-0
0.69100	-0
0.69467	-1
0.69833	-1
0.70200	-1
0.70567	-1
0.70933	-1
0.71300	-1
0.71667	-1
0.72033	-0
0.72400	-0
0.72767	-0
0.73133	-0
0.73500	-0
0.73867	-0
0.74233	0
0.74600	0
0.74967	1
0.75333	1
0.75700	1
0.76067	1
0.76433	1
0.76800	1
0.77167	1
0.77533	1
0.77900	0
0.78267	-0
0.78633	-0
0.79000	-1
0.79367	-1
0.79733	-1
0.80100	-1
0.80467	-1
0.80833	-1
0.81200	-1
0.81567	-1
0.81933	-2
0.82300	-2
0.82667	-2
0.83033	-2
0.83400	-2
0.83767	-2
0.84133	-2
0.84500	-2
0.84867	-2
0.85233	-2
0.85600	-2
0.85967	-2
0.86333	-2
0.86700	-2
0.87067	-2
0.87433	-2
0.87800	-2
0.88167	-2
0.88533	-2
0.88900	-2
0.89267	-2
0.89633	-2
0.90000	-2
0.90367	-2
0.90733	-2
0.91100	-2
0.91467	-2
0.91833	-2
0.92200	-2
0.92567	-2
0.92933	-2
0.93300	-3
0.93667	-3
0.94033	-3
0.94400	-3
0.94767	-3
0.95133	-3
0.95500	-3
0.95867	-3
0.96233	-3
0.96600	-3
0.96967	-2
0.97333	-2
0.97700	-2
0.98067	-2
0.98433	-2
0.98800	-2
0.99167	-1
0.99533	-1
0.99900	-1
1.00267	-1
1.00633	-1
1.01000	-0
1.01367	-0
1.01733	-0
1.02100	-0
1.02467	-0
1.02833	-0
1.03200	-0
1.03567	-0
1.03933	-0
1.04300	-0
1.04667	-0
1.05033	-0
1.05400	-0
1.05767	-0
1.06133	-1
1.06500	-1
1.06867	-1
1.07233	-1
1.07600	-1
1.07967	-1
1.08333	-1
1.08700	-1
1.09067	-1
1.09433	-1
1.09800	-1
1.10167	-1
1.10533	-0
1.10900	-0
1.11267	-0
1.11633	-0
1.12000	-0
1.12367	-0
1.12733	-0
1.13100	-0
1.13467	-0
1.13833	-0
1.14200	-1
1.14567	-1
1.14933	-1
1.15300	-1
1.15667	-1
1.16033	-1
1.16400	-1
1.16767	-1
1.17133	-1
1.17500	-1
1.17867	-1
1.18233	-2
1.18600	-2
1.18967	-3
1.19333	-3
1.19700	-3
1.20067	-3
1.20433	-3
1.20800	-3
1.21167	-3
1.21533	-3
1.21900	-3
1.22267	-3
1.22633	-3
1.23000	-3
1.23367	-4
1.23733	-4
1.24100	-4
1.24467	-4
1.24833	-4
1.25200	-3
1.25567	-3
1.25933	-3
1.26300	-3
1.26667	-3
1.27033	-3
1.27400	-3
1.27767	-3
1.28133	-3
1.28500	-3
1.28867	-3
1.29233	-3
1.29600	-3
1.29967	-3
1.30333	-3
1.30700	-3
1.31067	-3
1.31433	-3
1.31800	-3
1.32167	-4
1.32533	-4
1.32900	-4
1.33267	-4
1.33633	-4
1.34000	-4
1.34367	-5
1.34733	-5
1.35100	-5
1.35467	-6
1.35833	-6
1.36200	-6
1.36567	-6
1.36933	-5
1.37300	-5
1.37667	-4
1.38033	-4
1.38400	-4
1.38767	-4
1.39133	-3
1.39500	-3
1.39867	-3
1.40233	-3
1.40600	-3
1.40967	-3
1.41333	-3
1.41700	-3
1.42067	-3
1.42433	-2
1.42800	-2
1.43167	-2
1.43533	-1
1.43900	-1
1.44267	-0
1.44633	-0
1.45000	0
1.45367	0
1.45733	0
1.46100	-0
1.46467	-0
1.46833	-1
1.47200	-1
1.47567	-1
1.47933	-1
1.48300	-1
1.48667	-1
1.49033	-1
1.49400	-1
1.49767	-1
1.50133	-1
1.50500	-2
1.50867	-2
1.51233	-2
1.51600	-2
1.51967	-2
1.52333	-2
1.52700	-2
1.53067	-3
1.53433	-3
1.53800	-3
1.54167	-3
1.54533	-3
1.54900	-4
1.55267	-4
1.55633	-4
1.56000	-5
1.56367	-5
1.56733	-5
1.57100	-5
1.57467	-5
1.57833	-5
1.58200	-5
1.58567	-5
1.58933	-5
1.59300	-5
1.59667	-5
1.60033	-6
1.60400	-7
1.60767	-8
1.61133	-9
1.61500	-11
1.61867	-13
1.62233	-15
1.62600	-17
1.62967	-20
1.63333	-23
1.63700	-26
1.64067	-29
1.64433	-32
1.64800	-35
1.65167	-39
1.65533	-42
1.65900	-45
1.66267	-49
1.66633	-53
1.67000	-57
1.67367	-62
1.67733	-67
1.68100	-72
1.68467	-77
1.68833	-81
1.69200	-84
1.69567	-88
1.69933	-90
1.70300	-92
1.70667	-94
1.71033	-95
1.71400	-96
1.71767	-98
1.72133	-99
1.72500	-100
1.72867	-100
1.73233	-101
1.73600	-102
1.73967	-102
1.74333	-102
1.74700	-102
1.75067	-102
1.75433	-103
1.75800	-103
1.76167	-104
1.76533	-104
1.76900	-104
1.77267	-104
1.77633	-105
1.78000	-105
1.78367	-105
1.78733	-106
1.79100	-106
1.79467	-106
1.79833	-106
1.80200	-106
1.80567	-106
1.80933	-106
1.81300	-106
1.81667	-107
1.82033	-107
1.82400	-108
1.82767	-108
1.83133	-108
1.83500	-108
1.83867	-107
1.84233	-107
1.84600	-107
1.84967	-107
1.85333	-107
1.85700	-107
1.86067	-107
1.86433	-107
1.86800	-107
1.87167	-107
1.87533	-107
1.87900	-107
1.88267	-106
1.88633	-106
1.89000	-105
1.89367	-105
1.89733	-105
1.90100	-105
1.90467	-104
1.90833	-104
1.91200	-105
1.91567	-105
1.91933	-105
1.92300	-105
1.92667	-104
1.93033	-103
1.93400	-103
1.93767	-102
1.94133	-101
1.94500	-101
1.94867	-101
1.95233	-100
1.95600	-100
1.95967	-101
1.96333	-101
1.96700	-101
1.97067	-101
1.97433	-101
1.97800	-101
1.98167	-100
1.98533	-100
1.98900	-100
1.99267	-99
1.99633	-99
2.00000	-99
2.00367	-98
2.00733	-98
2.01100	-98
2.01467	-99
2.01833	-99
2.02200	-99
2.02567	-99
2.02933	-99
2.03300	-98
2.03667	-98
2.04033	-97
2.04400	-97
2.04767	-96
2.05133	-96
2.05500	-96
2.05867	-96
2.06233	-96
2.06600	-95
2.06967	-95
2.07333	-94
2.07700	-94
2.08067	-93
2.08433	-93
2.08800	-92
2.09167	-92
2.09533	-92
2.09900	-92
2.10267	-92
2.10633	-92
2.11000	-92
2.11367	-92
2.11733	-91
2.12100	-90
2.12467	-90
2.12833	-89
2.13200	-88
2.13567	-88
2.13933	-87
2.14300	-87
2.14667	-86
2.15033	-86
2.15400	-86
2.15767	-86
2.16133	-86
2.16500	-85
2.16867	-85
2.17233	-85
2.17600	-85
2.17967	-85
2.18333	-85
2.18700	-85
2.19067	-85
2.19433	-84
2.19800	-85
2.20167	-85
2.20533	-86
2.20900	-86
2.21267	-86
2.21633	-86
2.22000	-85
2.22367	-85
2.22733	-84
2.23100	-84
2.23467	-83
2.23833	-82
2.24200	-82
2.24567	-82
2.24933	-83
2.25300	-84
2.25667	-84
2.26033	-84
2.26400	-84
2.26767	-84
2.27133	-83
2.27500	-83
2.27867	-82
2.28233	-81
2.28600	-80
2.28967	-79
2.29333	-78
2.29700	-77
2.30067	-77
2.30433	-76
2.30800	-76
2.31167	-75
2.31533	-75
2.31900	-74
2.32267	-73
2.32633	-72
2.33000	-72
2.33367	-72
2.33733	-73
2.34100	-73
2.34467	-72
2.34833	-72
2.35200	-71
2.35567	-70
2.35933	-69
2.36300	-68
2.36667	-67
2.37033	-65
2.37400	-63
2.37767	-60
2.38133	-57
2.38500	-54
2.38867	-50
2.39233	-45
2.39600	-40
2.39967	-36
2.40333	-31
2.40700	-26
2.41067	-22
2.41433	-18
2.41800	-15
2.42167	-12
2.42533	-9
2.42900	-7
2.43267	-5
2.43633	-3
2.44000	-2
2.44367	-0
2.44733	1
2.45100	2
2.45467	3
2.45833	4
2.46200	5
2.46567	6
2.46933	8
2.47300	9
2.47667	10
2.48033	10
2.48400	11
2.48767	12
2.49133	13
2.49500	13
2.49867	14
2.50233	14
2.50600	15
2.50967	15
2.51333	15
2.51700	15
2.52067	15
2.52433	14
2.52800	13
2.53167	12
2.53533	12
2.53900	11
2.54267	11
2.54633	10
2.55000	11
2.55367	11
2.55733	12
2.56100	12
2.56467	13
2.56833	14
2.57200	15
2.57567	16
2.57933	16
2.58300	16
2.58667	16
2.59033	16
2.59400	16
2.59767	16
2.60133	16
2.60500	16
2.60867	16
2.61233	17
2.61600	17
2.61967	18
2.62333	18
2.62700	19
2.63067	19
2.63433	20
2.63800	20
2.64167	20
2.64533	21
2.64900	21
2.65267	21
2.65633	21
2.66000	22
2.66367	22
2.66733	23
2.67100	24
2.67467	24
2.67833	24
2.68200	24
2.68567	24
2.68933	25
2.69300	25
2.69667	25
2.70033	25
2.70400	25
2.70767	26
2.71133	26
2.71500	26
2.71867	26
2.72233	26
2.72600	26
2.72967	26
2.73333	26
2.73700	26
2.74067	26
2.74433	26
2.74800	25
2.75167	26
2.75533	26
2.75900	26
2.76267	27
2.76633	27
2.77000	27
2.77367	28
2.77733	28
2.78100	28
2.78467	29
2.78833	29
2.79200	29
2.79567	28
2.79933	28
2.80300	28
2.80667	28
2.81033	28
2.81400	27
2.81767	27
2.82133	28
2.82500	28
2.82867	28
2.83233	28
2.83600	28
2.83967	28
2.84333	28
2.84700	27
2.85067	27
2.85433	27
2.85800	27
2.86167	26
2.86533	24
2.86900	20
2.87267	13
2.87633	4
2.88000	-10
2.88367	-28
2.88733	-52
2.89100	-80
2.89467	-113
2.89833	-152
2.90200	-195
2.90567	-243
2.90933	-295
2.91300	-350
2.91667	-408
2.92033	-467
2.92400	-528
2.92767	-590
2.93133	-651
2.93500	-712
2.93867	-770
2.94233	-826
2.94600	-878
2.94967	-929
2.95333	-984
2.95700	-1038
2.96067	-1084
2.96433	-1111
2.96800	-1113
2.97167	-1090
2.97533	-1046
2.97900	-984
2.98267	-911
2.98633	-831
2.99000	-750
2.99367	-670
2.99733	-593
3.00100	-522
3.00467	-456
3.00833	-396
3.01200	-342
3.01567	-294
3.01933	-252
3.02300	-215
3.02667	-183
3.03033	-155
3.03400	-131
3.03767	-110
3.04133	-92
3.04500	-77
3.04867	-64
3.05233	-53
3.05600	-43
3.05967	-35
3.06333	-28
3.06700	-22
3.07067	-17
3.07433	-13
3.07800	-9
3.08167	-5
3.08533	-3
3.08900	0
3.09267	3
3.09633	5
3.10000	6
3.10367	8
3.10733	9
3.11100	10
3.11467	11
3.11833	12
3.12200	13
3.12567	14
3.12933	14
3.13300	15
3.13667	15
3.14033	16
3.14400	16
3.14767	16
3.15133	17
3.15500	17
3.15867	17
3.16233	18
3.16600	18
3.16967	19
3.17333	19
3.17700	19
3.18067	20
3.18433	20
3.18800	20
3.19167	20
3.19533	20
3.19900	21
3.20267	21
3.20633	21
3.21000	21
3.21367	21
3.21733	21
3.22100	22
3.22467	22
3.22833	22
3.23200	23
3.23567	23
3.23933	24
3.24300	24
3.24667	24
3.25033	24
3.25400	24
3.25767	24
3.26133	24
3.26500	24
3.26867	25
3.27233	25
3.27600	25
3.27967	25
3.28333	24
3.28700	25
3.29067	25
3.29433	25
3.29800	25
3.30167	25
3.30533	25
3.30900	25
3.31267	25
3.31633	25
3.32000	25
3.32367	25
3.32733	25
3.33100	25
3.33467	25
3.33833	25
3.34200	25
3.34567	25
3.34933	25
3.35300	25
3.35667	24
3.36033	24
3.36400	24
3.36767	24
3.37133	25
3.37500	25
3.37867	25
3.38233	25
3.38600	26
3.38967	26
3.39333	26
3.39700	26
3.40067	26
3.40433	27
3.40800	27
3.41167	27
3.41533	28
3.41900	28
3.42267	28
3.42633	29
3.43000	29
3.43367	29
3.43733	29
3.44100	29
3.44467	29
3.44833	29
3.45200	29
3.45567	29
3.45933	29
3.46300	29
3.46667	29
3.47033	29
3.47400	29
3.47767	29
3.48133	29
3.48500	29
3.48867	29
3.49233	29
3.49600	29
3.49967	29
3.50333	29
3.50700	29
3.51067	29
3.51433	29
3.51800	29
3.52167	29
3.52533	29
3.52900	29
3.53267	29
3.53633	28
3.54000	28
3.54367	28
3.54733	28
3.55100	28
3.55467	28
3.55833	28
3.56200	28
3.56567	28
3.56933	28
3.57300	28
3.57667	27
3.58033	27
3.58400	27
3.58767	27
3.59133	27
3.59500	27
3.59867	27
3.60233	27
3.60600	27
3.60967	28
3.61333	28
3.61700	28
3.62067	28
3.62433	28
3.62800	28
3.63167	28
3.63533	28
3.63900	28
3.64267	27
3.64633	28
3.65000	28
3.65367	28
3.65733	27
3.66100	28
3.66467	28
3.66833	28
3.67200	28
3.67567	28
3.67933	28
3.68300	28
3.68667	28
3.69033	28
3.69400	28
3.69767	28
3.70133	29
3.70500	29
3.70867	29
3.71233	29
3.71600	29
3.71967	29
3.72333	29
3.72700	29
3.73067	28
3.73433	28
3.73800	28
3.74167	28
3.74533	28
3.74900	28
3.75267	28
3.75633	28
3.76000	28
3.76367	28
3.76733	28
3.77100	28
3.77467	28
3.77833	28
3.78200	28
3.78567	28
3.78933	28
3.79300	28
3.79667	28
3.80033	28
3.80400	27
3.80767	27
3.81133	27
3.81500	27
3.81867	27
3.82233	27
3.82600	27
3.82967	28
3.83333	28
3.83700	28
3.84067	28
3.84433	28
3.84800	28
3.85167	28
3.85533	28
3.85900	28
3.86267	27
3.86633	27
3.87000	27
3.87367	27
3.87733	27
3.88100	28
3.88467	28
3.88833	28
3.89200	28
3.89567	27
3.89933	27
3.90300	27
3.90667	27
3.91033	27
3.91400	27
3.91767	27
3.92133	28
3.92500	28
3.92867	27
3.93233	27
3.93600	27
3.93967	26
3.94333	26
3.94700	26
3.95067	26
3.95433	26
3.95800	27
3.96167	27
3.96533	27
3.96900	27
3.97267	27
3.97633	27
3.98000	27
3.98367	27
3.98733	27
3.99100	27
3.99467	27
3.99833	27

[Chromatogram (Ch3)]
Interval(msec)	220
# of Points	1091
Start Time(min)	0.002
End Time(min)	3.998
R.Time (min)	Intensity
0.00167	-1
0.00533	0
0.00900	1
0.01267	-0
0.01633	-1
0.02000	-2
0.02367	-3
0.02733	-3
0.03100	-1
0.03467	1
0.03833	3
0.04200	4
0.04567	3
0.04933	1
0.05300	2
0.05667	4
0.06033	5
0.06400	4
0.06767	2
0.07133	1
0.07500	1
0.07867	3
0.08233	3
0.08600	2
0.08967	1
0.09333	0
0.09700	1
0.10067	2
0.10433	5
0.10800	7
0.11167	8
0.11533	10
0.11900	10
0.12267	8
0.12633	5
0.13000	3
0.13367	4
0.13733	6
0.14100	8
0.14467	9
0.14833	8
0.15200	8
0.15567	9
0.15933	8
0.16300	7
0.16667	7
0.17033	7
0.17400	7
0.17767	6
0.18133	6
0.18500	6
0.18867	5
0.19233	7
0.19600	6
0.19967	4
0.20333	4
0.20700	4
0.21067	6
0.21433	6
0.21800	6
0.22167	7
0.22533	9
0.22900	8
0.23267	8
0.23633	8
0.24000	9
0.24367	8
0.24733	7
0.25100	6
0.25467	4
0.25833	4
0.26200	5
0.26567	5
0.26933	6
0.27300	8
0.27667	10
0.28033	11
0.28400	11
0.28767	11
0.29133	11
0.29500	10
0.29867	8
0.30233	7
0.30600	7
0.30967	7
0.31333	8
0.31700	9
0.32067	9
0.32433	8
0.32800	7
0.33167	6
0.33533	6
0.33900	7
0.34267	6
0.34633	4
0.35000	2
0.35367	2
0.35733	4
0.36100	6
0.36467	7
0.36833	9
0.37200	10
0.37567	10
0.37933	9
0.38300	8
0.38667	6
0.39033	4
0.39400	3
0.39767	4
0.40133	7
0.40500	8
0.40867	7
0.41233	7
0.41600	7
0.41967	7
0.42333	6
0.42700	5
0.43067	7
0.43433	8
0.43800	7
0.44167	9
0.44533	10
0.44900	9
0.45267	8
0.45633	9
0.46000	10
0.46367	10
0.46733	10
0.47100	9
0.47467	11
0.47833	12
0.48200	12
0.48567	12
0.48933	12
0.49300	12
0.49667	11
0.50033	8
0.50400	6
0.50767	5
0.51133	6
0.51500	5
0.51867	4
0.52233	5
0.52600	7
0.52967	9
0.53333	10
0.53700	11
0.54067	12
0.54433	13
0.54800	12
0.55167	10
0.55533	10
0.55900	9
0.56267	9
0.56633	7
0.57000	6
0.57367	6
0.57733	9
0.58100	10
0.58467	10
0.58833	10
0.59200	10
0.59567	10
0.59933	12
0.60300	13
0.60667	14
0.61033	14
0.61400	16
0.61767	17
0.62133	17
0.62500	16
0.62867	15
0.63233	14
0.63600	16
0.63967	14
0.64333	13
0.64700	12
0.65067	12
0.65433	12
0.65800	13
0.66167	12
0.66533	13
0.66900	13
0.67267	14
0.67633	16
0.68000	13
0.68367	13
0.68733	13
0.69100	13
0.69467	13
0.69833	12
0.70200	10
0.70567	9
0.70933	11
0.71300	14
0.71667	17
0.72033	18
0.72400	18
0.72767	17
0.73133	16
0.73500	14
0.73867	14
0.74233	14
0.74600	16
0.74967	18
0.75333	16
0.75700	17
0.76067	18
0.76433	19
0.76800	18
0.77167	19
0.77533	18
0.77900	15
0.78267	12
0.78633	13
0.79000	14
0.79367	15
0.79733	16
0.80100	18
0.80467	18
0.80833	18
0.81200	17
0.81567	15
0.81933	16
0.82300	15
0.82667	15
0.83033	15
0.83400	16
0.83767	15
0.84133	14
0.84500	13
0.84867	13
0.85233	16
0.85600	18
0.85967	18
0.86333	18
0.86700	18
0.87067	18
0.87433	19
0.87800	19
0.88167	17
0.88533	15
0.88900	16
0.89267	18
0.89633	19
0.90000	19
0.90367	19
0.90733	18
0.91100	18
0.91467	18
0.91833	20
0.92200	21
0.92567	20
0.92933	18
0.93300	17
0.93667	19
0.94033	18
0.94400	17
0.94767	16
0.95133	16
0.95500	18
0.95867	19
0.96233	19
0.96600	18
0.96967	20
0.97333	23
0.97700	22
0.98067	20
0.98433	20
0.98800	19
0.99167	16
0.99533	12
0.99900	11
1.00267	12
1.00633	13
1.01000	15
1.01367	15
1.01733	17
1.02100	20
1.02467	20
1.02833	19
1.03200	18
1.03567	19
1.03933	20
1.04300	21
1.04667	20
1.05033	21
1.05400	21
1.05767	21
1.06133	20
1.06500	18
1.06867	17
1.07233	15
1.07600	15
1.07967	17
1.08333	19
1.08700	18
1.09067	21
1.09433	25
1.09800	26
1.10167	26
1.10533	24
1.10900	23
1.11267	21
1.11633	19
1.12000	17
1.12367	16
1.12733	14
1.13100	15
1.13467	15
1.13833	15
1.14200	15
1.14567	15
1.14933	16
1.15300	17
1.15667	15
1.16033	14
1.16400	14
1.16767	14
1.17133	16
1.17500	18
1.17867	19
1.18233	19
1.18600	18
1.18967	19
1.19333	19
1.19700	17
1.20067	16
1.20433	18
1.20800	20
1.21167	23
1.21533	23
1.21900	24
1.22267	26
1.22633	27
1.23000	27
1.23367	27
1.23733	26
1.24100	23
1.24467	21
1.24833	21
1.25200	21
1.25567	22
1.25933	24
1.26300	24
1.26667	23
1.27033	22
1.27400	22
1.27767	23
1.28133	22
1.28500	21
1.28867	21
1.29233	21
1.29600	21
1.29967	20
1.30333	21
1.30700	20
1.31067	20
1.31433	20
1.31800	21
1.32167	22
1.32533	22
1.32900	22
1.33267	22
1.33633	22
1.34000	22
1.34367	23
1.34733	24
1.35100	24
1.35467	27
1.35833	30
1.36200	30
1.36567	29
1.36933	28
1.37300	26
1.37667	23
1.38033	21
1.38400	20
1.38767	22
1.39133	24
1.39500	26
1.39867	24
1.40233	22
1.40600	20
1.40967	20
1.41333	19
1.41700	19
1.42067	20
1.42433	20
1.42800	19
1.43167	18
1.43533	17
1.43900	16
1.44267	18
1.44633	21
1.45000	21
1.45367	20
1.45733	20
1.46100	19
1.46467	18
1.46833	19
1.47200	20
1.47567	22
1.47933	24
1.48300	23
1.48667	24
1.49033	24
1.49400	23
1.49767	22
1.50133	20
1.50500	19
1.50867	19
1.51233	18
1.51600	17
1.51967	17
1.52333	19
1.52700	19
1.53067	16
1.53433	14
1.53800	16
1.54167	17
1.54533	16
1.54900	17
1.55267	17
1.55633	17
1.56000	15
1.56367	15
1.56733	15
1.57100	14
1.57467	13
1.57833	14
1.58200	16
1.58567	16
1.58933	18
1.59300	19
1.59667	19
1.60033	17
1.60400	16
1.60767	17
1.61133	19
1.61500	22
1.61867	25
1.62233	26
1.62600	24
1.62967	21
1.63333	21
1.63700	23
1.64067	24
1.64433	25
1.64800	25
1.65167	25
1.65533	25
1.65900	25
1.66267	26
1.66633	26
1.67000	28
1.67367	30
1.67733	32
1.68100	31
1.68467	30
1.68833	29
1.69200	29
1.69567	30
1.69933	31
1.70300	31
1.70667	33
1.71033	33
1.71400	33
1.71767	33
1.72133	33
1.72500	33
1.72867	32
1.73233	31
1.73600	33
1.73967	34
1.74333	35
1.74700	34
1.75067	32
1.75433	32
1.75800	32
1.76167	34
1.76533	36
1.76900	38
1.77267	39
1.77633	37
1.78000	37
1.78367	37
1.78733	36
1.79100	34
1.79467	34
1.79833	36
1.80200	40
1.80567	41
1.80933	43
1.81300	43
1.81667	43
1.82033	42
1.82400	43
1.82767	43
1.83133	42
1.83500	41
1.83867	41
1.84233	43
1.84600	43
1.84967	44
1.85333	45
1.85700	46
1.86067	47
1.86433	47
1.86800	47
1.87167	47
1.87533	48
1.87900	47
1.88267	48
1.88633	49
1.89000	49
1.89367	48
1.89733	49
1.90100	53
1.90467	56
1.90833	56
1.91200	54
1.91567	51
1.91933	52
1.92300	53
1.92667	55
1.93033	57
1.93400	57
1.93767	57
1.94133	57
1.94500	57
1.94867	59
1.95233	60
1.95600	60
1.95967	60
1.96333	60
1.96700	61
1.97067	62
1.97433	62
1.97800	63
1.98167	66
1.98533	67
1.98900	67
1.99267	68
1.99633	68
2.00000	68
2.00367	69
2.00733	70
2.01100	72
2.01467	73
2.01833	73
2.02200	75
2.02567	74
2.02933	74
2.03300	75
2.03667	76
2.04033	78
2.04400	79
2.04767	76
2.05133	74
2.05500	74
2.05867	77
2.06233	78
2.06600	79
2.06967	82
2.07333	85
2.07700	86
2.08067	89
2.08433	90
2.08800	90
2.09167	90
2.09533	90
2.09900	90
2.10267	87
2.10633	85
2.11000	85
2.11367	87
2.11733	87
2.12100	85
2.12467	86
2.12833	86
2.13200	89
2.13567	93
2.13933	96
2.14300	97
2.14667	96
2.15033	94
2.15400	95
2.15767	97
2.16133	98
2.16500	98
2.16867	99
2.17233	99
2.17600	99
2.17967	99
2.18333	100
2.18700	100
2.19067	100
2.19433	102
2.19800	105
2.20167	110
2.20533	114
2.20900	113
2.21267	112
2.21633	110
2.22000	110
2.22367	111
2.22733	111
2.23100	112
2.23467	114
2.23833	117
2.24200	119
2.24567	120
2.24933	121
2.25300	121
2.25667	119
2.26033	118
2.26400	120
2.26767	121
2.27133	120
2.27500	120
2.27867	121
2.28233	122
2.28600	122
2.28967	122
2.29333	122
2.29700	122
2.30067	123
2.30433	124
2.30800	125
2.31167	127
2.31533	128
2.31900	126
2.32267	123
2.32633	122
2.33000	122
2.33367	125
2.33733	130
2.34100	134
2.34467	136
2.34833	137
2.35200	135
2.35567	134
2.35933	133
2.36300	134
2.36667	133
2.37033	134
2.37400	135
2.37767	136
2.38133	138
2.38500	137
2.38867	135
2.39233	137
2.39600	138
2.39967	138
2.40333	137
2.40700	138
2.41067	141
2.41433	143
2.41800	145
2.42167	145
2.42533	145
2.42900	145
2.43267	144
2.43633	142
2.44000	144
2.44367	184
2.44733	262
2.45100	338
2.45467	396
2.45833	422
2.46200	420
2.46567	412
2.46933	405
2.47300	398
2.47667	381
2.48033	359
2.48400	333
2.48767	308
2.49133	288
2.49500	273
2.49867	264
2.50233	260
2.50600	262
2.50967	268
2.51333	274
2.51700	277
2.52067	276
2.52433	270
2.52800	260
2.53167	248
2.53533	236
2.53900	226
2.54267	218
2.54633	210
2.55000	203
2.55367	196
2.55733	192
2.56100	190
2.56467	188
2.56833	186
2.57200	185
2.57567	186
2.57933	188
2.58300	191
2.58667	196
2.59033	202
2.59400	208
2.59767	215
2.60133	222
2.60500	229
2.60867	236
2.61233	239
2.61600	242
2.61967	241
2.62333	239
2.62700	234
2.63067	225
2.63433	214
2.63800	205
2.64167	196
2.64533	184
2.64900	170
2.65267	159
2.65633	150
2.66000	143
2.66367	136
2.66733	131
2.67100	130
2.67467	128
2.67833	128
2.68200	139
2.68567	164
2.68933	194
2.69300	224
2.69667	255
2.70033	289
2.70400	328
2.70767	369
2.71133	411
2.71500	452
2.71867	488
2.72233	519
2.72600	547
2.72967	571
2.73333	594
2.73700	614
2.74067	632
2.74433	650
2.74800	665
2.75167	680
2.75533	694
2.75900	705
2.76267	716
2.76633	723
2.77000	733
2.77367	739
2.77733	742
2.78100	742
2.78467	744
2.78833	745
2.79200	744
2.79567	741
2.79933	738
2.80300	734
2.80667	728
2.81033	721
2.81400	713
2.81767	705
2.82133	698
2.82500	692
2.82867	686
2.83233	683
2.83600	689
2.83967	708
2.84333	756
2.84700	846
2.85067	1002
2.85433	1248
2.85800	1596
2.86167	2048
2.86533	2580
2.86900	3160
2.87267	3743
2.87633	4284
2.88000	4731
2.88367	5051
2.88733	5229
2.89100	5266
2.89467	5176
2.89833	4988
2.90200	4725
2.90567	4412
2.90933	4077
2.91300	3739
2.91667	3408
2.92033	3093
2.92400	2800
2.92767	2535
2.93133	2297
2.93500	2085
2.93867	1896
2.94233	1728
2.94600	1580
2.94967	1452
2.95333	1340
2.95700	1243
2.96067	1160
2.96433	1088
2.96800	1023
2.97167	964
2.97533	917
2.97900	878
2.98267	844
2.98633	814
2.99000	789
2.99367	771
2.99733	756
3.00100	741
3.00467	728
3.00833	718
3.01200	711
3.01567	705
3.01933	698
3.02300	691
3.02667	685
3.03033	682
3.03400	682
3.03767	683
3.04133	682
3.04500	681
3.04867	680
3.05233	680
3.05600	682
3.05967	683
3.06333	683
3.06700	686
3.07067	688
3.07433	688
3.07800	689
3.08167	691
3.08533	693
3.08900	694
3.09267	694
3.09633	695
3.10000	696
3.10367	697
3.10733	698
3.11100	698
3.11467	698
3.11833	699
3.12200	699
3.12567	699
3.12933	700
3.13300	701
3.13667	702
3.14033	700
3.14400	699
3.14767	697
3.15133	694
3.15500	692
3.15867	689
3.16233	687
3.16600	683
3.16967	681
3.17333	683
3.17700	683
3.18067	682
3.18433	679
3.18800	676
3.19167	675
3.19533	675
3.19900	675
3.20267	675
3.20633	675
3.21000	673
3.21367	669
3.21733	666
3.22100	666
3.22467	665
3.22833	664
3.23200	664
3.23567	664
3.23933	661
3.24300	660
3.24667	658
3.25033	655
3.25400	654
3.25767	655
3.26133	654
3.26500	652
3.26867	649
3.27233	647
3.27600	647
3.27967	647
3.28333	645
3.28700	643
3.29067	642
3.29433	640
3.29800	638
3.30167	634
3.30533	630
3.30900	628
3.31267	625
3.31633	624
3.32000	625
3.32367	623
3.32733	621
3.33100	621
3.33467	620
3.33833	616
3.34200	612
3.34567	607
3.34933	603
3.35300	601
3.35667	600
3.36033	600
3.36400	597
3.36767	596
3.37133	594
3.37500	591
3.37867	588
3.38233	584
3.38600	579
3.38967	575
3.39333	573
3.39700	571
3.40067	570
3.40433	570
3.40800	570
3.41167	568
3.41533	566
3.41900	564
3.42267	560
3.42633	558
3.43000	557
3.43367	555
3.43733	554
3.44100	551
3.44467	546
3.44833	544
3.45200	545
3.45567	542
3.45933	540
3.46300	538
3.46667	536
3.47033	534
3.47400	531
3.47767	529
3.48133	527
3.48500	525
3.48867	523
3.49233	520
3.49600	516
3.49967	514
3.50333	514
3.50700	513
3.51067	513
3.51433	509
3.51800	504
3.52167	499
3.52533	496
3.52900	496
3.53267	498
3.53633	500
3.54000	500
3.54367	499
3.54733	498
3.55100	495
3.55467	492
3.55833	490
3.56200	488
3.56567	486
3.56933	486
3.57300	488
3.57667	486
3.58033	486
3.58400	487
3.58767	487
3.59133	486
3.59500	484
3.59867	481
3.60233	480
3.60600	479
3.60967	476
3.61333	475
3.61700	473
3.62067	470
3.62433	467
3.62800	465
3.63167	463
3.63533	463
3.63900	465
3.64267	465
3.64633	463
3.65000	461
3.65367	460
3.65733	461
3.66100	463
3.66467	462
3.66833	460
3.67200	458
3.67567	455
3.67933	454
3.68300	454
3.68667	452
3.69033	452
3.69400	454
3.69767	451
3.70133	446
3.70500	443
3.70867	444
3.71233	444
3.71600	443
3.71967	442
3.72333	443
3.72700	444
3.73067	444
3.73433	444
3.73800	444
3.74167	443
3.74533	441
3.74900	439
3.75267	437
3.75633	437
3.76000	437
3.76367	435
3.76733	434
3.77100	435
3.77467	437
3.77833	437
3.78200	435
3.78567	434
3.78933	433
3.79300	432
3.79667	428
3.80033	426
3.80400	424
3.80767	421
3.81133	420
3.81500	421
3.81867	422
3.82233	423
3.82600	421
3.82967	419
3.83333	419
3.83700	419
3.84067	421
3.84433	419
3.84800	417
3.85167	415
3.85533	414
3.85900	414
3.86267	414
3.86633	413
3.87000	415
3.87367	415
3.87733	415
3.88100	414
3.88467	412
3.88833	410
3.89200	410
3.89567	409
3.89933	407
3.90300	405
3.90667	404
3.91033	404
3.91400	403
3.91767	403
3.92133	402
3.92500	402
3.92867	401
3.93233	402
3.93600	402
3.93967	402
3.94333	401
3.94700	401
3.95067	399
3.95433	399
3.95800	400
3.96167	401
3.96533	400
3.96900	397
3.97267	392
3.97633	389
3.98000	388
3.98367	388
3.98733	389
3.99100	389
3.99467	389
3.99833	387

[Status Trace (Column Oven Temperature)]
Interval(msec)	1000
# of Points	240
Start Time(min)	0.015
End Time(min)	3.998
Intensity Units	
Intensity Multiplier	1
R.Time (min)	Intensity
0.01515	35.03
0.03182	35.04
0.04848	35.05
0.06515	35.05
0.08182	35.03
0.09848	35.03
0.11515	35.03
0.13182	35.03
0.14848	35.03
0.16515	35.02
0.18182	35.01
0.19848	35.00
0.21515	35.00
0.23182	35.01
0.24848	35.02
0.26515	35.01
0.28182	35.01
0.29848	35.01
0.31515	35.01
0.33182	35.02
0.34848	35.02
0.36515	35.02
0.38182	35.02
0.39848	35.02
0.41515	35.02
0.43182	35.03
0.44848	35.05
0.46515	35.07
0.48182	35.08
0.49848	35.06
0.51515	35.05
0.53182	35.03
0.54848	35.01
0.56515	35.00
0.58182	35.00
0.59848	35.00
0.61515	35.01
0.63182	35.01
0.64848	35.01
0.66515	35.00
0.68182	35.00
0.69848	35.00
0.71515	35.00
0.73182	34.99
0.74848	34.99
0.76515	34.98
0.78182	34.99
0.79848	34.98
0.81515	34.99
0.83182	35.00
0.84848	35.00
0.86515	35.00
0.88182	34.99
0.89848	34.99
0.91515	35.00
0.93182	35.00
0.94848	35.00
0.96515	35.01
0.98182	35.00
0.99848	34.99
1.01515	35.00
1.03182	34.99
1.04848	34.99
1.06515	34.99
1.08182	34.98
1.09848	34.97
1.11515	34.96
1.13182	34.96
1.14848	34.96
1.16515	34.96
1.18182	34.97
1.19848	34.97
1.21515	34.97
1.23182	34.98
1.24848	34.99
1.26515	34.99
1.28182	34.99
1.29848	34.99
1.31515	34.99
1.33182	35.00
1.34848	35.01
1.36515	35.02
1.38182	35.02
1.39848	35.02
1.41515	35.00
1.43182	34.99
1.44848	34.98
1.46515	34.98
1.48182	34.98
1.49848	34.98
1.51515	34.98
1.53182	34.98
1.54848	34.99
1.56515	35.00
1.58182	35.01
1.59848	35.03
1.61515	35.11
1.63182	35.25
1.64848	35.44
1.66515	35.71
1.68182	36.07
1.69848	36.42
1.71515	36.77
1.73182	37.12
1.74848	37.45
1.76515	37.79
1.78182	38.13
1.79848	38.46
1.81515	38.80
1.83182	39.13
1.84848	39.45
1.86515	39.77
1.88182	40.10
1.89848	40.42
1.91515	40.75
1.93182	41.07
1.94848	41.39
1.96515	41.71
1.98182	42.04
1.99848	42.36
2.01515	42.70
2.03182	43.00
2.04848	43.34
2.06515	43.66
2.08182	43.98
2.09848	44.32
2.11515	44.63
2.13182	44.97
2.14848	45.30
2.16515	45.62
2.18182	45.94
2.19848	46.29
2.21515	46.62
2.23182	46.94
2.24848	47.31
2.26515	47.64
2.28182	47.97
2.29848	48.29
2.31515	48.62
2.33182	48.95
2.34848	49.26
2.36515	49.55
2.38182	49.70
2.39848	49.72
2.41515	49.71
2.43182	49.71
2.44848	49.72
2.46515	49.72
2.48182	49.74
2.49848	49.75
2.51515	49.74
2.53182	49.75
2.54848	49.77
2.56515	49.76
2.58182	49.79
2.59848	49.81
2.61515	49.81
2.63182	49.81
2.64848	49.82
2.66515	49.81
2.68182	49.82
2.69848	49.82
2.71515	49.83
2.73182	49.85
2.74848	49.86
2.76515	49.85
2.78182	49.85
2.79848	49.85
2.81515	49.85
2.83182	49.86
2.84848	49.87
2.86515	49.88
2.88182	49.89
2.89848	49.90
2.91515	49.90
2.93182	49.91
2.94848	49.91
2.96515	49.92
2.98182	49.94
2.99848	49.95
3.01515	49.96
3.03182	49.96
3.04848	49.96
3.06515	49.98
3.08182	49.99
3.09848	49.99
3.11515	50.00
3.13182	50.02
3.14848	50.03
3.16515	50.04
3.18182	50.06
3.19848	50.06
3.21515	50.06
3.23182	50.05
3.24848	50.05
3.26515	50.06
3.28182	50.06
3.29848	50.06
3.31515	50.06
3.33182	50.08
3.34848	50.10
3.36515	50.11
3.38182	50.11
3.39848	50.10
3.41515	50.09
3.43182	50.07
3.44848	50.06
3.46515	50.06
3.48182	50.05
3.49848	50.05
3.51515	50.04
3.53182	50.03
3.54848	50.03
3.56515	50.03
3.58182	50.05
3.59848	50.05
3.61515	50.04
3.63182	50.05
3.64848	50.05
3.66515	50.04
3.68182	50.04
3.69848	50.04
3.71515	50.04
3.73182	50.04
3.74848	50.04
3.76515	50.04
3.78182	50.04
3.79848	50.05
3.81515	50.05
3.83182	50.05
3.84848	50.05
3.86515	50.05
3.88182	50.06
3.89848	50.06
3.91515	50.06
3.93182	50.07
3.94848	50.08
3.96515	50.09
3.98182	50.08
3.99848	50.09

[Status Trace (Injection Unit Temperature)]
Interval(msec)	1000
# of Points	240
Start Time(min)	0.015
End Time(min)	3.998
Intensity Units	
Intensity Multiplier	1
R.Time (min)	Intensity
0.01515	99.98
0.03182	99.98
0.04848	99.98
0.06515	99.98
0.08182	99.98
0.09848	99.98
0.11515	99.98
0.13182	99.98
0.14848	99.98
0.16515	99.98
0.18182	99.98
0.19848	99.98
0.21515	99.98
0.23182	99.98
0.24848	99.98
0.26515	99.98
0.28182	99.98
0.29848	99.98
0.31515	99.98
0.33182	99.98
0.34848	99.98
0.36515	99.97
0.38182	99.98
0.39848	99.98
0.41515	99.98
0.43182	99.98
0.44848	99.98
0.46515	99.98
0.48182	99.98
0.49848	99.98
0.51515	99.98
0.53182	99.98
0.54848	99.98
0.56515	99.98
0.58182	99.98
0.59848	99.98
0.61515	99.98
0.63182	99.98
0.64848	99.99
0.66515	99.99
0.68182	99.98
0.69848	99.99
0.71515	99.99
0.73182	99.98
0.74848	99.98
0.76515	99.98
0.78182	99.98
0.79848	99.99
0.81515	99.99
0.83182	99.99
0.84848	99.98
0.86515	99.99
0.88182	99.98
0.89848	99.99
0.91515	99.98
0.93182	99.99
0.94848	99.98
0.96515	99.99
0.98182	99.98
0.99848	99.99
1.01515	99.99
1.03182	99.99
1.04848	99.98
1.06515	99.98
1.08182	99.98
1.09848	99.99
1.11515	99.98
1.13182	99.98
1.14848	99.98
1.16515	99.99
1.18182	99.98
1.19848	99.99
1.21515	99.98
1.23182	99.98
1.24848	99.98
1.26515	99.98
1.28182	99.98
1.29848	99.97
1.31515	99.99
1.33182	99.98
1.34848	99.98
1.36515	99.98
1.38182	99.98
1.39848	99.98
1.41515	99.98
1.43182	99.98
1.44848	99.98
1.46515	99.98
1.48182	99.98
1.49848	99.98
1.51515	99.98
1.53182	99.98
1.54848	99.98
1.56515	99.98
1.58182	99.98
1.59848	99.98
1.61515	99.98
1.63182	99.98
1.64848	99.97
1.66515	99.98
1.68182	99.98
1.69848	99.98
1.71515	99.98
1.73182	99.98
1.74848	99.98
1.76515	99.97
1.78182	99.98
1.79848	99.98
1.81515	99.98
1.83182	99.98
1.84848	99.98
1.86515	99.97
1.88182	99.98
1.89848	99.98
1.91515	99.97
1.93182	99.98
1.94848	99.98
1.96515	99.97
1.98182	99.98
1.99848	99.97
2.01515	99.98
2.03182	99.97
2.04848	99.97
2.06515	99.97
2.08182	99.97
2.09848	99.97
2.11515	99.97
2.13182	99.97
2.14848	99.97
2.16515	99.97
2.18182	99.96
2.19848	99.96
2.21515	99.97
2.23182	99.97
2.24848	99.97
2.26515	99.97
2.28182	99.97
2.29848	99.97
2.31515	99.97
2.33182	99.96
2.34848	99.97
2.36515	99.96
2.38182	99.96
2.39848	99.97
2.41515	99.97
2.43182	99.97
2.44848	99.97
2.46515	99.97
2.48182	99.97
2.49848	99.97
2.51515	99.97
2.53182	99.97
2.54848	99.97
2.56515	99.97
2.58182	99.97
2.59848	99.97
2.61515	99.97
2.63182	99.97
2.64848	99.98
2.66515	99.98
2.68182	99.98
2.69848	99.98
2.71515	99.98
2.73182	99.98
2.74848	99.99
2.76515	99.98
2.78182	99.99
2.79848	99.99
2.81515	99.99
2.83182	99.99
2.84848	100.00
2.86515	99.99
2.88182	99.99
2.89848	100.00
2.91515	100.00
2.93182	100.00
2.94848	100.00
2.96515	100.01
2.98182	100.01
2.99848	100.01
3.01515	100.01
3.03182	100.01
3.04848	100.01
3.06515	100.01
3.08182	100.02
3.09848	100.01
3.11515	100.02
3.13182	100.02
3.14848	100.02
3.16515	100.02
3.18182	100.02
3.19848	100.02
3.21515	100.02
3.23182	100.02
3.24848	100.02
3.26515	100.03
3.28182	100.03
3.29848	100.03
3.31515	100.03
3.33182	100.03
3.34848	100.03
3.36515	100.03
3.38182	100.03
3.39848	100.03
3.41515	100.03
3.43182	100.03
3.44848	100.03
3.46515	100.04
3.48182	100.04
3.49848	100.04
3.51515	100.04
3.53182	100.04
3.54848	100.04
3.56515	100.04
3.58182	100.04
3.59848	100.04
3.61515	100.05
3.63182	100.04
3.64848	100.04
3.66515	100.04
3.68182	100.05
3.69848	100.05
3.71515	100.04
3.73182	100.05
3.74848	100.05
3.76515	100.05
3.78182	100.05
3.79848	100.05
3.81515	100.05
3.83182	100.05
3.84848	100.05
3.86515	100.05
3.88182	100.05
3.89848	100.05
3.91515	100.05
3.93182	100.05
3.94848	100.05
3.96515	100.06
3.98182	100.05
3.99848	100.05

[Status Trace (Carrier Gas Pressure)]
Interval(msec)	1000
# of Points	240
Start Time(min)	0.015
End Time(min)	3.998
Intensity Units	
Intensity Multiplier	1
R.Time (min)	Intensity
0.01515	57.13
0.03182	55.78
0.04848	58.11
0.06515	59.88
0.08182	58.47
0.09848	57.97
0.11515	58.00
0.13182	58.01
0.14848	58.01
0.16515	58.00
0.18182	58.00
0.19848	58.00
0.21515	58.00
0.23182	58.00
0.24848	58.00
0.26515	58.00
0.28182	58.00
0.29848	58.00
0.31515	58.00
0.33182	58.00
0.34848	58.00
0.36515	58.00
0.38182	58.00
0.39848	58.00
0.41515	58.00
0.43182	58.00
0.44848	58.00
0.46515	58.00
0.48182	58.00
0.49848	58.00
0.51515	58.00
0.53182	58.00
0.54848	58.00
0.56515	58.00
0.58182	58.00
0.59848	58.00
0.61515	58.00
0.63182	58.00
0.64848	58.00
0.66515	58.00
0.68182	58.00
0.69848	58.00
0.71515	58.00
0.73182	58.00
0.74848	58.00
0.76515	58.00
0.78182	58.00
0.79848	58.00
0.81515	58.00
0.83182	58.00
0.84848	58.00
0.86515	58.00
0.88182	58.00
0.89848	58.00
0.91515	58.00
0.93182	58.00
0.94848	58.00
0.96515	58.00
0.98182	58.00
0.99848	58.00
1.01515	58.00
1.03182	58.00
1.04848	58.00
1.06515	58.00
1.08182	58.00
1.09848	58.00
1.11515	58.00
1.13182	58.00
1.14848	58.00
1.16515	58.00
1.18182	58.00
1.19848	58.00
1.21515	58.00
1.23182	58.00
1.24848	58.00
1.26515	58.00
1.28182	58.00
1.29848	58.00
1.31515	58.00
1.33182	58.00
1.34848	58.00
1.36515	58.00
1.38182	58.00
1.39848	58.00
1.41515	58.00
1.43182	58.00
1.44848	58.00
1.46515	58.00
1.48182	58.00
1.49848	58.00
1.51515	58.00
1.53182	58.00
1.54848	58.00
1.56515	58.00
1.58182	58.00
1.59848	58.00
1.61515	58.00
1.63182	58.00
1.64848	58.00
1.66515	58.01
1.68182	58.01
1.69848	58.00
1.71515	58.00
1.73182	58.00
1.74848	58.00
1.76515	58.00
1.78182	58.00
1.79848	58.00
1.81515	58.00
1.83182	58.00
1.84848	58.00
1.86515	58.00
1.88182	58.00
1.89848	58.00
1.91515	58.00
1.93182	58.00
1.94848	58.00
1.96515	58.00
1.98182	58.00
1.99848	58.00
2.01515	58.00
2.03182	58.00
2.04848	58.00
2.06515	58.00
2.08182	58.00
2.09848	58.00
2.11515	58.00
2.13182	58.00
2.14848	58.00
2.16515	58.00
2.18182	58.00
2.19848	58.00
2.21515	58.00
2.23182	58.00
2.24848	58.00
2.26515	58.00
2.28182	58.00
2.29848	58.00
2.31515	58.00
2.33182	58.00
2.34848	58.00
2.36515	58.00
2.38182	57.99
2.39848	57.99
2.41515	58.00
2.43182	58.00
2.44848	58.00
2.46515	58.00
2.48182	58.00
2.49848	58.00
2.51515	57.99
2.53182	57.99
2.54848	58.00
2.56515	58.00
2.58182	58.00
2.59848	58.00
2.61515	58.00
2.63182	58.00
2.64848	58.00
2.66515	58.00
2.68182	58.00
2.69848	58.00
2.71515	58.00
2.73182	58.00
2.74848	58.00
2.76515	58.00
2.78182	58.00
2.79848	58.00
2.81515	58.00
2.83182	58.00
2.84848	58.00
2.86515	58.00
2.88182	58.00
2.89848	58.00
2.91515	58.00
2.93182	58.00
2.94848	58.00
2.96515	58.00
2.98182	58.00
2.99848	58.00
3.01515	58.00
3.03182	58.00
3.04848	58.00
3.06515	58.00
3.08182	58.00
3.09848	58.00
3.11515	58.00
3.13182	58.00
3.14848	58.00
3.16515	58.00
3.18182	58.00
3.19848	58.00
3.21515	58.00
3.23182	58.00
3.24848	58.00
3.26515	58.00
3.28182	58.00
3.29848	58.00
3.31515	58.00
3.33182	58.00
3.34848	58.00
3.36515	58.00
3.38182	58.00
3.39848	58.00
3.41515	58.00
3.43182	58.00
3.44848	58.00
3.46515	58.00
3.48182	58.00
3.49848	58.00
3.51515	58.00
3.53182	58.00
3.54848	58.00
3.56515	58.00
3.58182	58.00
3.59848	58.00
3.61515	58.00
3.63182	58.00
3.64848	58.00
3.66515	58.00
3.68182	58.00
3.69848	58.00
3.71515	58.00
3.73182	58.00
3.74848	58.00
3.76515	58.00
3.78182	58.00
3.79848	58.00
3.81515	58.00
3.83182	58.00
3.84848	58.00
3.86515	58.00
3.88182	58.00
3.89848	58.00
3.91515	58.00
3.93182	58.00
3.94848	58.00
3.96515	58.00
3.98182	58.00
3.99848	58.00

[Status Trace (Carrier Gas Flow)]
Interval(msec)	1000
# of Points	240
Start Time(min)	0.015
End Time(min)	3.998
Intensity Units	
Intensity Multiplier	1
R.Time (min)	Intensity
0.01515	33.86
0.03182	34.54
0.04848	34.55
0.06515	34.50
0.08182	34.51
0.09848	34.52
0.11515	34.52
0.13182	34.52
0.14848	34.52
0.16515	34.52
0.18182	34.52
0.19848	34.52
0.21515	34.52
0.23182	34.52
0.24848	34.52
0.26515	34.52
0.28182	34.52
0.29848	34.52
0.31515	34.53
0.33182	34.52
0.34848	34.52
0.36515	34.51
0.38182	34.52
0.39848	34.52
0.41515	34.52
0.43182	34.52
0.44848	34.52
0.46515	34.51
0.48182	34.52
0.49848	34.52
0.51515	34.52
0.53182	34.52
0.54848	34.52
0.56515	34.52
0.58182	34.52
0.59848	34.51
0.61515	34.52
0.63182	34.52
0.64848	34.52
0.66515	34.51
0.68182	34.52
0.69848	34.52
0.71515	34.51
0.73182	34.51
0.74848	34.52
0.76515	34.52
0.78182	34.52
0.79848	34.52
0.81515	34.52
0.83182	34.52
0.84848	34.52
0.86515	34.52
0.88182	34.52
0.89848	34.52
0.91515	34.51
0.93182	34.52
0.94848	34.52
0.96515	34.52
0.98182	34.51
0.99848	34.52
1.01515	34.52
1.03182	34.52
1.04848	34.52
1.06515	34.52
1.08182	34.52
1.09848	34.52
1.11515	34.52
1.13182	34.52
1.14848	34.52
1.16515	34.52
1.18182	34.52
1.19848	34.52
1.21515	34.52
1.23182	34.51
1.24848	34.52
1.26515	34.52
1.28182	34.52
1.29848	34.52
1.31515	34.52
1.33182	34.52
1.34848	34.52
1.36515	34.52
1.38182	34.52
1.39848	34.52
1.41515	34.52
1.43182	34.52
1.44848	34.52
1.46515	34.52
1.48182	34.51
1.49848	34.52
1.51515	34.52
1.53182	34.51
1.54848	34.52
1.56515	34.52
1.58182	34.52
1.59848	34.52
1.61515	34.52
1.63182	34.52
1.64848	34.52
1.66515	34.51
1.68182	34.52
1.69848	34.52
1.71515	34.52
1.73182	34.52
1.74848	34.52
1.76515	34.52
1.78182	34.52
1.79848	34.52
1.81515	34.52
1.83182	34.52
1.84848	34.52
1.86515	34.52
1.88182	34.53
1.89848	34.52
1.91515	34.52
1.93182	34.52
1.94848	34.52
1.96515	34.52
1.98182	34.52
1.99848	34.52
2.01515	34.52
2.03182	34.52
2.04848	34.51
2.06515	34.52
2.08182	34.52
2.09848	34.52
2.11515	34.52
2.13182	34.53
2.14848	34.52
2.16515	34.51
2.18182	34.51
2.19848	34.52
2.21515	34.52
2.23182	34.52
2.24848	34.52
2.26515	34.53
2.28182	34.52
2.29848	34.52
2.31515	34.52
2.33182	34.52
2.34848	34.51
2.36515	34.52
2.38182	34.52
2.39848	34.53
2.41515	34.51
2.43182	34.51
2.44848	34.52
2.46515	34.51
2.48182	34.52
2.49848	34.52
2.51515	34.52
2.53182	34.52
2.54848	34.52
2.56515	34.52
2.58182	34.52
2.59848	34.52
2.61515	34.52
2.63182	34.52
2.64848	34.52
2.66515	34.52
2.68182	34.52
2.69848	34.52
2.71515	34.52
2.73182	34.52
2.74848	34.52
2.76515	34.52
2.78182	34.52
2.79848	34.51
2.81515	34.52
2.83182	34.52
2.84848	34.52
2.86515	34.52
2.88182	34.52
2.89848	34.52
2.91515	34.52
2.93182	34.51
2.94848	34.52
2.96515	34.52
2.98182	34.52
2.99848	34.52
3.01515	34.52
3.03182	34.52
3.04848	34.52
3.06515	34.52
3.08182	34.52
3.09848	34.52
3.11515	34.52
3.13182	34.52
3.14848	34.52
3.16515	34.52
3.18182	34.52
3.19848	34.52
3.21515	34.52
3.23182	34.52
3.24848	34.51
3.26515	34.52
3.28182	34.52
3.29848	34.52
3.31515	34.52
3.33182	34.52
3.34848	34.52
3.36515	34.52
3.38182	34.51
3.39848	34.52
3.41515	34.52
3.43182	34.52
3.44848	34.52
3.46515	34.52
3.48182	34.52
3.49848	34.52
3.51515	34.52
3.53182	34.52
3.54848	34.52
3.56515	34.51
3.58182	34.51
3.59848	34.52
3.61515	34.52
3.63182	34.52
3.64848	34.52
3.66515	34.52
3.68182	34.52
3.69848	34.52
3.71515	34.52
3.73182	34.52
3.74848	34.52
3.76515	34.52
3.78182	34.52
3.79848	34.52
3.81515	34.52
3.83182	34.51
3.84848	34.52
3.86515	34.52
3.88182	34.52
3.89848	34.51
3.91515	34.52
3.93182	34.52
3.94848	34.52
3.96515	34.52
3.98182	34.52
3.99848	34.52

[Status Trace (Column Flow)]
Interval(msec)	1000
# of Points	240
Start Time(min)	0.015
End Time(min)	3.998
Intensity Units	
Intensity Multiplier	1
R.Time (min)	Intensity
0.01515	5.43
0.03182	5.28
0.04848	5.55
0.06515	5.76
0.08182	5.59
0.09848	5.53
0.11515	5.54
0.13182	5.54
0.14848	5.54
0.16515	5.54
0.18182	5.54
0.19848	5.54
0.21515	5.54
0.23182	5.54
0.24848	5.54
0.26515	5.54
0.28182	5.54
0.29848	5.54
0.31515	5.54
0.33182	5.54
0.34848	5.54
0.36515	5.54
0.38182	5.54
0.39848	5.54
0.41515	5.54
0.43182	5.54
0.44848	5.54
0.46515	5.54
0.48182	5.53
0.49848	5.54
0.51515	5.54
0.53182	5.54
0.54848	5.54
0.56515	5.54
0.58182	5.54
0.59848	5.54
0.61515	5.54
0.63182	5.54
0.64848	5.54
0.66515	5.54
0.68182	5.54
0.69848	5.54
0.71515	5.54
0.73182	5.54
0.74848	5.54
0.76515	5.54
0.78182	5.54
0.79848	5.54
0.81515	5.54
0.83182	5.54
0.84848	5.54
0.86515	5.54
0.88182	5.54
0.89848	5.54
0.91515	5.54
0.93182	5.54
0.94848	5.54
0.96515	5.54
0.98182	5.54
0.99848	5.54
1.01515	5.54
1.03182	5.54
1.04848	5.54
1.06515	5.54
1.08182	5.54
1.09848	5.54
1.11515	5.54
1.13182	5.54
1.14848	5.54
1.16515	5.54
1.18182	5.54
1.19848	5.54
1.21515	5.54
1.23182	5.54
1.24848	5.54
1.26515	5.54
1.28182	5.54
1.29848	5.54
1.31515	5.54
1.33182	5.54
1.34848	5.54
1.36515	5.54
1.38182	5.54
1.39848	5.54
1.41515	5.54
1.43182	5.54
1.44848	5.54
1.46515	5.54
1.48182	5.54
1.49848	5.54
1.51515	5.54
1.53182	5.54
1.54848	5.54
1.56515	5.54
1.58182	5.54
1.59848	5.54
1.61515	5.53
1.63182	5.53
1.64848	5.52
1.66515	5.52
1.68182	5.50
1.69848	5.49
1.71515	5.48
1.73182	5.47
1.74848	5.46
1.76515	5.45
1.78182	5.44
1.79848	5.43
1.81515	5.42
1.83182	5.41
1.84848	5.40
1.86515	5.39
1.88182	5.38
1.89848	5.37
1.91515	5.36
1.93182	5.35
1.94848	5.34
1.96515	5.33
1.98182	5.32
1.99848	5.31
2.01515	5.30
2.03182	5.29
2.04848	5.28
2.06515	5.27
2.08182	5.26
2.09848	5.25
2.11515	5.24
2.13182	5.24
2.14848	5.23
2.16515	5.22
2.18182	5.21
2.19848	5.20
2.21515	5.19
2.23182	5.18
2.24848	5.17
2.26515	5.16
2.28182	5.15
2.29848	5.14
2.31515	5.13
2.33182	5.12
2.34848	5.11
2.36515	5.11
2.38182	5.10
2.39848	5.10
2.41515	5.10
2.43182	5.10
2.44848	5.10
2.46515	5.10
2.48182	5.10
2.49848	5.10
2.51515	5.10
2.53182	5.10
2.54848	5.10
2.56515	5.10
2.58182	5.10
2.59848	5.10
2.61515	5.10
2.63182	5.10
2.64848	5.10
2.66515	5.10
2.68182	5.10
2.69848	5.10
2.71515	5.10
2.73182	5.10
2.74848	5.10
2.76515	5.10
2.78182	5.10
2.79848	5.10
2.81515	5.10
2.83182	5.10
2.84848	5.10
2.86515	5.10
2.88182	5.10
2.89848	5.10
2.91515	5.10
2.93182	5.10
2.94848	5.10
2.96515	5.09
2.98182	5.09
2.99848	5.09
3.01515	5.09
3.03182	5.09
3.04848	5.09
3.06515	5.09
3.08182	5.09
3.09848	5.09
3.11515	5.09
3.13182	5.09
3.14848	5.09
3.16515	5.09
3.18182	5.09
3.19848	5.09
3.21515	5.09
3.23182	5.09
3.24848	5.09
3.26515	5.09
3.28182	5.09
3.29848	5.09
3.31515	5.09
3.33182	5.09
3.34848	5.09
3.36515	5.09
3.38182	5.09
3.39848	5.09
3.41515	5.09
3.43182	5.09
3.44848	5.09
3.46515	5.09
3.48182	5.09
3.49848	5.09
3.51515	5.09
3.53182	5.09
3.54848	5.09
3.56515	5.09
3.58182	5.09
3.59848	5.09
3.61515	5.09
3.63182	5.09
3.64848	5.09
3.66515	5.09
3.68182	5.09
3.69848	5.09
3.71515	5.09
3.73182	5.09
3.74848	5.09
3.76515	5.09
3.78182	5.09
3.79848	5.09
3.81515	5.09
3.83182	5.09
3.84848	5.09
3.86515	5.09
3.88182	5.09
3.89848	5.09
3.91515	5.09
3.93182	5.09
3.94848	5.09
3.96515	5.09
3.98182	5.09
3.99848	5.09

[Status Trace (Linear Velocity)]
Interval(msec)	1000
# of Points	240
Start Time(min)	0.015
End Time(min)	3.998
Intensity Units	
Intensity Multiplier	1
R.Time (min)	Intensity
0.01515	38.45
0.03182	37.56
0.04848	39.09
0.06515	40.25
0.08182	39.32
0.09848	39.00
0.11515	39.02
0.13182	39.02
0.14848	39.02
0.16515	39.02
0.18182	39.02
0.19848	39.02
0.21515	39.02
0.23182	39.02
0.24848	39.02
0.26515	39.02
0.28182	39.02
0.29848	39.02
0.31515	39.02
0.33182	39.02
0.34848	39.02
0.36515	39.02
0.38182	39.02
0.39848	39.02
0.41515	39.02
0.43182	39.02
0.44848	39.02
0.46515	39.01
0.48182	39.01
0.49848	39.01
0.51515	39.01
0.53182	39.02
0.54848	39.02
0.56515	39.02
0.58182	39.02
0.59848	39.02
0.61515	39.02
0.63182	39.02
0.64848	39.02
0.66515	39.02
0.68182	39.02
0.69848	39.02
0.71515	39.02
0.73182	39.02
0.74848	39.02
0.76515	39.02
0.78182	39.02
0.79848	39.02
0.81515	39.02
0.83182	39.02
0.84848	39.02
0.86515	39.02
0.88182	39.02
0.89848	39.02
0.91515	39.02
0.93182	39.02
0.94848	39.02
0.96515	39.02
0.98182	39.02
0.99848	39.02
1.01515	39.02
1.03182	39.02
1.04848	39.02
1.06515	39.02
1.08182	39.02
1.09848	39.02
1.11515	39.02
1.13182	39.02
1.14848	39.02
1.16515	39.02
1.18182	39.02
1.19848	39.02
1.21515	39.02
1.23182	39.02
1.24848	39.02
1.26515	39.02
1.28182	39.02
1.29848	39.02
1.31515	39.02
1.33182	39.02
1.34848	39.02
1.36515	39.02
1.38182	39.02
1.39848	39.02
1.41515	39.02
1.43182	39.02
1.44848	39.02
1.46515	39.02
1.48182	39.02
1.49848	39.02
1.51515	39.02
1.53182	39.02
1.54848	39.02
1.56515	39.02
1.58182	39.02
1.59848	39.02
1.61515	39.01
1.63182	39.00
1.64848	38.98
1.66515	38.96
1.68182	38.92
1.69848	38.89
1.71515	38.85
1.73182	38.82
1.74848	38.79
1.76515	38.75
1.78182	38.72
1.79848	38.69
1.81515	38.66
1.83182	38.63
1.84848	38.60
1.86515	38.57
1.88182	38.54
1.89848	38.51
1.91515	38.48
1.93182	38.45
1.94848	38.42
1.96515	38.39
1.98182	38.36
1.99848	38.33
2.01515	38.29
2.03182	38.27
2.04848	38.24
2.06515	38.21
2.08182	38.18
2.09848	38.15
2.11515	38.12
2.13182	38.09
2.14848	38.06
2.16515	38.03
2.18182	38.00
2.19848	37.97
2.21515	37.94
2.23182	37.91
2.24848	37.88
2.26515	37.85
2.28182	37.82
2.29848	37.79
2.31515	37.76
2.33182	37.73
2.34848	37.70
2.36515	37.68
2.38182	37.66
2.39848	37.66
2.41515	37.66
2.43182	37.66
2.44848	37.66
2.46515	37.66
2.48182	37.66
2.49848	37.66
2.51515	37.65
2.53182	37.65
2.54848	37.66
2.56515	37.66
2.58182	37.66
2.59848	37.65
2.61515	37.65
2.63182	37.65
2.64848	37.65
2.66515	37.65
2.68182	37.65
2.69848	37.65
2.71515	37.65
2.73182	37.65
2.74848	37.65
2.76515	37.65
2.78182	37.65
2.79848	37.65
2.81515	37.65
2.83182	37.65
2.84848	37.65
2.86515	37.65
2.88182	37.65
2.89848	37.65
2.91515	37.64
2.93182	37.64
2.94848	37.64
2.96515	37.64
2.98182	37.64
2.99848	37.64
3.01515	37.64
3.03182	37.64
3.04848	37.64
3.06515	37.64
3.08182	37.64
3.09848	37.64
3.11515	37.64
3.13182	37.63
3.14848	37.63
3.16515	37.63
3.18182	37.63
3.19848	37.63
3.21515	37.63
3.23182	37.63
3.24848	37.63
3.26515	37.63
3.28182	37.63
3.29848	37.63
3.31515	37.63
3.33182	37.63
3.34848	37.63
3.36515	37.63
3.38182	37.63
3.39848	37.63
3.41515	37.63
3.43182	37.63
3.44848	37.63
3.46515	37.63
3.48182	37.63
3.49848	37.63
3.51515	37.63
3.53182	37.63
3.54848	37.63
3.56515	37.63
3.58182	37.63
3.59848	37.63
3.61515	37.63
3.63182	37.63
3.64848	37.63
3.66515	37.63
3.68182	37.63
3.69848	37.63
3.71515	37.63
3.73182	37.63
3.74848	37.63
3.76515	37.63
3.78182	37.63
3.79848	37.63
3.81515	37.63
3.83182	37.63
3.84848	37.63
3.86515	37.63
3.88182	37.63
3.89848	37.63
3.91515	37.63
3.93182	37.63
3.94848	37.63
3.96515	37.63
3.98182	37.63
3.99848	37.63

