[Header]
Application Name	LabSolutions
Version	5.110
Data File Name	C:\Users\User\Desktop\Junior\UIC Prairie Sampling\7.18.23\071823_071.gcd
Output Date	8/29/2023
Output Time	10:40:24 AM

[File Information]
Type	Data File
Generated	8/28/2023 10:07:10 PM
Generated by	System Administrator
Modified	8/28/2023 10:13:47 PM
Modified by	System Administrator

[Sample Information]
Operator Name	System Administrator
Acquired	8/28/2023 10:09:45 PM
Sample Type	0:Unknown
Level	0
Sample Name	071
Sample ID	071
ISTD Amount1	1
ISTD Amount2	1
ISTD Amount3	1
ISTD Amount4	1
ISTD Amount5	1
ISTD Amount6	1
ISTD Amount7	1
ISTD Amount8	1
ISTD Amount9	1
ISTD Amount10	1
ISTD Amount11	1
ISTD Amount12	1
ISTD Amount13	1
ISTD Amount14	1
ISTD Amount15	1
ISTD Amount16	1
ISTD Amount17	1
ISTD Amount18	1
ISTD Amount19	1
ISTD Amount20	1
ISTD Amount21	1
ISTD Amount22	1
ISTD Amount23	1
ISTD Amount24	1
ISTD Amount25	1
ISTD Amount26	1
ISTD Amount27	1
ISTD Amount28	1
ISTD Amount29	1
ISTD Amount30	1
ISTD Amount31	1
ISTD Amount32	1
Sample Amount	1
Dilution Factor	1
Vial#	70
Injection Volume	1
Injection Count	1
Bar Code	

[Original Files]
Data File	C:\Users\User\Desktop\Junior\UIC Prairie Sampling\7.18.23\071823_071.gcd
Method File	C:\LabSolutions\Data\GHG_4min_2022\ghg3_togas_w_acet_4 min_new_int.gcm
Batch File	C:\LabSolutions\Data\BATCH FILES\071823.gcb
Report Format File	c:\LabSolutions\System\DEFAULT.lsr

[File Description]


[Configuration]
Instrument Name	C0B7VH3-Instrument1
Instrument #	1
Line #	1
# of Detectors	3
Detector ID	DET#1	DET#2	DET#3
Detector Name	FID	PTCD	ECD
# of Channels	1	1	1

[Peak Table(Ch1)]
# of Peaks	3
Peak#	R.Time	I.Time	F.Time	Area	Height	A/H	Conc.	Mark	ID#	Name	k'	Plate #	Plate Ht.	Tailing	Resolution	Sep.Factor	Area Ratio	Height Ratio	Conc. %	Norm Conc.
1	1.472	1.428	1.531	10548	5263	2.004	0.000	   	1	CO	0.000	9993	15.010	1.282	0.000	0.000	0	0	0.000	0.000
2	1.564	1.531	1.619	4401	2227	1.976	21.454	 V 	2	CH4	0.062	11366	13.197	0.000	1.559	0.000	0	0	4.311	4.311
3	1.989	1.941	2.715	2470710	1185604	2.084	476.151	   	3	CO2	0.351	17485	8.579	1.302	7.158	5.640	0	0	95.689	95.689

[Peak Table(Ch2)]
# of Peaks	0

[Peak Table(Ch3)]
# of Peaks	4
Peak#	R.Time	I.Time	F.Time	Area	Height	A/H	Conc.	Mark	ID#	Name	k'	Plate #	Plate Ht.	Tailing	Resolution	Sep.Factor	Area Ratio	Height Ratio	Conc. %	Norm Conc.
1	2.458	2.334	2.506	795	267	2.977	0.000	   			0.000	16030	9.357	0.000	0.000	0.000	0	0	0.000	0.000
2	2.517	2.506	2.565	177	85	2.070	0.000	 V 			0.024	7237	20.727	0.000	0.599	0.000	0	0	0.000	0.000
3	2.616	2.565	2.686	275	79	3.456	0.000	 V 			0.064	11633	12.894	0.000	0.919	2.688	0	0	0.000	0.000
4	2.891	2.836	2.953	11361	3574	3.179	0.168	   	1	N2O	0.176	15748	9.525	1.188	2.907	2.744	0	0	100.000	100.000

[Compound Results(Ch1)]
# of IDs	6
ID#	Name	R.Time	Area	Height	Conc.	Curve	3rd	2nd	1st	Constant	Area Ratio	Height Ratio	Conc. %	Norm Conc.
1	CO	1.472	10548	5263	0.000	Linear	0.000000e+00	0.000000e+00	0.000000e+00	0.000000e+00	0	0	0.000	0.000
2	CH4	1.564	4401	2227	21.454	Linear	0.000000e+00	0.000000e+00	2.051179e+002	0.000000e+00	0	0	4.311	4.311
3	CO2	1.989	2470710	1185604	476.151	Linear	0.000000e+00	0.000000e+00	5.188919e+003	0.000000e+00	0	0	95.689	95.689
4	Ethylene	0.000	0	0	0.000	Linear	0.000000e+00	0.000000e+00	0.000000e+00	0.000000e+00	0	0	0.000	0.000
5	Acetylene	0.000	0	0	0.000	Linear	0.000000e+00	0.000000e+00	0.000000e+00	0.000000e+00	0	0	0.000	0.000
6	Ethane	0.000	0	0	0.000	Linear	0.000000e+00	0.000000e+00	0.000000e+00	0.000000e+00	0	0	0.000	0.000

[Compound Results(Ch2)]
# of IDs	5
ID#	Name	R.Time	Area	Height	Conc.	Curve	3rd	2nd	1st	Constant	Area Ratio	Height Ratio	Conc. %	Norm Conc.
1	Hydrogen	0.000	0	0	0.000	Linear	0.000000e+00	0.000000e+00	0.000000e+00	0.000000e+00	0	0	0.000	0.000
2	Oxygen	0.000	0	0	0.000	Linear	0.000000e+00	0.000000e+00	0.000000e+00	0.000000e+00	0	0	0.000	0.000
3	Nitrogen	0.000	0	0	0.000	Linear	0.000000e+00	0.000000e+00	0.000000e+00	0.000000e+00	0	0	0.000	0.000
4	Methane	0.000	0	0	0.000	Linear	0.000000e+00	0.000000e+00	0.000000e+00	0.000000e+00	0	0	0.000	0.000
5	Carbon Monoxide	0.000	0	0	0.000	Linear	0.000000e+00	0.000000e+00	0.000000e+00	0.000000e+00	0	0	0.000	0.000

[Compound Results(Ch3)]
# of IDs	2
ID#	Name	R.Time	Area	Height	Conc.	Curve	3rd	2nd	1st	Constant	Area Ratio	Height Ratio	Conc. %	Norm Conc.
1	N2O	2.891	11361	3574	0.168	Linear	0.000000e+00	0.000000e+00	6.759880e+004	0.000000e+00	0	0	100.000	100.000
2	SF6	0.000	0	0	0.000	Linear	0.000000e+00	0.000000e+00	0.000000e+00	0.000000e+00	0	0	0.000	0.000

[Group Results(Ch1)]
# of Groups	0

[Group Results(Ch2)]
# of Groups	0

[Group Results(Ch3)]
# of Groups	0

[Chromatogram (Ch1)]
Interval(msec)	220
# of Points	1091
Start Time(min)	0.002
End Time(min)	3.998
R.Time (min)	Intensity
0.00167	-5
0.00533	-9
0.00900	-10
0.01267	-9
0.01633	-6
0.02000	-3
0.02367	0
0.02733	1
0.03100	-2
0.03467	-6
0.03833	-12
0.04200	-19
0.04567	-23
0.04933	-22
0.05300	-16
0.05667	-13
0.06033	-14
0.06400	-17
0.06767	-17
0.07133	-16
0.07500	-15
0.07867	-14
0.08233	-13
0.08600	-11
0.08967	-8
0.09333	-4
0.09700	-2
0.10067	1
0.10433	2
0.10800	0
0.11167	-1
0.11533	-1
0.11900	-0
0.12267	-0
0.12633	-1
0.13000	-4
0.13367	-8
0.13733	-9
0.14100	-8
0.14467	-5
0.14833	-3
0.15200	-1
0.15567	-2
0.15933	-4
0.16300	-4
0.16667	-5
0.17033	-6
0.17400	-7
0.17767	-7
0.18133	-5
0.18500	-3
0.18867	-3
0.19233	-4
0.19600	-7
0.19967	-10
0.20333	-13
0.20700	-13
0.21067	-13
0.21433	-10
0.21800	-9
0.22167	-8
0.22533	-6
0.22900	-2
0.23267	2
0.23633	4
0.24000	4
0.24367	2
0.24733	-2
0.25100	-7
0.25467	-12
0.25833	-13
0.26200	-13
0.26567	-12
0.26933	-9
0.27300	-5
0.27667	-2
0.28033	0
0.28400	1
0.28767	0
0.29133	-2
0.29500	-1
0.29867	1
0.30233	4
0.30600	6
0.30967	6
0.31333	8
0.31700	13
0.32067	21
0.32433	24
0.32800	19
0.33167	12
0.33533	8
0.33900	4
0.34267	4
0.34633	6
0.35000	10
0.35367	13
0.35733	15
0.36100	16
0.36467	15
0.36833	15
0.37200	18
0.37567	18
0.37933	16
0.38300	14
0.38667	15
0.39033	17
0.39400	18
0.39767	17
0.40133	17
0.40500	15
0.40867	10
0.41233	4
0.41600	-0
0.41967	-1
0.42333	3
0.42700	11
0.43067	18
0.43433	20
0.43800	17
0.44167	14
0.44533	12
0.44900	8
0.45267	3
0.45633	-1
0.46000	-7
0.46367	-12
0.46733	-15
0.47100	-18
0.47467	-21
0.47833	-24
0.48200	-23
0.48567	-22
0.48933	-21
0.49300	-19
0.49667	-14
0.50033	-10
0.50400	-9
0.50767	-7
0.51133	-7
0.51500	-10
0.51867	-11
0.52233	-6
0.52600	-0
0.52967	2
0.53333	1
0.53700	-0
0.54067	-1
0.54433	-2
0.54800	-4
0.55167	-5
0.55533	-7
0.55900	-9
0.56267	-11
0.56633	-12
0.57000	-14
0.57367	-14
0.57733	-12
0.58100	-9
0.58467	-7
0.58833	-5
0.59200	-3
0.59567	-5
0.59933	-6
0.60300	-5
0.60667	-3
0.61033	-3
0.61400	-2
0.61767	-1
0.62133	4
0.62500	8
0.62867	11
0.63233	12
0.63600	11
0.63967	9
0.64333	4
0.64700	-5
0.65067	-15
0.65433	-23
0.65800	-26
0.66167	-26
0.66533	-25
0.66900	-22
0.67267	-15
0.67633	-7
0.68000	-1
0.68367	-0
0.68733	1
0.69100	5
0.69467	9
0.69833	12
0.70200	12
0.70567	10
0.70933	6
0.71300	2
0.71667	-1
0.72033	-1
0.72400	-1
0.72767	-1
0.73133	-1
0.73500	-0
0.73867	-5
0.74233	-14
0.74600	-21
0.74967	-24
0.75333	-20
0.75700	-10
0.76067	0
0.76433	7
0.76800	9
0.77167	8
0.77533	4
0.77900	-0
0.78267	-4
0.78633	-7
0.79000	-10
0.79367	-12
0.79733	-14
0.80100	-14
0.80467	-15
0.80833	-18
0.81200	-22
0.81567	-24
0.81933	-24
0.82300	-21
0.82667	-16
0.83033	-12
0.83400	-8
0.83767	-6
0.84133	-5
0.84500	-9
0.84867	-13
0.85233	-14
0.85600	-12
0.85967	-10
0.86333	-8
0.86700	-6
0.87067	-6
0.87433	-4
0.87800	2
0.88167	9
0.88533	10
0.88900	6
0.89267	-1
0.89633	-6
0.90000	-11
0.90367	-13
0.90733	-11
0.91100	-8
0.91467	-6
0.91833	-5
0.92200	-6
0.92567	-10
0.92933	-16
0.93300	-20
0.93667	-22
0.94033	-22
0.94400	-22
0.94767	-22
0.95133	-19
0.95500	-17
0.95867	-16
0.96233	-15
0.96600	-9
0.96967	-2
0.97333	2
0.97700	5
0.98067	3
0.98433	1
0.98800	-1
0.99167	-1
0.99533	-3
0.99900	-6
1.00267	-9
1.00633	-14
1.01000	-18
1.01367	-19
1.01733	-16
1.02100	-15
1.02467	-15
1.02833	-13
1.03200	-9
1.03567	-4
1.03933	-0
1.04300	3
1.04667	3
1.05033	4
1.05400	5
1.05767	7
1.06133	7
1.06500	3
1.06867	-3
1.07233	-9
1.07600	-13
1.07967	-18
1.08333	-23
1.08700	-26
1.09067	-26
1.09433	-27
1.09800	-30
1.10167	-30
1.10533	-29
1.10900	-29
1.11267	-28
1.11633	-27
1.12000	-24
1.12367	-21
1.12733	-19
1.13100	-17
1.13467	-17
1.13833	-21
1.14200	-26
1.14567	-30
1.14933	-30
1.15300	-28
1.15667	-25
1.16033	-23
1.16400	-20
1.16767	-18
1.17133	-15
1.17500	-8
1.17867	-1
1.18233	2
1.18600	1
1.18967	-4
1.19333	-12
1.19700	-21
1.20067	-28
1.20433	-32
1.20800	-30
1.21167	-27
1.21533	-25
1.21900	-25
1.22267	-25
1.22633	-26
1.23000	-25
1.23367	-22
1.23733	-20
1.24100	-20
1.24467	-21
1.24833	-23
1.25200	-22
1.25567	-21
1.25933	-23
1.26300	-28
1.26667	-33
1.27033	-39
1.27400	-44
1.27767	-43
1.28133	-35
1.28500	-24
1.28867	-15
1.29233	-13
1.29600	-11
1.29967	-8
1.30333	-8
1.30700	-10
1.31067	-12
1.31433	-15
1.31800	-21
1.32167	-27
1.32533	-30
1.32900	-31
1.33267	-27
1.33633	-23
1.34000	-18
1.34367	-14
1.34733	-14
1.35100	-17
1.35467	-20
1.35833	-21
1.36200	-21
1.36567	-22
1.36933	-28
1.37300	-34
1.37667	-35
1.38033	-36
1.38400	-34
1.38767	-31
1.39133	-29
1.39500	-31
1.39867	-33
1.40233	-35
1.40600	-37
1.40967	-41
1.41333	-46
1.41700	-47
1.42067	-44
1.42433	-40
1.42800	-37
1.43167	-34
1.43533	-26
1.43900	-10
1.44267	31
1.44633	224
1.45000	781
1.45367	1711
1.45733	2785
1.46100	3776
1.46467	4558
1.46833	5063
1.47200	5228
1.47567	5009
1.47933	4445
1.48300	3670
1.48667	2848
1.49033	2106
1.49400	1501
1.49767	1043
1.50133	712
1.50500	480
1.50867	324
1.51233	224
1.51600	165
1.51967	131
1.52333	107
1.52700	90
1.53067	82
1.53433	106
1.53800	211
1.54167	452
1.54533	825
1.54900	1251
1.55267	1644
1.55633	1952
1.56000	2148
1.56367	2196
1.56733	2071
1.57100	1796
1.57467	1439
1.57833	1077
1.58200	761
1.58567	514
1.58933	336
1.59300	214
1.59667	132
1.60033	79
1.60400	42
1.60767	15
1.61133	-3
1.61500	-19
1.61867	-29
1.62233	-32
1.62600	-30
1.62967	-26
1.63333	-22
1.63700	-20
1.64067	-21
1.64433	-23
1.64800	-27
1.65167	-34
1.65533	-41
1.65900	-47
1.66267	-50
1.66633	-51
1.67000	-50
1.67367	-47
1.67733	-51
1.68100	-56
1.68467	-58
1.68833	-55
1.69200	-51
1.69567	-47
1.69933	-44
1.70300	-44
1.70667	-46
1.71033	-48
1.71400	-48
1.71767	-48
1.72133	-47
1.72500	-49
1.72867	-50
1.73233	-48
1.73600	-45
1.73967	-45
1.74333	-47
1.74700	-51
1.75067	-54
1.75433	-57
1.75800	-60
1.76167	-64
1.76533	-67
1.76900	-69
1.77267	-70
1.77633	-69
1.78000	-66
1.78367	-58
1.78733	-50
1.79100	-43
1.79467	-38
1.79833	-34
1.80200	-33
1.80567	-34
1.80933	-35
1.81300	-35
1.81667	-37
1.82033	-41
1.82400	-43
1.82767	-43
1.83133	-45
1.83500	-49
1.83867	-52
1.84233	-53
1.84600	-53
1.84967	-50
1.85333	-48
1.85700	-47
1.86067	-45
1.86433	-48
1.86800	-57
1.87167	-66
1.87533	-69
1.87900	-66
1.88267	-61
1.88633	-57
1.89000	-55
1.89367	-54
1.89733	-54
1.90100	-54
1.90467	-54
1.90833	-54
1.91200	-57
1.91567	-59
1.91933	-60
1.92300	-60
1.92667	-59
1.93033	-56
1.93400	-56
1.93767	-56
1.94133	-53
1.94500	-33
1.94867	102
1.95233	985
1.95600	5386
1.95967	21738
1.96333	67868
1.96700	167277
1.97067	332674
1.97433	550036
1.97800	781531
1.98167	984707
1.98533	1125977
1.98900	1185566
1.99267	1158858
1.99633	1056427
2.00000	902176
2.00367	726104
2.00733	555470
2.01100	408158
2.01467	291323
2.01833	204212
2.02200	142035
2.02567	98947
2.02933	69629
2.03300	49874
2.03667	36593
2.04033	27624
2.04400	21506
2.04767	17267
2.05133	14271
2.05500	12098
2.05867	10484
2.06233	9251
2.06600	8280
2.06967	7497
2.07333	6852
2.07700	6312
2.08067	5855
2.08433	5461
2.08800	5117
2.09167	4811
2.09533	4539
2.09900	4297
2.10267	4078
2.10633	3877
2.11000	3691
2.11367	3519
2.11733	3360
2.12100	3219
2.12467	3092
2.12833	2973
2.13200	2857
2.13567	2745
2.13933	2639
2.14300	2543
2.14667	2455
2.15033	2372
2.15400	2293
2.15767	2218
2.16133	2149
2.16500	2083
2.16867	2020
2.17233	1962
2.17600	1911
2.17967	1862
2.18333	1811
2.18700	1763
2.19067	1717
2.19433	1672
2.19800	1627
2.20167	1582
2.20533	1538
2.20900	1498
2.21267	1462
2.21633	1426
2.22000	1393
2.22367	1361
2.22733	1329
2.23100	1299
2.23467	1272
2.23833	1248
2.24200	1223
2.24567	1198
2.24933	1173
2.25300	1149
2.25667	1126
2.26033	1105
2.26400	1083
2.26767	1061
2.27133	1039
2.27500	1015
2.27867	992
2.28233	968
2.28600	943
2.28967	918
2.29333	894
2.29700	874
2.30067	857
2.30433	845
2.30800	835
2.31167	822
2.31533	808
2.31900	794
2.32267	782
2.32633	771
2.33000	761
2.33367	749
2.33733	739
2.34100	731
2.34467	724
2.34833	714
2.35200	702
2.35567	681
2.35933	663
2.36300	653
2.36667	646
2.37033	639
2.37400	629
2.37767	620
2.38133	610
2.38500	601
2.38867	594
2.39233	588
2.39600	581
2.39967	571
2.40333	560
2.40700	552
2.41067	546
2.41433	540
2.41800	536
2.42167	533
2.42533	531
2.42900	526
2.43267	518
2.43633	510
2.44000	500
2.44367	490
2.44733	480
2.45100	469
2.45467	461
2.45833	455
2.46200	452
2.46567	448
2.46933	443
2.47300	438
2.47667	436
2.48033	434
2.48400	428
2.48767	420
2.49133	412
2.49500	402
2.49867	393
2.50233	388
2.50600	384
2.50967	383
2.51333	386
2.51700	390
2.52067	391
2.52433	389
2.52800	387
2.53167	385
2.53533	381
2.53900	373
2.54267	363
2.54633	355
2.55000	350
2.55367	346
2.55733	339
2.56100	332
2.56467	324
2.56833	314
2.57200	306
2.57567	302
2.57933	299
2.58300	298
2.58667	297
2.59033	294
2.59400	291
2.59767	289
2.60133	286
2.60500	285
2.60867	287
2.61233	289
2.61600	291
2.61967	289
2.62333	282
2.62700	271
2.63067	260
2.63433	251
2.63800	242
2.64167	237
2.64533	233
2.64900	230
2.65267	230
2.65633	232
2.66000	233
2.66367	232
2.66733	230
2.67100	229
2.67467	227
2.67833	225
2.68200	223
2.68567	221
2.68933	219
2.69300	215
2.69667	210
2.70033	207
2.70400	201
2.70767	197
2.71133	194
2.71500	193
2.71867	195
2.72233	198
2.72600	201
2.72967	201
2.73333	197
2.73700	192
2.74067	185
2.74433	180
2.74800	176
2.75167	173
2.75533	173
2.75900	174
2.76267	177
2.76633	177
2.77000	177
2.77367	175
2.77733	172
2.78100	167
2.78467	163
2.78833	162
2.79200	162
2.79567	162
2.79933	161
2.80300	162
2.80667	163
2.81033	161
2.81400	158
2.81767	155
2.82133	155
2.82500	157
2.82867	159
2.83233	157
2.83600	153
2.83967	149
2.84333	149
2.84700	147
2.85067	143
2.85433	139
2.85800	138
2.86167	138
2.86533	139
2.86900	140
2.87267	140
2.87633	139
2.88000	140
2.88367	140
2.88733	140
2.89100	140
2.89467	140
2.89833	142
2.90200	146
2.90567	148
2.90933	146
2.91300	139
2.91667	127
2.92033	116
2.92400	109
2.92767	108
2.93133	113
2.93500	120
2.93867	122
2.94233	117
2.94600	107
2.94967	99
2.95333	93
2.95700	91
2.96067	90
2.96433	88
2.96800	87
2.97167	87
2.97533	90
2.97900	93
2.98267	95
2.98633	97
2.99000	98
2.99367	97
2.99733	97
3.00100	98
3.00467	101
3.00833	105
3.01200	106
3.01567	106
3.01933	104
3.02300	101
3.02667	97
3.03033	93
3.03400	90
3.03767	87
3.04133	82
3.04500	76
3.04867	73
3.05233	72
3.05600	74
3.05967	74
3.06333	72
3.06700	72
3.07067	71
3.07433	70
3.07800	69
3.08167	68
3.08533	67
3.08900	67
3.09267	66
3.09633	65
3.10000	66
3.10367	66
3.10733	62
3.11100	57
3.11467	52
3.11833	49
3.12200	50
3.12567	51
3.12933	55
3.13300	59
3.13667	65
3.14033	73
3.14400	81
3.14767	83
3.15133	83
3.15500	81
3.15867	79
3.16233	75
3.16600	70
3.16967	66
3.17333	63
3.17700	60
3.18067	58
3.18433	53
3.18800	45
3.19167	38
3.19533	37
3.19900	39
3.20267	40
3.20633	40
3.21000	42
3.21367	44
3.21733	46
3.22100	49
3.22467	51
3.22833	50
3.23200	49
3.23567	49
3.23933	49
3.24300	46
3.24667	42
3.25033	37
3.25400	34
3.25767	33
3.26133	33
3.26500	35
3.26867	38
3.27233	42
3.27600	43
3.27967	39
3.28333	33
3.28700	28
3.29067	26
3.29433	25
3.29800	23
3.30167	21
3.30533	20
3.30900	20
3.31267	21
3.31633	22
3.32000	22
3.32367	21
3.32733	18
3.33100	13
3.33467	10
3.33833	10
3.34200	13
3.34567	17
3.34933	19
3.35300	20
3.35667	19
3.36033	16
3.36400	13
3.36767	14
3.37133	15
3.37500	17
3.37867	20
3.38233	22
3.38600	23
3.38967	20
3.39333	13
3.39700	8
3.40067	6
3.40433	9
3.40800	11
3.41167	10
3.41533	8
3.41900	6
3.42267	6
3.42633	6
3.43000	4
3.43367	2
3.43733	0
3.44100	-2
3.44467	-4
3.44833	-5
3.45200	-7
3.45567	-10
3.45933	-14
3.46300	-17
3.46667	-19
3.47033	-20
3.47400	-17
3.47767	-13
3.48133	-6
3.48500	2
3.48867	8
3.49233	9
3.49600	9
3.49967	8
3.50333	9
3.50700	11
3.51067	15
3.51433	19
3.51800	20
3.52167	19
3.52533	18
3.52900	15
3.53267	12
3.53633	10
3.54000	7
3.54367	2
3.54733	-5
3.55100	-10
3.55467	-10
3.55833	-12
3.56200	-15
3.56567	-18
3.56933	-19
3.57300	-19
3.57667	-18
3.58033	-17
3.58400	-14
3.58767	-11
3.59133	-6
3.59500	-3
3.59867	1
3.60233	5
3.60600	6
3.60967	4
3.61333	3
3.61700	0
3.62067	-8
3.62433	-17
3.62800	-23
3.63167	-27
3.63533	-31
3.63900	-33
3.64267	-33
3.64633	-31
3.65000	-28
3.65367	-22
3.65733	-16
3.66100	-13
3.66467	-9
3.66833	-8
3.67200	-11
3.67567	-12
3.67933	-14
3.68300	-16
3.68667	-19
3.69033	-20
3.69400	-22
3.69767	-25
3.70133	-27
3.70500	-28
3.70867	-27
3.71233	-27
3.71600	-29
3.71967	-30
3.72333	-30
3.72700	-25
3.73067	-21
3.73433	-19
3.73800	-21
3.74167	-25
3.74533	-27
3.74900	-26
3.75267	-27
3.75633	-28
3.76000	-26
3.76367	-25
3.76733	-25
3.77100	-26
3.77467	-27
3.77833	-27
3.78200	-25
3.78567	-25
3.78933	-25
3.79300	-26
3.79667	-24
3.80033	-20
3.80400	-16
3.80767	-16
3.81133	-22
3.81500	-29
3.81867	-33
3.82233	-35
3.82600	-35
3.82967	-34
3.83333	-32
3.83700	-28
3.84067	-25
3.84433	-24
3.84800	-23
3.85167	-23
3.85533	-24
3.85900	-26
3.86267	-29
3.86633	-35
3.87000	-42
3.87367	-45
3.87733	-46
3.88100	-47
3.88467	-47
3.88833	-45
3.89200	-44
3.89567	-44
3.89933	-46
3.90300	-51
3.90667	-55
3.91033	-55
3.91400	-53
3.91767	-52
3.92133	-52
3.92500	-53
3.92867	-51
3.93233	-44
3.93600	-40
3.93967	-40
3.94333	-39
3.94700	-40
3.95067	-41
3.95433	-42
3.95800	-41
3.96167	-38
3.96533	-35
3.96900	-35
3.97267	-36
3.97633	-38
3.98000	-42
3.98367	-48
3.98733	-55
3.99100	-61
3.99467	-64
3.99833	-64

[Chromatogram (Ch2)]
Interval(msec)	220
# of Points	1091
Start Time(min)	0.002
End Time(min)	3.998
R.Time (min)	Intensity
0.00167	0
0.00533	0
0.00900	0
0.01267	-0
0.01633	0
0.02000	0
0.02367	0
0.02733	0
0.03100	0
0.03467	0
0.03833	-0
0.04200	-0
0.04567	-0
0.04933	-1
0.05300	-1
0.05667	-0
0.06033	-0
0.06400	-0
0.06767	-0
0.07133	-0
0.07500	-0
0.07867	-0
0.08233	-0
0.08600	-0
0.08967	-0
0.09333	0
0.09700	0
0.10067	1
0.10433	1
0.10800	1
0.11167	1
0.11533	1
0.11900	1
0.12267	1
0.12633	1
0.13000	1
0.13367	1
0.13733	1
0.14100	1
0.14467	1
0.14833	1
0.15200	1
0.15567	2
0.15933	2
0.16300	2
0.16667	2
0.17033	2
0.17400	2
0.17767	1
0.18133	1
0.18500	0
0.18867	0
0.19233	0
0.19600	0
0.19967	0
0.20333	1
0.20700	1
0.21067	1
0.21433	1
0.21800	1
0.22167	1
0.22533	1
0.22900	1
0.23267	1
0.23633	0
0.24000	-0
0.24367	-0
0.24733	-0
0.25100	-0
0.25467	-0
0.25833	-0
0.26200	-0
0.26567	-0
0.26933	-0
0.27300	-0
0.27667	-0
0.28033	-0
0.28400	-0
0.28767	-0
0.29133	-0
0.29500	-0
0.29867	-0
0.30233	-0
0.30600	-0
0.30967	-0
0.31333	-0
0.31700	-0
0.32067	-0
0.32433	-0
0.32800	-0
0.33167	-0
0.33533	-0
0.33900	0
0.34267	-0
0.34633	-0
0.35000	-0
0.35367	-0
0.35733	-0
0.36100	0
0.36467	0
0.36833	0
0.37200	0
0.37567	0
0.37933	0
0.38300	0
0.38667	0
0.39033	0
0.39400	0
0.39767	0
0.40133	0
0.40500	0
0.40867	-0
0.41233	-0
0.41600	-1
0.41967	-1
0.42333	-1
0.42700	-1
0.43067	-1
0.43433	-1
0.43800	-1
0.44167	-1
0.44533	-1
0.44900	-1
0.45267	-1
0.45633	-1
0.46000	-1
0.46367	-1
0.46733	-1
0.47100	-1
0.47467	-1
0.47833	-1
0.48200	-0
0.48567	-0
0.48933	-0
0.49300	-0
0.49667	-0
0.50033	-1
0.50400	-1
0.50767	-1
0.51133	-1
0.51500	-1
0.51867	-2
0.52233	-2
0.52600	-2
0.52967	-1
0.53333	-1
0.53700	-1
0.54067	-1
0.54433	-1
0.54800	-1
0.55167	-1
0.55533	-1
0.55900	-1
0.56267	-1
0.56633	-1
0.57000	-1
0.57367	-1
0.57733	-1
0.58100	-0
0.58467	-0
0.58833	0
0.59200	0
0.59567	1
0.59933	1
0.60300	1
0.60667	0
0.61033	0
0.61400	0
0.61767	-0
0.62133	-0
0.62500	-0
0.62867	-0
0.63233	0
0.63600	0
0.63967	0
0.64333	0
0.64700	0
0.65067	-0
0.65433	-0
0.65800	-0
0.66167	-0
0.66533	-0
0.66900	0
0.67267	0
0.67633	0
0.68000	0
0.68367	0
0.68733	0
0.69100	0
0.69467	0
0.69833	0
0.70200	0
0.70567	-0
0.70933	-0
0.71300	-0
0.71667	-1
0.72033	-1
0.72400	-1
0.72767	-1
0.73133	-1
0.73500	-1
0.73867	-1
0.74233	-2
0.74600	-2
0.74967	-2
0.75333	-2
0.75700	-2
0.76067	-2
0.76433	-2
0.76800	-2
0.77167	-1
0.77533	-1
0.77900	-1
0.78267	-1
0.78633	-1
0.79000	-1
0.79367	-1
0.79733	-2
0.80100	-2
0.80467	-2
0.80833	-2
0.81200	-2
0.81567	-2
0.81933	-2
0.82300	-2
0.82667	-2
0.83033	-2
0.83400	-2
0.83767	-2
0.84133	-2
0.84500	-2
0.84867	-2
0.85233	-2
0.85600	-1
0.85967	-1
0.86333	-1
0.86700	-1
0.87067	-1
0.87433	-1
0.87800	-1
0.88167	-1
0.88533	-2
0.88900	-2
0.89267	-1
0.89633	-1
0.90000	-1
0.90367	-1
0.90733	-1
0.91100	-1
0.91467	-0
0.91833	-0
0.92200	-0
0.92567	-0
0.92933	-0
0.93300	-1
0.93667	-1
0.94033	-1
0.94400	-1
0.94767	-1
0.95133	-1
0.95500	-1
0.95867	-1
0.96233	-1
0.96600	-1
0.96967	-2
0.97333	-2
0.97700	-2
0.98067	-2
0.98433	-2
0.98800	-2
0.99167	-2
0.99533	-1
0.99900	-1
1.00267	-1
1.00633	-1
1.01000	-1
1.01367	-1
1.01733	-1
1.02100	-1
1.02467	-2
1.02833	-2
1.03200	-2
1.03567	-2
1.03933	-2
1.04300	-2
1.04667	-2
1.05033	-2
1.05400	-2
1.05767	-2
1.06133	-2
1.06500	-2
1.06867	-2
1.07233	-2
1.07600	-2
1.07967	-2
1.08333	-2
1.08700	-2
1.09067	-2
1.09433	-2
1.09800	-3
1.10167	-3
1.10533	-3
1.10900	-3
1.11267	-3
1.11633	-3
1.12000	-2
1.12367	-2
1.12733	-2
1.13100	-2
1.13467	-2
1.13833	-2
1.14200	-2
1.14567	-2
1.14933	-2
1.15300	-2
1.15667	-2
1.16033	-2
1.16400	-2
1.16767	-2
1.17133	-1
1.17500	-2
1.17867	-2
1.18233	-2
1.18600	-2
1.18967	-2
1.19333	-2
1.19700	-2
1.20067	-2
1.20433	-2
1.20800	-2
1.21167	-2
1.21533	-2
1.21900	-2
1.22267	-2
1.22633	-1
1.23000	-1
1.23367	-1
1.23733	-1
1.24100	-1
1.24467	-1
1.24833	-1
1.25200	-1
1.25567	-1
1.25933	-1
1.26300	-1
1.26667	-1
1.27033	-1
1.27400	-1
1.27767	-1
1.28133	-1
1.28500	-1
1.28867	-1
1.29233	-1
1.29600	-1
1.29967	-1
1.30333	-1
1.30700	-1
1.31067	-1
1.31433	-2
1.31800	-2
1.32167	-1
1.32533	-1
1.32900	-1
1.33267	-1
1.33633	-1
1.34000	-1
1.34367	-1
1.34733	-0
1.35100	-1
1.35467	-1
1.35833	-1
1.36200	-1
1.36567	-1
1.36933	-1
1.37300	-1
1.37667	-2
1.38033	-2
1.38400	-2
1.38767	-2
1.39133	-3
1.39500	-3
1.39867	-3
1.40233	-3
1.40600	-2
1.40967	-2
1.41333	-2
1.41700	-2
1.42067	-2
1.42433	-2
1.42800	-2
1.43167	-2
1.43533	-2
1.43900	-2
1.44267	-2
1.44633	-2
1.45000	-2
1.45367	-2
1.45733	-2
1.46100	-2
1.46467	-2
1.46833	-1
1.47200	-1
1.47567	-2
1.47933	-2
1.48300	-1
1.48667	-1
1.49033	-1
1.49400	-1
1.49767	-1
1.50133	-1
1.50500	-2
1.50867	-2
1.51233	-2
1.51600	-2
1.51967	-2
1.52333	-2
1.52700	-2
1.53067	-2
1.53433	-2
1.53800	-2
1.54167	-2
1.54533	-2
1.54900	-2
1.55267	-2
1.55633	-2
1.56000	-2
1.56367	-2
1.56733	-1
1.57100	-2
1.57467	-2
1.57833	-2
1.58200	-2
1.58567	-2
1.58933	-3
1.59300	-3
1.59667	-3
1.60033	-4
1.60400	-5
1.60767	-7
1.61133	-8
1.61500	-10
1.61867	-12
1.62233	-15
1.62600	-18
1.62967	-21
1.63333	-24
1.63700	-27
1.64067	-30
1.64433	-33
1.64800	-36
1.65167	-40
1.65533	-43
1.65900	-46
1.66267	-50
1.66633	-54
1.67000	-58
1.67367	-63
1.67733	-67
1.68100	-72
1.68467	-77
1.68833	-81
1.69200	-85
1.69567	-87
1.69933	-90
1.70300	-92
1.70667	-93
1.71033	-94
1.71400	-95
1.71767	-96
1.72133	-96
1.72500	-96
1.72867	-96
1.73233	-96
1.73600	-95
1.73967	-95
1.74333	-94
1.74700	-94
1.75067	-94
1.75433	-93
1.75800	-93
1.76167	-93
1.76533	-94
1.76900	-94
1.77267	-95
1.77633	-96
1.78000	-97
1.78367	-98
1.78733	-99
1.79100	-99
1.79467	-100
1.79833	-100
1.80200	-101
1.80567	-101
1.80933	-101
1.81300	-102
1.81667	-102
1.82033	-102
1.82400	-102
1.82767	-102
1.83133	-102
1.83500	-102
1.83867	-101
1.84233	-101
1.84600	-101
1.84967	-100
1.85333	-100
1.85700	-99
1.86067	-99
1.86433	-99
1.86800	-99
1.87167	-99
1.87533	-99
1.87900	-99
1.88267	-99
1.88633	-98
1.89000	-98
1.89367	-98
1.89733	-97
1.90100	-97
1.90467	-97
1.90833	-97
1.91200	-97
1.91567	-98
1.91933	-98
1.92300	-98
1.92667	-98
1.93033	-97
1.93400	-97
1.93767	-96
1.94133	-96
1.94500	-96
1.94867	-96
1.95233	-95
1.95600	-95
1.95967	-95
1.96333	-95
1.96700	-95
1.97067	-95
1.97433	-94
1.97800	-94
1.98167	-94
1.98533	-93
1.98900	-93
1.99267	-92
1.99633	-92
2.00000	-92
2.00367	-92
2.00733	-91
2.01100	-92
2.01467	-92
2.01833	-91
2.02200	-91
2.02567	-90
2.02933	-90
2.03300	-89
2.03667	-89
2.04033	-88
2.04400	-88
2.04767	-88
2.05133	-88
2.05500	-88
2.05867	-88
2.06233	-88
2.06600	-88
2.06967	-87
2.07333	-87
2.07700	-87
2.08067	-86
2.08433	-86
2.08800	-85
2.09167	-85
2.09533	-85
2.09900	-85
2.10267	-85
2.10633	-85
2.11000	-84
2.11367	-84
2.11733	-84
2.12100	-84
2.12467	-83
2.12833	-83
2.13200	-83
2.13567	-83
2.13933	-83
2.14300	-83
2.14667	-83
2.15033	-83
2.15400	-83
2.15767	-83
2.16133	-82
2.16500	-82
2.16867	-82
2.17233	-81
2.17600	-81
2.17967	-81
2.18333	-81
2.18700	-81
2.19067	-80
2.19433	-79
2.19800	-79
2.20167	-78
2.20533	-77
2.20900	-76
2.21267	-76
2.21633	-75
2.22000	-75
2.22367	-75
2.22733	-74
2.23100	-74
2.23467	-73
2.23833	-73
2.24200	-73
2.24567	-73
2.24933	-73
2.25300	-73
2.25667	-73
2.26033	-73
2.26400	-73
2.26767	-73
2.27133	-72
2.27500	-72
2.27867	-71
2.28233	-71
2.28600	-70
2.28967	-70
2.29333	-70
2.29700	-70
2.30067	-69
2.30433	-69
2.30800	-69
2.31167	-68
2.31533	-68
2.31900	-68
2.32267	-68
2.32633	-69
2.33000	-69
2.33367	-69
2.33733	-68
2.34100	-67
2.34467	-66
2.34833	-64
2.35200	-63
2.35567	-61
2.35933	-60
2.36300	-59
2.36667	-58
2.37033	-57
2.37400	-55
2.37767	-53
2.38133	-50
2.38500	-47
2.38867	-43
2.39233	-40
2.39600	-35
2.39967	-31
2.40333	-27
2.40700	-23
2.41067	-19
2.41433	-16
2.41800	-13
2.42167	-10
2.42533	-8
2.42900	-6
2.43267	-4
2.43633	-2
2.44000	-0
2.44367	2
2.44733	4
2.45100	6
2.45467	7
2.45833	8
2.46200	8
2.46567	9
2.46933	9
2.47300	10
2.47667	10
2.48033	11
2.48400	12
2.48767	13
2.49133	14
2.49500	15
2.49867	15
2.50233	16
2.50600	17
2.50967	17
2.51333	17
2.51700	18
2.52067	18
2.52433	18
2.52800	18
2.53167	18
2.53533	18
2.53900	17
2.54267	16
2.54633	15
2.55000	15
2.55367	14
2.55733	13
2.56100	12
2.56467	12
2.56833	11
2.57200	11
2.57567	11
2.57933	12
2.58300	12
2.58667	13
2.59033	14
2.59400	14
2.59767	15
2.60133	15
2.60500	16
2.60867	16
2.61233	16
2.61600	16
2.61967	16
2.62333	16
2.62700	17
2.63067	17
2.63433	18
2.63800	18
2.64167	18
2.64533	18
2.64900	18
2.65267	18
2.65633	18
2.66000	19
2.66367	19
2.66733	19
2.67100	20
2.67467	21
2.67833	21
2.68200	22
2.68567	23
2.68933	24
2.69300	25
2.69667	26
2.70033	27
2.70400	27
2.70767	27
2.71133	27
2.71500	27
2.71867	27
2.72233	26
2.72600	26
2.72967	25
2.73333	25
2.73700	25
2.74067	25
2.74433	25
2.74800	25
2.75167	25
2.75533	26
2.75900	26
2.76267	26
2.76633	26
2.77000	27
2.77367	27
2.77733	28
2.78100	28
2.78467	28
2.78833	29
2.79200	29
2.79567	29
2.79933	29
2.80300	30
2.80667	30
2.81033	30
2.81400	30
2.81767	29
2.82133	29
2.82500	29
2.82867	28
2.83233	28
2.83600	28
2.83967	28
2.84333	28
2.84700	28
2.85067	28
2.85433	27
2.85800	26
2.86167	23
2.86533	19
2.86900	12
2.87267	2
2.87633	-13
2.88000	-32
2.88367	-56
2.88733	-86
2.89100	-121
2.89467	-162
2.89833	-208
2.90200	-258
2.90567	-313
2.90933	-371
2.91300	-432
2.91667	-495
2.92033	-559
2.92400	-624
2.92767	-689
2.93133	-752
2.93500	-812
2.93867	-869
2.94233	-923
2.94600	-977
2.94967	-1032
2.95333	-1080
2.95700	-1111
2.96067	-1120
2.96433	-1103
2.96800	-1063
2.97167	-1005
2.97533	-934
2.97900	-855
2.98267	-774
2.98633	-692
2.99000	-614
2.99367	-540
2.99733	-472
3.00100	-410
3.00467	-355
3.00833	-305
3.01200	-262
3.01567	-223
3.01933	-190
3.02300	-161
3.02667	-135
3.03033	-114
3.03400	-95
3.03767	-79
3.04133	-65
3.04500	-53
3.04867	-43
3.05233	-34
3.05600	-27
3.05967	-21
3.06333	-15
3.06700	-11
3.07067	-7
3.07433	-3
3.07800	-1
3.08167	2
3.08533	4
3.08900	6
3.09267	7
3.09633	9
3.10000	10
3.10367	12
3.10733	13
3.11100	14
3.11467	15
3.11833	15
3.12200	16
3.12567	17
3.12933	17
3.13300	18
3.13667	18
3.14033	18
3.14400	19
3.14767	19
3.15133	19
3.15500	19
3.15867	20
3.16233	20
3.16600	20
3.16967	20
3.17333	21
3.17700	21
3.18067	21
3.18433	21
3.18800	21
3.19167	21
3.19533	22
3.19900	22
3.20267	23
3.20633	23
3.21000	23
3.21367	23
3.21733	24
3.22100	24
3.22467	24
3.22833	24
3.23200	24
3.23567	24
3.23933	24
3.24300	24
3.24667	25
3.25033	25
3.25400	26
3.25767	26
3.26133	26
3.26500	27
3.26867	27
3.27233	27
3.27600	28
3.27967	28
3.28333	28
3.28700	28
3.29067	28
3.29433	28
3.29800	28
3.30167	29
3.30533	29
3.30900	29
3.31267	29
3.31633	30
3.32000	30
3.32367	30
3.32733	30
3.33100	30
3.33467	30
3.33833	30
3.34200	30
3.34567	30
3.34933	30
3.35300	30
3.35667	29
3.36033	29
3.36400	29
3.36767	29
3.37133	29
3.37500	29
3.37867	29
3.38233	29
3.38600	29
3.38967	29
3.39333	29
3.39700	29
3.40067	29
3.40433	29
3.40800	29
3.41167	29
3.41533	29
3.41900	29
3.42267	29
3.42633	29
3.43000	29
3.43367	29
3.43733	29
3.44100	29
3.44467	29
3.44833	29
3.45200	29
3.45567	29
3.45933	29
3.46300	29
3.46667	29
3.47033	29
3.47400	29
3.47767	29
3.48133	29
3.48500	29
3.48867	29
3.49233	29
3.49600	29
3.49967	29
3.50333	29
3.50700	29
3.51067	29
3.51433	29
3.51800	29
3.52167	29
3.52533	29
3.52900	29
3.53267	29
3.53633	29
3.54000	29
3.54367	29
3.54733	30
3.55100	30
3.55467	30
3.55833	30
3.56200	30
3.56567	30
3.56933	30
3.57300	30
3.57667	30
3.58033	30
3.58400	30
3.58767	30
3.59133	30
3.59500	30
3.59867	30
3.60233	30
3.60600	30
3.60967	30
3.61333	30
3.61700	30
3.62067	29
3.62433	29
3.62800	29
3.63167	29
3.63533	29
3.63900	29
3.64267	29
3.64633	29
3.65000	29
3.65367	29
3.65733	29
3.66100	30
3.66467	30
3.66833	30
3.67200	30
3.67567	30
3.67933	30
3.68300	30
3.68667	30
3.69033	30
3.69400	29
3.69767	29
3.70133	29
3.70500	29
3.70867	29
3.71233	29
3.71600	29
3.71967	29
3.72333	29
3.72700	29
3.73067	29
3.73433	29
3.73800	29
3.74167	29
3.74533	29
3.74900	29
3.75267	29
3.75633	29
3.76000	29
3.76367	29
3.76733	29
3.77100	29
3.77467	29
3.77833	29
3.78200	29
3.78567	29
3.78933	29
3.79300	29
3.79667	29
3.80033	29
3.80400	29
3.80767	29
3.81133	29
3.81500	29
3.81867	29
3.82233	29
3.82600	29
3.82967	29
3.83333	29
3.83700	29
3.84067	29
3.84433	29
3.84800	29
3.85167	29
3.85533	29
3.85900	30
3.86267	30
3.86633	30
3.87000	30
3.87367	30
3.87733	30
3.88100	30
3.88467	30
3.88833	30
3.89200	30
3.89567	30
3.89933	30
3.90300	30
3.90667	30
3.91033	30
3.91400	30
3.91767	30
3.92133	30
3.92500	30
3.92867	30
3.93233	30
3.93600	30
3.93967	30
3.94333	30
3.94700	30
3.95067	30
3.95433	30
3.95800	30
3.96167	30
3.96533	30
3.96900	30
3.97267	31
3.97633	30
3.98000	30
3.98367	30
3.98733	30
3.99100	30
3.99467	30
3.99833	30

[Chromatogram (Ch3)]
Interval(msec)	220
# of Points	1091
Start Time(min)	0.002
End Time(min)	3.998
R.Time (min)	Intensity
0.00167	0
0.00533	-0
0.00900	1
0.01267	-0
0.01633	-2
0.02000	-1
0.02367	0
0.02733	0
0.03100	-0
0.03467	-1
0.03833	-1
0.04200	0
0.04567	-0
0.04933	-0
0.05300	-1
0.05667	-2
0.06033	-2
0.06400	2
0.06767	3
0.07133	1
0.07500	-2
0.07867	-3
0.08233	-4
0.08600	-4
0.08967	-6
0.09333	-7
0.09700	-4
0.10067	-1
0.10433	2
0.10800	6
0.11167	7
0.11533	4
0.11900	1
0.12267	1
0.12633	1
0.13000	1
0.13367	-1
0.13733	-1
0.14100	-1
0.14467	-0
0.14833	0
0.15200	-2
0.15567	-4
0.15933	-3
0.16300	-3
0.16667	-1
0.17033	1
0.17400	1
0.17767	-0
0.18133	-1
0.18500	-4
0.18867	-5
0.19233	-6
0.19600	-5
0.19967	-3
0.20333	0
0.20700	2
0.21067	1
0.21433	1
0.21800	0
0.22167	0
0.22533	1
0.22900	1
0.23267	-1
0.23633	-3
0.24000	-2
0.24367	-1
0.24733	-1
0.25100	0
0.25467	1
0.25833	2
0.26200	2
0.26567	3
0.26933	2
0.27300	1
0.27667	-1
0.28033	-1
0.28400	-2
0.28767	-4
0.29133	-5
0.29500	-6
0.29867	-6
0.30233	-3
0.30600	-1
0.30967	-0
0.31333	2
0.31700	3
0.32067	3
0.32433	3
0.32800	2
0.33167	1
0.33533	1
0.33900	-0
0.34267	-3
0.34633	-2
0.35000	1
0.35367	3
0.35733	4
0.36100	4
0.36467	5
0.36833	6
0.37200	6
0.37567	6
0.37933	7
0.38300	6
0.38667	5
0.39033	4
0.39400	3
0.39767	1
0.40133	2
0.40500	4
0.40867	7
0.41233	7
0.41600	6
0.41967	7
0.42333	8
0.42700	9
0.43067	10
0.43433	10
0.43800	11
0.44167	11
0.44533	12
0.44900	14
0.45267	15
0.45633	12
0.46000	9
0.46367	9
0.46733	9
0.47100	8
0.47467	7
0.47833	4
0.48200	3
0.48567	3
0.48933	2
0.49300	-2
0.49667	-3
0.50033	-3
0.50400	-3
0.50767	-2
0.51133	-1
0.51500	-0
0.51867	0
0.52233	2
0.52600	2
0.52967	2
0.53333	2
0.53700	2
0.54067	3
0.54433	3
0.54800	2
0.55167	3
0.55533	3
0.55900	5
0.56267	6
0.56633	7
0.57000	8
0.57367	7
0.57733	4
0.58100	5
0.58467	5
0.58833	4
0.59200	2
0.59567	2
0.59933	1
0.60300	3
0.60667	5
0.61033	5
0.61400	5
0.61767	7
0.62133	8
0.62500	9
0.62867	9
0.63233	9
0.63600	9
0.63967	9
0.64333	8
0.64700	6
0.65067	7
0.65433	7
0.65800	7
0.66167	6
0.66533	6
0.66900	5
0.67267	6
0.67633	5
0.68000	5
0.68367	4
0.68733	4
0.69100	5
0.69467	3
0.69833	0
0.70200	-2
0.70567	-1
0.70933	-0
0.71300	-1
0.71667	-2
0.72033	-5
0.72400	-6
0.72767	-4
0.73133	-2
0.73500	2
0.73867	3
0.74233	3
0.74600	4
0.74967	4
0.75333	5
0.75700	6
0.76067	6
0.76433	4
0.76800	3
0.77167	3
0.77533	4
0.77900	3
0.78267	4
0.78633	6
0.79000	6
0.79367	7
0.79733	9
0.80100	6
0.80467	4
0.80833	5
0.81200	6
0.81567	5
0.81933	3
0.82300	0
0.82667	1
0.83033	5
0.83400	9
0.83767	12
0.84133	14
0.84500	14
0.84867	12
0.85233	11
0.85600	8
0.85967	7
0.86333	7
0.86700	7
0.87067	7
0.87433	9
0.87800	11
0.88167	13
0.88533	13
0.88900	11
0.89267	11
0.89633	9
0.90000	6
0.90367	4
0.90733	4
0.91100	5
0.91467	8
0.91833	8
0.92200	9
0.92567	10
0.92933	11
0.93300	12
0.93667	12
0.94033	11
0.94400	11
0.94767	12
0.95133	15
0.95500	16
0.95867	13
0.96233	11
0.96600	10
0.96967	8
0.97333	9
0.97700	10
0.98067	9
0.98433	9
0.98800	9
0.99167	7
0.99533	8
0.99900	10
1.00267	9
1.00633	6
1.01000	6
1.01367	8
1.01733	10
1.02100	9
1.02467	6
1.02833	5
1.03200	5
1.03567	6
1.03933	7
1.04300	7
1.04667	6
1.05033	7
1.05400	8
1.05767	10
1.06133	11
1.06500	11
1.06867	10
1.07233	10
1.07600	11
1.07967	11
1.08333	11
1.08700	10
1.09067	9
1.09433	9
1.09800	8
1.10167	10
1.10533	9
1.10900	8
1.11267	9
1.11633	8
1.12000	7
1.12367	9
1.12733	11
1.13100	14
1.13467	15
1.13833	12
1.14200	11
1.14567	10
1.14933	8
1.15300	7
1.15667	9
1.16033	11
1.16400	10
1.16767	8
1.17133	9
1.17500	11
1.17867	11
1.18233	10
1.18600	12
1.18967	12
1.19333	12
1.19700	10
1.20067	11
1.20433	13
1.20800	16
1.21167	15
1.21533	16
1.21900	16
1.22267	18
1.22633	21
1.23000	20
1.23367	19
1.23733	16
1.24100	14
1.24467	14
1.24833	13
1.25200	13
1.25567	12
1.25933	12
1.26300	15
1.26667	17
1.27033	16
1.27400	16
1.27767	16
1.28133	15
1.28500	14
1.28867	15
1.29233	15
1.29600	16
1.29967	19
1.30333	23
1.30700	25
1.31067	24
1.31433	24
1.31800	22
1.32167	20
1.32533	21
1.32900	20
1.33267	16
1.33633	16
1.34000	17
1.34367	21
1.34733	23
1.35100	23
1.35467	19
1.35833	17
1.36200	14
1.36567	12
1.36933	13
1.37300	15
1.37667	16
1.38033	17
1.38400	19
1.38767	21
1.39133	19
1.39500	17
1.39867	16
1.40233	16
1.40600	14
1.40967	12
1.41333	13
1.41700	14
1.42067	14
1.42433	13
1.42800	13
1.43167	11
1.43533	9
1.43900	7
1.44267	8
1.44633	9
1.45000	11
1.45367	13
1.45733	15
1.46100	17
1.46467	19
1.46833	16
1.47200	15
1.47567	14
1.47933	12
1.48300	11
1.48667	11
1.49033	13
1.49400	13
1.49767	15
1.50133	19
1.50500	20
1.50867	19
1.51233	20
1.51600	23
1.51967	23
1.52333	19
1.52700	15
1.53067	12
1.53433	10
1.53800	12
1.54167	13
1.54533	12
1.54900	10
1.55267	11
1.55633	13
1.56000	14
1.56367	16
1.56733	17
1.57100	18
1.57467	17
1.57833	16
1.58200	15
1.58567	17
1.58933	18
1.59300	16
1.59667	15
1.60033	15
1.60400	15
1.60767	13
1.61133	13
1.61500	14
1.61867	16
1.62233	17
1.62600	18
1.62967	20
1.63333	22
1.63700	22
1.64067	21
1.64433	21
1.64800	23
1.65167	22
1.65533	21
1.65900	22
1.66267	23
1.66633	25
1.67000	24
1.67367	24
1.67733	23
1.68100	23
1.68467	22
1.68833	21
1.69200	19
1.69567	18
1.69933	19
1.70300	21
1.70667	22
1.71033	22
1.71400	21
1.71767	22
1.72133	25
1.72500	27
1.72867	26
1.73233	22
1.73600	20
1.73967	18
1.74333	17
1.74700	20
1.75067	22
1.75433	23
1.75800	27
1.76167	33
1.76533	34
1.76900	32
1.77267	29
1.77633	27
1.78000	25
1.78367	25
1.78733	25
1.79100	27
1.79467	27
1.79833	26
1.80200	26
1.80567	26
1.80933	24
1.81300	23
1.81667	22
1.82033	25
1.82400	28
1.82767	30
1.83133	31
1.83500	30
1.83867	28
1.84233	28
1.84600	28
1.84967	27
1.85333	27
1.85700	29
1.86067	29
1.86433	27
1.86800	30
1.87167	34
1.87533	35
1.87900	35
1.88267	33
1.88633	31
1.89000	31
1.89367	32
1.89733	34
1.90100	34
1.90467	32
1.90833	33
1.91200	33
1.91567	35
1.91933	40
1.92300	41
1.92667	41
1.93033	41
1.93400	40
1.93767	40
1.94133	40
1.94500	39
1.94867	41
1.95233	41
1.95600	38
1.95967	37
1.96333	36
1.96700	35
1.97067	35
1.97433	36
1.97800	37
1.98167	40
1.98533	43
1.98900	43
1.99267	44
1.99633	49
2.00000	53
2.00367	53
2.00733	52
2.01100	49
2.01467	47
2.01833	43
2.02200	44
2.02567	47
2.02933	50
2.03300	52
2.03667	53
2.04033	55
2.04400	55
2.04767	56
2.05133	58
2.05500	57
2.05867	56
2.06233	55
2.06600	55
2.06967	56
2.07333	54
2.07700	52
2.08067	53
2.08433	52
2.08800	54
2.09167	55
2.09533	57
2.09900	56
2.10267	53
2.10633	52
2.11000	54
2.11367	56
2.11733	57
2.12100	59
2.12467	60
2.12833	60
2.13200	59
2.13567	59
2.13933	59
2.14300	61
2.14667	66
2.15033	67
2.15400	66
2.15767	65
2.16133	62
2.16500	60
2.16867	60
2.17233	61
2.17600	65
2.17967	70
2.18333	74
2.18700	73
2.19067	69
2.19433	69
2.19800	73
2.20167	76
2.20533	76
2.20900	76
2.21267	77
2.21633	79
2.22000	81
2.22367	83
2.22733	84
2.23100	83
2.23467	82
2.23833	81
2.24200	80
2.24567	78
2.24933	78
2.25300	78
2.25667	79
2.26033	82
2.26400	82
2.26767	81
2.27133	83
2.27500	84
2.27867	86
2.28233	86
2.28600	85
2.28967	85
2.29333	87
2.29700	89
2.30067	89
2.30433	91
2.30800	92
2.31167	94
2.31533	96
2.31900	96
2.32267	93
2.32633	90
2.33000	90
2.33367	91
2.33733	92
2.34100	93
2.34467	92
2.34833	92
2.35200	92
2.35567	92
2.35933	92
2.36300	95
2.36667	100
2.37033	99
2.37400	95
2.37767	93
2.38133	91
2.38500	87
2.38867	83
2.39233	85
2.39600	89
2.39967	96
2.40333	104
2.40700	110
2.41067	113
2.41433	118
2.41800	123
2.42167	124
2.42533	124
2.42900	122
2.43267	119
2.43633	117
2.44000	120
2.44367	159
2.44733	225
2.45100	283
2.45467	319
2.45833	324
2.46200	306
2.46567	285
2.46933	268
2.47300	254
2.47667	237
2.48033	213
2.48400	187
2.48767	163
2.49133	141
2.49500	127
2.49867	120
2.50233	116
2.50600	116
2.50967	119
2.51333	122
2.51700	126
2.52067	124
2.52433	120
2.52800	110
2.53167	98
2.53533	88
2.53900	77
2.54267	67
2.54633	57
2.55000	50
2.55367	45
2.55733	44
2.56100	43
2.56467	42
2.56833	42
2.57200	41
2.57567	43
2.57933	45
2.58300	46
2.58667	50
2.59033	57
2.59400	61
2.59767	67
2.60133	73
2.60500	79
2.60867	87
2.61233	91
2.61600	93
2.61967	89
2.62333	87
2.62700	82
2.63067	76
2.63433	69
2.63800	63
2.64167	57
2.64533	48
2.64900	39
2.65267	31
2.65633	23
2.66000	16
2.66367	10
2.66733	7
2.67100	5
2.67467	2
2.67833	1
2.68200	-1
2.68567	-6
2.68933	-11
2.69300	-13
2.69667	-14
2.70033	-13
2.70400	-10
2.70767	-7
2.71133	-6
2.71500	-2
2.71867	2
2.72233	3
2.72600	4
2.72967	6
2.73333	7
2.73700	9
2.74067	10
2.74433	10
2.74800	12
2.75167	15
2.75533	19
2.75900	24
2.76267	26
2.76633	27
2.77000	31
2.77367	33
2.77733	33
2.78100	36
2.78467	40
2.78833	44
2.79200	48
2.79567	50
2.79933	52
2.80300	55
2.80667	59
2.81033	63
2.81400	65
2.81767	67
2.82133	68
2.82500	69
2.82867	70
2.83233	73
2.83600	81
2.83967	100
2.84333	135
2.84700	199
2.85067	313
2.85433	496
2.85800	763
2.86167	1110
2.86533	1529
2.86900	1995
2.87267	2473
2.87633	2924
2.88000	3308
2.88367	3598
2.88733	3773
2.89100	3830
2.89467	3780
2.89833	3648
2.90200	3447
2.90567	3200
2.90933	2927
2.91300	2644
2.91667	2370
2.92033	2111
2.92400	1867
2.92767	1642
2.93133	1440
2.93500	1258
2.93867	1070
2.94233	849
2.94600	640
2.94967	505
2.95333	454
2.95700	468
2.96067	522
2.96433	597
2.96800	680
2.97167	759
2.97533	827
2.97900	883
2.98267	929
2.98633	962
2.99000	985
2.99367	1001
2.99733	1012
3.00100	1018
3.00467	1023
3.00833	1025
3.01200	1025
3.01567	1025
3.01933	1020
3.02300	1013
3.02667	1006
3.03033	999
3.03400	993
3.03767	987
3.04133	982
3.04500	978
3.04867	974
3.05233	967
3.05600	959
3.05967	953
3.06333	947
3.06700	938
3.07067	932
3.07433	929
3.07800	924
3.08167	917
3.08533	912
3.08900	907
3.09267	906
3.09633	905
3.10000	901
3.10367	896
3.10733	894
3.11100	890
3.11467	885
3.11833	881
3.12200	877
3.12567	874
3.12933	871
3.13300	868
3.13667	863
3.14033	859
3.14400	858
3.14767	857
3.15133	854
3.15500	854
3.15867	854
3.16233	849
3.16600	846
3.16967	841
3.17333	836
3.17700	834
3.18067	834
3.18433	832
3.18800	826
3.19167	817
3.19533	810
3.19900	803
3.20267	799
3.20633	796
3.21000	796
3.21367	794
3.21733	791
3.22100	785
3.22467	780
3.22833	774
3.23200	771
3.23567	768
3.23933	765
3.24300	761
3.24667	756
3.25033	751
3.25400	748
3.25767	745
3.26133	741
3.26500	736
3.26867	733
3.27233	729
3.27600	725
3.27967	722
3.28333	721
3.28700	720
3.29067	719
3.29433	716
3.29800	714
3.30167	711
3.30533	708
3.30900	705
3.31267	701
3.31633	698
3.32000	696
3.32367	693
3.32733	688
3.33100	684
3.33467	681
3.33833	679
3.34200	677
3.34567	674
3.34933	672
3.35300	670
3.35667	666
3.36033	663
3.36400	664
3.36767	664
3.37133	664
3.37500	662
3.37867	661
3.38233	659
3.38600	658
3.38967	656
3.39333	658
3.39700	656
3.40067	651
3.40433	649
3.40800	646
3.41167	646
3.41533	645
3.41900	644
3.42267	642
3.42633	637
3.43000	633
3.43367	627
3.43733	623
3.44100	620
3.44467	618
3.44833	615
3.45200	612
3.45567	610
3.45933	607
3.46300	601
3.46667	596
3.47033	593
3.47400	591
3.47767	588
3.48133	585
3.48500	583
3.48867	581
3.49233	579
3.49600	574
3.49967	572
3.50333	568
3.50700	565
3.51067	563
3.51433	563
3.51800	563
3.52167	563
3.52533	564
3.52900	564
3.53267	560
3.53633	557
3.54000	554
3.54367	552
3.54733	550
3.55100	547
3.55467	544
3.55833	544
3.56200	544
3.56567	541
3.56933	536
3.57300	533
3.57667	533
3.58033	532
3.58400	531
3.58767	527
3.59133	524
3.59500	521
3.59867	517
3.60233	517
3.60600	514
3.60967	512
3.61333	513
3.61700	513
3.62067	512
3.62433	513
3.62800	515
3.63167	511
3.63533	506
3.63900	501
3.64267	500
3.64633	499
3.65000	499
3.65367	499
3.65733	499
3.66100	499
3.66467	499
3.66833	497
3.67200	494
3.67567	493
3.67933	493
3.68300	492
3.68667	491
3.69033	491
3.69400	491
3.69767	492
3.70133	490
3.70500	489
3.70867	487
3.71233	484
3.71600	485
3.71967	485
3.72333	484
3.72700	483
3.73067	483
3.73433	485
3.73800	486
3.74167	486
3.74533	485
3.74900	487
3.75267	488
3.75633	488
3.76000	487
3.76367	487
3.76733	487
3.77100	486
3.77467	484
3.77833	486
3.78200	484
3.78567	480
3.78933	476
3.79300	473
3.79667	471
3.80033	472
3.80400	472
3.80767	473
3.81133	473
3.81500	471
3.81867	469
3.82233	468
3.82600	467
3.82967	466
3.83333	467
3.83700	467
3.84067	466
3.84433	466
3.84800	465
3.85167	463
3.85533	459
3.85900	458
3.86267	459
3.86633	460
3.87000	462
3.87367	462
3.87733	460
3.88100	457
3.88467	456
3.88833	455
3.89200	453
3.89567	454
3.89933	455
3.90300	454
3.90667	453
3.91033	453
3.91400	453
3.91767	451
3.92133	450
3.92500	449
3.92867	445
3.93233	445
3.93600	446
3.93967	445
3.94333	442
3.94700	439
3.95067	439
3.95433	440
3.95800	439
3.96167	435
3.96533	429
3.96900	426
3.97267	424
3.97633	424
3.98000	426
3.98367	427
3.98733	428
3.99100	429
3.99467	427
3.99833	422

[Status Trace (Column Oven Temperature)]
Interval(msec)	1000
# of Points	240
Start Time(min)	0.008
End Time(min)	3.991
Intensity Units	
Intensity Multiplier	1
R.Time (min)	Intensity
0.00780	35.04
0.02447	35.04
0.04113	35.05
0.05780	35.05
0.07447	35.05
0.09113	35.04
0.10780	35.04
0.12447	35.04
0.14113	35.03
0.15780	35.04
0.17447	35.03
0.19113	35.03
0.20780	35.02
0.22447	35.02
0.24113	35.02
0.25780	35.02
0.27447	35.02
0.29113	35.02
0.30780	35.01
0.32447	35.01
0.34113	35.00
0.35780	35.01
0.37447	35.00
0.39113	35.00
0.40780	35.00
0.42447	35.00
0.44113	35.01
0.45780	35.01
0.47447	35.00
0.49113	35.01
0.50780	35.02
0.52447	35.02
0.54113	35.01
0.55780	35.01
0.57447	35.01
0.59113	35.01
0.60780	35.01
0.62447	35.00
0.64113	34.99
0.65780	35.00
0.67447	34.99
0.69113	34.98
0.70780	34.98
0.72447	34.99
0.74113	34.99
0.75780	34.99
0.77447	35.00
0.79113	35.00
0.80780	35.00
0.82447	35.00
0.84113	35.00
0.85780	35.00
0.87447	35.01
0.89113	35.00
0.90780	35.00
0.92447	34.99
0.94113	34.99
0.95780	34.99
0.97447	35.00
0.99113	35.00
1.00780	35.00
1.02447	35.00
1.04113	35.00
1.05780	35.00
1.07447	35.00
1.09113	34.99
1.10780	34.99
1.12447	34.99
1.14113	34.99
1.15780	34.99
1.17447	34.99
1.19113	34.99
1.20780	35.00
1.22447	35.00
1.24113	35.01
1.25780	35.00
1.27447	35.00
1.29113	35.00
1.30780	35.00
1.32447	34.99
1.34113	34.99
1.35780	34.99
1.37447	34.99
1.39113	35.00
1.40780	35.00
1.42447	34.99
1.44113	35.00
1.45780	35.00
1.47447	35.00
1.49113	35.00
1.50780	35.00
1.52447	35.00
1.54113	35.00
1.55780	34.99
1.57447	34.99
1.59113	35.01
1.60780	35.06
1.62447	35.18
1.64113	35.35
1.65780	35.60
1.67447	35.95
1.69113	36.32
1.70780	36.67
1.72447	37.01
1.74113	37.32
1.75780	37.64
1.77447	37.98
1.79113	38.32
1.80780	38.66
1.82447	38.98
1.84113	39.32
1.85780	39.65
1.87447	39.98
1.89113	40.31
1.90780	40.64
1.92447	40.97
1.94113	41.29
1.95780	41.62
1.97447	41.94
1.99113	42.27
2.00780	42.61
2.02447	42.93
2.04113	43.24
2.05780	43.58
2.07447	43.90
2.09113	44.23
2.10780	44.57
2.12447	44.90
2.14113	45.21
2.15780	45.54
2.17447	45.86
2.19113	46.19
2.20780	46.51
2.22447	46.84
2.24113	47.16
2.25780	47.50
2.27447	47.81
2.29113	48.14
2.30780	48.46
2.32447	48.81
2.34113	49.13
2.35780	49.39
2.37447	49.60
2.39113	49.69
2.40780	49.69
2.42447	49.69
2.44113	49.69
2.45780	49.72
2.47447	49.72
2.49113	49.74
2.50780	49.75
2.52447	49.76
2.54113	49.79
2.55780	49.81
2.57447	49.81
2.59113	49.81
2.60780	49.81
2.62447	49.83
2.64113	49.84
2.65780	49.86
2.67447	49.86
2.69113	49.84
2.70780	49.84
2.72447	49.87
2.74113	49.89
2.75780	49.89
2.77447	49.89
2.79113	49.87
2.80780	49.87
2.82447	49.87
2.84113	49.89
2.85780	49.90
2.87447	49.92
2.89113	49.93
2.90780	49.95
2.92447	49.96
2.94113	49.97
2.95780	49.98
2.97447	50.00
2.99113	50.01
3.00780	50.02
3.02447	50.03
3.04113	50.03
3.05780	50.04
3.07447	50.04
3.09113	50.05
3.10780	50.05
3.12447	50.05
3.14113	50.06
3.15780	50.07
3.17447	50.08
3.19113	50.09
3.20780	50.09
3.22447	50.10
3.24113	50.11
3.25780	50.11
3.27447	50.10
3.29113	50.09
3.30780	50.08
3.32447	50.07
3.34113	50.06
3.35780	50.06
3.37447	50.05
3.39113	50.05
3.40780	50.04
3.42447	50.04
3.44113	50.04
3.45780	50.04
3.47447	50.05
3.49113	50.05
3.50780	50.05
3.52447	50.05
3.54113	50.05
3.55780	50.05
3.57447	50.06
3.59113	50.05
3.60780	50.06
3.62447	50.06
3.64113	50.06
3.65780	50.06
3.67447	50.06
3.69113	50.06
3.70780	50.06
3.72447	50.06
3.74113	50.06
3.75780	50.06
3.77447	50.07
3.79113	50.08
3.80780	50.08
3.82447	50.08
3.84113	50.08
3.85780	50.08
3.87447	50.07
3.89113	50.06
3.90780	50.06
3.92447	50.06
3.94113	50.06
3.95780	50.06
3.97447	50.06
3.99113	50.06

[Status Trace (Injection Unit Temperature)]
Interval(msec)	1000
# of Points	240
Start Time(min)	0.008
End Time(min)	3.991
Intensity Units	
Intensity Multiplier	1
R.Time (min)	Intensity
0.00780	99.98
0.02447	99.98
0.04113	99.98
0.05780	99.98
0.07447	99.98
0.09113	99.98
0.10780	99.98
0.12447	99.98
0.14113	99.98
0.15780	99.98
0.17447	99.98
0.19113	99.98
0.20780	99.98
0.22447	99.98
0.24113	99.98
0.25780	99.98
0.27447	99.98
0.29113	99.98
0.30780	99.99
0.32447	99.98
0.34113	99.98
0.35780	99.98
0.37447	99.98
0.39113	99.98
0.40780	99.98
0.42447	99.98
0.44113	99.98
0.45780	99.98
0.47447	99.98
0.49113	99.98
0.50780	99.98
0.52447	99.98
0.54113	99.98
0.55780	99.98
0.57447	99.98
0.59113	99.98
0.60780	99.98
0.62447	99.98
0.64113	99.98
0.65780	99.98
0.67447	99.98
0.69113	99.98
0.70780	99.98
0.72447	99.98
0.74113	99.98
0.75780	99.98
0.77447	99.98
0.79113	99.98
0.80780	99.98
0.82447	99.98
0.84113	99.98
0.85780	99.98
0.87447	99.98
0.89113	99.98
0.90780	99.98
0.92447	99.98
0.94113	99.98
0.95780	99.98
0.97447	99.98
0.99113	99.98
1.00780	99.98
1.02447	99.98
1.04113	99.98
1.05780	99.98
1.07447	99.98
1.09113	99.98
1.10780	99.98
1.12447	99.98
1.14113	99.98
1.15780	99.98
1.17447	99.98
1.19113	99.98
1.20780	99.98
1.22447	99.98
1.24113	99.98
1.25780	99.98
1.27447	99.98
1.29113	99.98
1.30780	99.98
1.32447	99.98
1.34113	99.99
1.35780	99.98
1.37447	99.98
1.39113	99.98
1.40780	99.98
1.42447	99.99
1.44113	99.98
1.45780	99.99
1.47447	99.99
1.49113	99.98
1.50780	99.99
1.52447	99.99
1.54113	99.99
1.55780	99.99
1.57447	99.99
1.59113	99.98
1.60780	99.99
1.62447	99.99
1.64113	99.99
1.65780	99.98
1.67447	99.98
1.69113	99.98
1.70780	99.98
1.72447	99.99
1.74113	99.98
1.75780	99.98
1.77447	99.98
1.79113	99.98
1.80780	99.98
1.82447	99.98
1.84113	99.98
1.85780	99.98
1.87447	99.98
1.89113	99.98
1.90780	99.97
1.92447	99.98
1.94113	99.98
1.95780	99.98
1.97447	99.98
1.99113	99.97
2.00780	99.97
2.02447	99.97
2.04113	99.97
2.05780	99.97
2.07447	99.97
2.09113	99.97
2.10780	99.97
2.12447	99.97
2.14113	99.96
2.15780	99.97
2.17447	99.96
2.19113	99.96
2.20780	99.97
2.22447	99.97
2.24113	99.96
2.25780	99.96
2.27447	99.96
2.29113	99.96
2.30780	99.96
2.32447	99.96
2.34113	99.96
2.35780	99.97
2.37447	99.97
2.39113	99.96
2.40780	99.96
2.42447	99.97
2.44113	99.97
2.45780	99.97
2.47447	99.96
2.49113	99.97
2.50780	99.97
2.52447	99.97
2.54113	99.97
2.55780	99.97
2.57447	99.97
2.59113	99.98
2.60780	99.97
2.62447	99.97
2.64113	99.98
2.65780	99.98
2.67447	99.98
2.69113	99.98
2.70780	99.98
2.72447	99.98
2.74113	99.98
2.75780	99.99
2.77447	99.98
2.79113	99.99
2.80780	99.99
2.82447	99.99
2.84113	99.99
2.85780	100.00
2.87447	100.00
2.89113	100.00
2.90780	100.00
2.92447	100.00
2.94113	100.00
2.95780	100.00
2.97447	100.01
2.99113	100.01
3.00780	100.01
3.02447	100.01
3.04113	100.01
3.05780	100.01
3.07447	100.01
3.09113	100.01
3.10780	100.01
3.12447	100.01
3.14113	100.01
3.15780	100.01
3.17447	100.02
3.19113	100.02
3.20780	100.02
3.22447	100.02
3.24113	100.02
3.25780	100.02
3.27447	100.02
3.29113	100.02
3.30780	100.02
3.32447	100.02
3.34113	100.03
3.35780	100.03
3.37447	100.03
3.39113	100.03
3.40780	100.03
3.42447	100.03
3.44113	100.03
3.45780	100.03
3.47447	100.03
3.49113	100.04
3.50780	100.04
3.52447	100.03
3.54113	100.04
3.55780	100.04
3.57447	100.04
3.59113	100.04
3.60780	100.04
3.62447	100.04
3.64113	100.04
3.65780	100.04
3.67447	100.04
3.69113	100.04
3.70780	100.04
3.72447	100.04
3.74113	100.04
3.75780	100.05
3.77447	100.04
3.79113	100.05
3.80780	100.04
3.82447	100.05
3.84113	100.04
3.85780	100.05
3.87447	100.04
3.89113	100.04
3.90780	100.04
3.92447	100.04
3.94113	100.04
3.95780	100.04
3.97447	100.04
3.99113	100.04

[Status Trace (Carrier Gas Pressure)]
Interval(msec)	1000
# of Points	240
Start Time(min)	0.008
End Time(min)	3.991
Intensity Units	
Intensity Multiplier	1
R.Time (min)	Intensity
0.00780	58.00
0.02447	55.44
0.04113	57.04
0.05780	59.21
0.07447	59.57
0.09113	58.10
0.10780	57.98
0.12447	58.01
0.14113	58.01
0.15780	58.01
0.17447	58.00
0.19113	58.00
0.20780	58.00
0.22447	58.00
0.24113	58.00
0.25780	58.00
0.27447	58.00
0.29113	58.00
0.30780	58.00
0.32447	58.00
0.34113	58.00
0.35780	58.00
0.37447	58.00
0.39113	58.00
0.40780	58.00
0.42447	58.00
0.44113	58.00
0.45780	58.00
0.47447	58.00
0.49113	58.00
0.50780	58.00
0.52447	58.00
0.54113	58.00
0.55780	58.00
0.57447	58.00
0.59113	58.00
0.60780	58.00
0.62447	58.00
0.64113	58.00
0.65780	58.00
0.67447	58.00
0.69113	58.00
0.70780	58.00
0.72447	58.00
0.74113	58.00
0.75780	58.00
0.77447	58.00
0.79113	58.00
0.80780	58.00
0.82447	58.00
0.84113	58.00
0.85780	58.00
0.87447	58.00
0.89113	58.00
0.90780	58.00
0.92447	58.00
0.94113	58.00
0.95780	58.00
0.97447	58.00
0.99113	58.00
1.00780	58.00
1.02447	58.00
1.04113	58.00
1.05780	58.00
1.07447	58.00
1.09113	58.00
1.10780	58.00
1.12447	58.00
1.14113	58.00
1.15780	58.00
1.17447	58.00
1.19113	58.00
1.20780	58.00
1.22447	58.00
1.24113	58.00
1.25780	58.00
1.27447	58.00
1.29113	58.00
1.30780	58.00
1.32447	58.00
1.34113	58.00
1.35780	58.00
1.37447	58.00
1.39113	58.00
1.40780	58.00
1.42447	58.00
1.44113	58.00
1.45780	58.00
1.47447	58.00
1.49113	58.00
1.50780	58.00
1.52447	58.00
1.54113	58.00
1.55780	58.00
1.57447	58.00
1.59113	58.00
1.60780	58.00
1.62447	58.00
1.64113	58.00
1.65780	58.00
1.67447	58.01
1.69113	58.00
1.70780	58.00
1.72447	58.00
1.74113	58.00
1.75780	58.00
1.77447	58.00
1.79113	58.00
1.80780	58.00
1.82447	58.00
1.84113	58.00
1.85780	58.00
1.87447	58.00
1.89113	58.00
1.90780	58.00
1.92447	58.00
1.94113	58.00
1.95780	58.00
1.97447	58.00
1.99113	58.00
2.00780	58.00
2.02447	58.00
2.04113	58.00
2.05780	58.00
2.07447	58.00
2.09113	58.00
2.10780	58.00
2.12447	58.00
2.14113	58.00
2.15780	58.00
2.17447	58.00
2.19113	58.00
2.20780	58.00
2.22447	58.00
2.24113	58.00
2.25780	58.00
2.27447	58.00
2.29113	58.00
2.30780	58.00
2.32447	58.00
2.34113	58.00
2.35780	58.00
2.37447	58.00
2.39113	57.99
2.40780	57.99
2.42447	58.00
2.44113	58.00
2.45780	58.00
2.47447	58.00
2.49113	58.00
2.50780	58.00
2.52447	57.98
2.54113	58.00
2.55780	58.00
2.57447	58.00
2.59113	58.00
2.60780	58.00
2.62447	58.00
2.64113	58.00
2.65780	58.00
2.67447	58.00
2.69113	58.00
2.70780	58.00
2.72447	58.00
2.74113	58.00
2.75780	58.00
2.77447	58.00
2.79113	58.00
2.80780	58.00
2.82447	58.00
2.84113	58.00
2.85780	58.00
2.87447	58.00
2.89113	58.00
2.90780	58.00
2.92447	58.00
2.94113	58.00
2.95780	58.00
2.97447	58.00
2.99113	58.00
3.00780	58.00
3.02447	58.00
3.04113	58.00
3.05780	58.00
3.07447	58.00
3.09113	58.00
3.10780	58.00
3.12447	58.00
3.14113	58.00
3.15780	58.00
3.17447	58.00
3.19113	58.00
3.20780	58.00
3.22447	58.00
3.24113	58.00
3.25780	58.00
3.27447	58.00
3.29113	58.00
3.30780	58.00
3.32447	58.00
3.34113	58.00
3.35780	58.00
3.37447	58.00
3.39113	58.00
3.40780	58.00
3.42447	58.00
3.44113	58.00
3.45780	58.00
3.47447	58.00
3.49113	58.00
3.50780	58.00
3.52447	58.00
3.54113	58.00
3.55780	58.00
3.57447	58.00
3.59113	58.00
3.60780	58.00
3.62447	58.00
3.64113	58.00
3.65780	58.00
3.67447	58.00
3.69113	58.00
3.70780	58.00
3.72447	58.00
3.74113	58.00
3.75780	58.00
3.77447	58.00
3.79113	58.00
3.80780	58.00
3.82447	58.00
3.84113	58.00
3.85780	58.00
3.87447	58.00
3.89113	58.00
3.90780	58.00
3.92447	58.00
3.94113	58.00
3.95780	58.00
3.97447	58.00
3.99113	58.00

[Status Trace (Carrier Gas Flow)]
Interval(msec)	1000
# of Points	240
Start Time(min)	0.008
End Time(min)	3.991
Intensity Units	
Intensity Multiplier	1
R.Time (min)	Intensity
0.00780	34.52
0.02447	34.53
0.04113	34.55
0.05780	34.55
0.07447	34.50
0.09113	34.51
0.10780	34.52
0.12447	34.52
0.14113	34.52
0.15780	34.52
0.17447	34.52
0.19113	34.52
0.20780	34.52
0.22447	34.52
0.24113	34.52
0.25780	34.52
0.27447	34.52
0.29113	34.52
0.30780	34.51
0.32447	34.52
0.34113	34.52
0.35780	34.52
0.37447	34.52
0.39113	34.53
0.40780	34.52
0.42447	34.52
0.44113	34.52
0.45780	34.53
0.47447	34.52
0.49113	34.51
0.50780	34.52
0.52447	34.52
0.54113	34.52
0.55780	34.52
0.57447	34.52
0.59113	34.51
0.60780	34.52
0.62447	34.52
0.64113	34.52
0.65780	34.51
0.67447	34.52
0.69113	34.52
0.70780	34.52
0.72447	34.52
0.74113	34.53
0.75780	34.52
0.77447	34.52
0.79113	34.52
0.80780	34.52
0.82447	34.51
0.84113	34.52
0.85780	34.52
0.87447	34.52
0.89113	34.52
0.90780	34.52
0.92447	34.51
0.94113	34.52
0.95780	34.53
0.97447	34.51
0.99113	34.51
1.00780	34.52
1.02447	34.52
1.04113	34.51
1.05780	34.52
1.07447	34.52
1.09113	34.52
1.10780	34.52
1.12447	34.52
1.14113	34.52
1.15780	34.52
1.17447	34.52
1.19113	34.51
1.20780	34.52
1.22447	34.52
1.24113	34.53
1.25780	34.52
1.27447	34.52
1.29113	34.52
1.30780	34.52
1.32447	34.52
1.34113	34.52
1.35780	34.52
1.37447	34.51
1.39113	34.52
1.40780	34.52
1.42447	34.52
1.44113	34.52
1.45780	34.52
1.47447	34.52
1.49113	34.52
1.50780	34.52
1.52447	34.52
1.54113	34.52
1.55780	34.52
1.57447	34.52
1.59113	34.52
1.60780	34.52
1.62447	34.52
1.64113	34.52
1.65780	34.51
1.67447	34.52
1.69113	34.52
1.70780	34.51
1.72447	34.52
1.74113	34.53
1.75780	34.52
1.77447	34.52
1.79113	34.52
1.80780	34.53
1.82447	34.52
1.84113	34.52
1.85780	34.52
1.87447	34.52
1.89113	34.51
1.90780	34.52
1.92447	34.52
1.94113	34.52
1.95780	34.53
1.97447	34.51
1.99113	34.51
2.00780	34.52
2.02447	34.52
2.04113	34.51
2.05780	34.52
2.07447	34.51
2.09113	34.52
2.10780	34.52
2.12447	34.52
2.14113	34.52
2.15780	34.51
2.17447	34.52
2.19113	34.52
2.20780	34.52
2.22447	34.52
2.24113	34.52
2.25780	34.51
2.27447	34.52
2.29113	34.52
2.30780	34.52
2.32447	34.52
2.34113	34.52
2.35780	34.52
2.37447	34.52
2.39113	34.52
2.40780	34.52
2.42447	34.52
2.44113	34.52
2.45780	34.53
2.47447	34.52
2.49113	34.52
2.50780	34.38
2.52447	34.52
2.54113	34.52
2.55780	34.52
2.57447	34.52
2.59113	34.52
2.60780	34.51
2.62447	34.52
2.64113	34.51
2.65780	34.52
2.67447	34.52
2.69113	34.52
2.70780	34.51
2.72447	34.52
2.74113	34.52
2.75780	34.52
2.77447	34.52
2.79113	34.52
2.80780	34.53
2.82447	34.51
2.84113	34.53
2.85780	34.52
2.87447	34.51
2.89113	34.52
2.90780	34.52
2.92447	34.52
2.94113	34.52
2.95780	34.52
2.97447	34.52
2.99113	34.52
3.00780	34.52
3.02447	34.52
3.04113	34.52
3.05780	34.52
3.07447	34.52
3.09113	34.52
3.10780	34.52
3.12447	34.52
3.14113	34.52
3.15780	34.52
3.17447	34.52
3.19113	34.53
3.20780	34.52
3.22447	34.51
3.24113	34.52
3.25780	34.52
3.27447	34.52
3.29113	34.52
3.30780	34.52
3.32447	34.52
3.34113	34.52
3.35780	34.52
3.37447	34.52
3.39113	34.52
3.40780	34.52
3.42447	34.51
3.44113	34.51
3.45780	34.52
3.47447	34.52
3.49113	34.51
3.50780	34.52
3.52447	34.52
3.54113	34.52
3.55780	34.52
3.57447	34.52
3.59113	34.52
3.60780	34.52
3.62447	34.52
3.64113	34.52
3.65780	34.52
3.67447	34.52
3.69113	34.52
3.70780	34.52
3.72447	34.52
3.74113	34.52
3.75780	34.52
3.77447	34.51
3.79113	34.52
3.80780	34.52
3.82447	34.51
3.84113	34.52
3.85780	34.52
3.87447	34.51
3.89113	34.52
3.90780	34.52
3.92447	34.52
3.94113	34.51
3.95780	34.51
3.97447	34.52
3.99113	34.52

[Status Trace (Column Flow)]
Interval(msec)	1000
# of Points	240
Start Time(min)	0.008
End Time(min)	3.991
Intensity Units	
Intensity Multiplier	1
R.Time (min)	Intensity
0.00780	5.50
0.02447	5.21
0.04113	5.39
0.05780	5.65
0.07447	5.69
0.09113	5.52
0.10780	5.50
0.12447	5.51
0.14113	5.51
0.15780	5.51
0.17447	5.51
0.19113	5.51
0.20780	5.51
0.22447	5.51
0.24113	5.51
0.25780	5.51
0.27447	5.51
0.29113	5.51
0.30780	5.51
0.32447	5.51
0.34113	5.51
0.35780	5.51
0.37447	5.51
0.39113	5.51
0.40780	5.51
0.42447	5.51
0.44113	5.51
0.45780	5.51
0.47447	5.51
0.49113	5.51
0.50780	5.51
0.52447	5.51
0.54113	5.51
0.55780	5.51
0.57447	5.51
0.59113	5.51
0.60780	5.51
0.62447	5.51
0.64113	5.51
0.65780	5.51
0.67447	5.51
0.69113	5.51
0.70780	5.51
0.72447	5.51
0.74113	5.51
0.75780	5.51
0.77447	5.51
0.79113	5.51
0.80780	5.51
0.82447	5.51
0.84113	5.51
0.85780	5.51
0.87447	5.51
0.89113	5.51
0.90780	5.51
0.92447	5.51
0.94113	5.51
0.95780	5.51
0.97447	5.51
0.99113	5.51
1.00780	5.51
1.02447	5.51
1.04113	5.51
1.05780	5.51
1.07447	5.51
1.09113	5.51
1.10780	5.51
1.12447	5.51
1.14113	5.51
1.15780	5.51
1.17447	5.51
1.19113	5.51
1.20780	5.51
1.22447	5.51
1.24113	5.51
1.25780	5.51
1.27447	5.51
1.29113	5.51
1.30780	5.51
1.32447	5.51
1.34113	5.51
1.35780	5.51
1.37447	5.51
1.39113	5.51
1.40780	5.51
1.42447	5.51
1.44113	5.51
1.45780	5.51
1.47447	5.51
1.49113	5.51
1.50780	5.51
1.52447	5.51
1.54113	5.51
1.55780	5.51
1.57447	5.51
1.59113	5.51
1.60780	5.50
1.62447	5.50
1.64113	5.50
1.65780	5.49
1.67447	5.48
1.69113	5.46
1.70780	5.45
1.72447	5.44
1.74113	5.43
1.75780	5.42
1.77447	5.41
1.79113	5.40
1.80780	5.39
1.82447	5.38
1.84113	5.37
1.85780	5.36
1.87447	5.35
1.89113	5.34
1.90780	5.33
1.92447	5.32
1.94113	5.31
1.95780	5.30
1.97447	5.29
1.99113	5.28
2.00780	5.27
2.02447	5.26
2.04113	5.26
2.05780	5.25
2.07447	5.24
2.09113	5.23
2.10780	5.22
2.12447	5.21
2.14113	5.20
2.15780	5.19
2.17447	5.18
2.19113	5.17
2.20780	5.16
2.22447	5.15
2.24113	5.14
2.25780	5.13
2.27447	5.12
2.29113	5.12
2.30780	5.11
2.32447	5.10
2.34113	5.09
2.35780	5.08
2.37447	5.07
2.39113	5.07
2.40780	5.07
2.42447	5.07
2.44113	5.07
2.45780	5.07
2.47447	5.07
2.49113	5.07
2.50780	5.07
2.52447	5.07
2.54113	5.07
2.55780	5.07
2.57447	5.07
2.59113	5.07
2.60780	5.07
2.62447	5.07
2.64113	5.07
2.65780	5.07
2.67447	5.07
2.69113	5.07
2.70780	5.07
2.72447	5.07
2.74113	5.07
2.75780	5.07
2.77447	5.07
2.79113	5.07
2.80780	5.07
2.82447	5.07
2.84113	5.07
2.85780	5.07
2.87447	5.07
2.89113	5.07
2.90780	5.07
2.92447	5.06
2.94113	5.06
2.95780	5.06
2.97447	5.06
2.99113	5.06
3.00780	5.06
3.02447	5.06
3.04113	5.06
3.05780	5.06
3.07447	5.06
3.09113	5.06
3.10780	5.06
3.12447	5.06
3.14113	5.06
3.15780	5.06
3.17447	5.06
3.19113	5.06
3.20780	5.06
3.22447	5.06
3.24113	5.06
3.25780	5.06
3.27447	5.06
3.29113	5.06
3.30780	5.06
3.32447	5.06
3.34113	5.06
3.35780	5.06
3.37447	5.06
3.39113	5.06
3.40780	5.06
3.42447	5.06
3.44113	5.06
3.45780	5.06
3.47447	5.06
3.49113	5.06
3.50780	5.06
3.52447	5.06
3.54113	5.06
3.55780	5.06
3.57447	5.06
3.59113	5.06
3.60780	5.06
3.62447	5.06
3.64113	5.06
3.65780	5.06
3.67447	5.06
3.69113	5.06
3.70780	5.06
3.72447	5.06
3.74113	5.06
3.75780	5.06
3.77447	5.06
3.79113	5.06
3.80780	5.06
3.82447	5.06
3.84113	5.06
3.85780	5.06
3.87447	5.06
3.89113	5.06
3.90780	5.06
3.92447	5.06
3.94113	5.06
3.95780	5.06
3.97447	5.06
3.99113	5.06

[Status Trace (Linear Velocity)]
Interval(msec)	1000
# of Points	240
Start Time(min)	0.008
End Time(min)	3.991
Intensity Units	
Intensity Multiplier	1
R.Time (min)	Intensity
0.00780	39.01
0.02447	37.33
0.04113	38.38
0.05780	39.80
0.07447	40.04
0.09113	39.07
0.10780	38.99
0.12447	39.02
0.14113	39.02
0.15780	39.01
0.17447	39.01
0.19113	39.01
0.20780	39.01
0.22447	39.01
0.24113	39.01
0.25780	39.01
0.27447	39.01
0.29113	39.01
0.30780	39.01
0.32447	39.01
0.34113	39.01
0.35780	39.01
0.37447	39.01
0.39113	39.01
0.40780	39.01
0.42447	39.01
0.44113	39.01
0.45780	39.01
0.47447	39.01
0.49113	39.01
0.50780	39.01
0.52447	39.01
0.54113	39.01
0.55780	39.01
0.57447	39.01
0.59113	39.01
0.60780	39.01
0.62447	39.01
0.64113	39.01
0.65780	39.01
0.67447	39.01
0.69113	39.01
0.70780	39.01
0.72447	39.01
0.74113	39.01
0.75780	39.01
0.77447	39.01
0.79113	39.01
0.80780	39.01
0.82447	39.01
0.84113	39.01
0.85780	39.01
0.87447	39.01
0.89113	39.01
0.90780	39.01
0.92447	39.01
0.94113	39.01
0.95780	39.01
0.97447	39.01
0.99113	39.01
1.00780	39.01
1.02447	39.01
1.04113	39.01
1.05780	39.01
1.07447	39.01
1.09113	39.01
1.10780	39.01
1.12447	39.01
1.14113	39.01
1.15780	39.01
1.17447	39.01
1.19113	39.01
1.20780	39.01
1.22447	39.01
1.24113	39.01
1.25780	39.01
1.27447	39.01
1.29113	39.01
1.30780	39.01
1.32447	39.01
1.34113	39.01
1.35780	39.01
1.37447	39.01
1.39113	39.01
1.40780	39.01
1.42447	39.01
1.44113	39.01
1.45780	39.01
1.47447	39.01
1.49113	39.01
1.50780	39.01
1.52447	39.01
1.54113	39.01
1.55780	39.01
1.57447	39.01
1.59113	39.01
1.60780	39.01
1.62447	39.00
1.64113	38.98
1.65780	38.96
1.67447	38.93
1.69113	38.89
1.70780	38.85
1.72447	38.82
1.74113	38.79
1.75780	38.76
1.77447	38.73
1.79113	38.70
1.80780	38.66
1.82447	38.63
1.84113	38.60
1.85780	38.57
1.87447	38.54
1.89113	38.51
1.90780	38.48
1.92447	38.45
1.94113	38.42
1.95780	38.39
1.97447	38.36
1.99113	38.33
2.00780	38.30
2.02447	38.27
2.04113	38.24
2.05780	38.21
2.07447	38.18
2.09113	38.15
2.10780	38.12
2.12447	38.09
2.14113	38.06
2.15780	38.03
2.17447	38.00
2.19113	37.97
2.20780	37.94
2.22447	37.91
2.24113	37.88
2.25780	37.85
2.27447	37.82
2.29113	37.79
2.30780	37.77
2.32447	37.73
2.34113	37.71
2.35780	37.68
2.37447	37.66
2.39113	37.65
2.40780	37.65
2.42447	37.65
2.44113	37.66
2.45780	37.65
2.47447	37.65
2.49113	37.65
2.50780	37.65
2.52447	37.64
2.54113	37.65
2.55780	37.65
2.57447	37.64
2.59113	37.64
2.60780	37.65
2.62447	37.64
2.64113	37.64
2.65780	37.64
2.67447	37.64
2.69113	37.64
2.70780	37.64
2.72447	37.64
2.74113	37.64
2.75780	37.64
2.77447	37.64
2.79113	37.64
2.80780	37.64
2.82447	37.64
2.84113	37.64
2.85780	37.64
2.87447	37.64
2.89113	37.64
2.90780	37.63
2.92447	37.63
2.94113	37.63
2.95780	37.63
2.97447	37.63
2.99113	37.63
3.00780	37.63
3.02447	37.63
3.04113	37.63
3.05780	37.63
3.07447	37.63
3.09113	37.62
3.10780	37.62
3.12447	37.62
3.14113	37.62
3.15780	37.62
3.17447	37.62
3.19113	37.62
3.20780	37.62
3.22447	37.62
3.24113	37.62
3.25780	37.62
3.27447	37.62
3.29113	37.62
3.30780	37.62
3.32447	37.62
3.34113	37.62
3.35780	37.62
3.37447	37.62
3.39113	37.63
3.40780	37.63
3.42447	37.63
3.44113	37.63
3.45780	37.63
3.47447	37.62
3.49113	37.62
3.50780	37.63
3.52447	37.62
3.54113	37.62
3.55780	37.62
3.57447	37.62
3.59113	37.62
3.60780	37.62
3.62447	37.62
3.64113	37.62
3.65780	37.62
3.67447	37.62
3.69113	37.62
3.70780	37.62
3.72447	37.62
3.74113	37.62
3.75780	37.62
3.77447	37.62
3.79113	37.62
3.80780	37.62
3.82447	37.62
3.84113	37.62
3.85780	37.62
3.87447	37.62
3.89113	37.62
3.90780	37.62
3.92447	37.62
3.94113	37.62
3.95780	37.62
3.97447	37.62
3.99113	37.62

