[Header]
Application Name	LabSolutions
Version	5.110
Data File Name	C:\Users\User\Desktop\Junior\UIC Prairie Sampling\7.18.23\071823_006.gcd
Output Date	8/29/2023
Output Time	10:40:19 AM

[File Information]
Type	Data File
Generated	8/28/2023 2:51:01 PM
Generated by	System Administrator
Modified	8/28/2023 2:57:40 PM
Modified by	System Administrator

[Sample Information]
Operator Name	System Administrator
Acquired	8/28/2023 2:53:39 PM
Sample Type	0:Unknown
Level	0
Sample Name	006
Sample ID	006
ISTD Amount1	1
ISTD Amount2	1
ISTD Amount3	1
ISTD Amount4	1
ISTD Amount5	1
ISTD Amount6	1
ISTD Amount7	1
ISTD Amount8	1
ISTD Amount9	1
ISTD Amount10	1
ISTD Amount11	1
ISTD Amount12	1
ISTD Amount13	1
ISTD Amount14	1
ISTD Amount15	1
ISTD Amount16	1
ISTD Amount17	1
ISTD Amount18	1
ISTD Amount19	1
ISTD Amount20	1
ISTD Amount21	1
ISTD Amount22	1
ISTD Amount23	1
ISTD Amount24	1
ISTD Amount25	1
ISTD Amount26	1
ISTD Amount27	1
ISTD Amount28	1
ISTD Amount29	1
ISTD Amount30	1
ISTD Amount31	1
ISTD Amount32	1
Sample Amount	1
Dilution Factor	1
Vial#	5
Injection Volume	1
Injection Count	1
Bar Code	

[Original Files]
Data File	C:\Users\User\Desktop\Junior\UIC Prairie Sampling\7.18.23\071823_006.gcd
Method File	C:\LabSolutions\Data\GHG_4min_2022\ghg3_togas_w_acet_4 min_new_int.gcm
Batch File	C:\LabSolutions\Data\BATCH FILES\071823.gcb
Report Format File	c:\LabSolutions\System\DEFAULT.lsr

[File Description]


[Configuration]
Instrument Name	C0B7VH3-Instrument1
Instrument #	1
Line #	1
# of Detectors	3
Detector ID	DET#1	DET#2	DET#3
Detector Name	FID	PTCD	ECD
# of Channels	1	1	1

[Peak Table(Ch1)]
# of Peaks	3
Peak#	R.Time	I.Time	F.Time	Area	Height	A/H	Conc.	Mark	ID#	Name	k'	Plate #	Plate Ht.	Tailing	Resolution	Sep.Factor	Area Ratio	Height Ratio	Conc. %	Norm Conc.
1	1.476	1.450	1.512	935	507	1.846	0.000	   	1	CO	0.000	11298	13.277	1.174	0.000	0.000	0	0	0.000	0.000
2	1.564	1.531	1.633	19217	9869	1.947	93.689	   	2	CH4	0.060	11676	12.847	1.169	1.552	0.000	0	0	18.845	18.845
3	1.989	1.945	2.506	2093597	1006980	2.079	403.475	   	3	CO2	0.348	17524	8.560	1.313	7.210	5.833	0	0	81.155	81.155

[Peak Table(Ch2)]
# of Peaks	1
Peak#	R.Time	I.Time	F.Time	Area	Height	A/H	Conc.	Mark	ID#	Name	k'	Plate #	Plate Ht.	Tailing	Resolution	Sep.Factor	Area Ratio	Height Ratio	Conc. %	Norm Conc.
1	2.964	2.924	3.074	1596	434	3.675	0.000	   	1	Hydrogen	0.000	15116	9.923	2.016	0.000	0.000	0	0	0.000	0.000

[Peak Table(Ch3)]
# of Peaks	4
Peak#	R.Time	I.Time	F.Time	Area	Height	A/H	Conc.	Mark	ID#	Name	k'	Plate #	Plate Ht.	Tailing	Resolution	Sep.Factor	Area Ratio	Height Ratio	Conc. %	Norm Conc.
1	2.466	2.396	2.550	1118	255	4.390	0.000	   			0.000	5534	27.107	0.000	0.000	0.000	0	0	0.000	0.000
2	2.590	2.550	2.671	499	127	3.928	0.000	 V 			0.051	5663	26.486	0.000	0.923	0.000	0	0	0.000	0.000
3	2.891	2.821	3.063	43611	11587	3.764	0.645	   	1	N2O	0.173	13126	11.427	1.578	2.520	3.412	0	0	100.000	100.000
4	3.335	3.243	3.943	10635	566	18.805	0.000	   			0.352	944	158.957	3.860	1.658	2.043	0	0	0.000	0.000

[Compound Results(Ch1)]
# of IDs	6
ID#	Name	R.Time	Area	Height	Conc.	Curve	3rd	2nd	1st	Constant	Area Ratio	Height Ratio	Conc. %	Norm Conc.
1	CO	1.476	935	507	0.000	Linear	0.000000e+00	0.000000e+00	0.000000e+00	0.000000e+00	0	0	0.000	0.000
2	CH4	1.564	19217	9869	93.689	Linear	0.000000e+00	0.000000e+00	2.051179e+002	0.000000e+00	0	0	18.845	18.845
3	CO2	1.989	2093597	1006980	403.475	Linear	0.000000e+00	0.000000e+00	5.188919e+003	0.000000e+00	0	0	81.155	81.155
4	Ethylene	0.000	0	0	0.000	Linear	0.000000e+00	0.000000e+00	0.000000e+00	0.000000e+00	0	0	0.000	0.000
5	Acetylene	0.000	0	0	0.000	Linear	0.000000e+00	0.000000e+00	0.000000e+00	0.000000e+00	0	0	0.000	0.000
6	Ethane	0.000	0	0	0.000	Linear	0.000000e+00	0.000000e+00	0.000000e+00	0.000000e+00	0	0	0.000	0.000

[Compound Results(Ch2)]
# of IDs	5
ID#	Name	R.Time	Area	Height	Conc.	Curve	3rd	2nd	1st	Constant	Area Ratio	Height Ratio	Conc. %	Norm Conc.
1	Hydrogen	2.964	1596	434	0.000	Linear	0.000000e+00	0.000000e+00	0.000000e+00	0.000000e+00	0	0	0.000	0.000
2	Oxygen	0.000	0	0	0.000	Linear	0.000000e+00	0.000000e+00	0.000000e+00	0.000000e+00	0	0	0.000	0.000
3	Nitrogen	0.000	0	0	0.000	Linear	0.000000e+00	0.000000e+00	0.000000e+00	0.000000e+00	0	0	0.000	0.000
4	Methane	0.000	0	0	0.000	Linear	0.000000e+00	0.000000e+00	0.000000e+00	0.000000e+00	0	0	0.000	0.000
5	Carbon Monoxide	0.000	0	0	0.000	Linear	0.000000e+00	0.000000e+00	0.000000e+00	0.000000e+00	0	0	0.000	0.000

[Compound Results(Ch3)]
# of IDs	2
ID#	Name	R.Time	Area	Height	Conc.	Curve	3rd	2nd	1st	Constant	Area Ratio	Height Ratio	Conc. %	Norm Conc.
1	N2O	2.891	43611	11587	0.645	Linear	0.000000e+00	0.000000e+00	6.759880e+004	0.000000e+00	0	0	100.000	100.000
2	SF6	0.000	0	0	0.000	Linear	0.000000e+00	0.000000e+00	0.000000e+00	0.000000e+00	0	0	0.000	0.000

[Group Results(Ch1)]
# of Groups	0

[Group Results(Ch2)]
# of Groups	0

[Group Results(Ch3)]
# of Groups	0

[Chromatogram (Ch1)]
Interval(msec)	220
# of Points	1091
Start Time(min)	0.002
End Time(min)	3.998
R.Time (min)	Intensity
0.00167	8
0.00533	10
0.00900	13
0.01267	15
0.01633	17
0.02000	12
0.02367	4
0.02733	-5
0.03100	-13
0.03467	-15
0.03833	-18
0.04200	-20
0.04567	-20
0.04933	-19
0.05300	-19
0.05667	-22
0.06033	-22
0.06400	-21
0.06767	-20
0.07133	-19
0.07500	-18
0.07867	-17
0.08233	-14
0.08600	-11
0.08967	-11
0.09333	-12
0.09700	-13
0.10067	-17
0.10433	-19
0.10800	-17
0.11167	-15
0.11533	-16
0.11900	-17
0.12267	-19
0.12633	-18
0.13000	-17
0.13367	-18
0.13733	-19
0.14100	-19
0.14467	-15
0.14833	-12
0.15200	-7
0.15567	-2
0.15933	-0
0.16300	-1
0.16667	-0
0.17033	5
0.17400	9
0.17767	7
0.18133	1
0.18500	-6
0.18867	-15
0.19233	-24
0.19600	-30
0.19967	-34
0.20333	-32
0.20700	-25
0.21067	-16
0.21433	-5
0.21800	2
0.22167	6
0.22533	6
0.22900	3
0.23267	-1
0.23633	-3
0.24000	-2
0.24367	-0
0.24733	-0
0.25100	-1
0.25467	-0
0.25833	2
0.26200	2
0.26567	1
0.26933	-2
0.27300	-3
0.27667	-4
0.28033	-6
0.28400	-8
0.28767	-7
0.29133	-6
0.29500	-5
0.29867	-2
0.30233	-1
0.30600	-2
0.30967	-1
0.31333	1
0.31700	2
0.32067	-0
0.32433	-1
0.32800	-1
0.33167	-1
0.33533	-2
0.33900	0
0.34267	3
0.34633	-0
0.35000	-5
0.35367	-12
0.35733	-17
0.36100	-20
0.36467	-22
0.36833	-22
0.37200	-15
0.37567	-8
0.37933	-6
0.38300	-9
0.38667	-12
0.39033	-12
0.39400	-10
0.39767	-7
0.40133	-4
0.40500	-3
0.40867	-3
0.41233	-3
0.41600	-3
0.41967	-0
0.42333	1
0.42700	2
0.43067	4
0.43433	3
0.43800	1
0.44167	1
0.44533	1
0.44900	2
0.45267	1
0.45633	-2
0.46000	-6
0.46367	-6
0.46733	-5
0.47100	-9
0.47467	-15
0.47833	-20
0.48200	-21
0.48567	-20
0.48933	-17
0.49300	-12
0.49667	-7
0.50033	-3
0.50400	-1
0.50767	-4
0.51133	-11
0.51500	-17
0.51867	-23
0.52233	-26
0.52600	-25
0.52967	-22
0.53333	-19
0.53700	-19
0.54067	-25
0.54433	-32
0.54800	-35
0.55167	-32
0.55533	-25
0.55900	-18
0.56267	-12
0.56633	-12
0.57000	-17
0.57367	-21
0.57733	-25
0.58100	-27
0.58467	-27
0.58833	-25
0.59200	-20
0.59567	-17
0.59933	-17
0.60300	-20
0.60667	-24
0.61033	-27
0.61400	-29
0.61767	-27
0.62133	-21
0.62500	-16
0.62867	-13
0.63233	-16
0.63600	-21
0.63967	-26
0.64333	-27
0.64700	-25
0.65067	-22
0.65433	-17
0.65800	-12
0.66167	-11
0.66533	-14
0.66900	-13
0.67267	-9
0.67633	-5
0.68000	-6
0.68367	-11
0.68733	-14
0.69100	-17
0.69467	-19
0.69833	-20
0.70200	-20
0.70567	-21
0.70933	-25
0.71300	-29
0.71667	-33
0.72033	-35
0.72400	-34
0.72767	-30
0.73133	-24
0.73500	-21
0.73867	-21
0.74233	-23
0.74600	-24
0.74967	-27
0.75333	-32
0.75700	-37
0.76067	-39
0.76433	-39
0.76800	-37
0.77167	-33
0.77533	-30
0.77900	-28
0.78267	-24
0.78633	-22
0.79000	-22
0.79367	-22
0.79733	-25
0.80100	-29
0.80467	-32
0.80833	-29
0.81200	-25
0.81567	-26
0.81933	-30
0.82300	-33
0.82667	-33
0.83033	-30
0.83400	-27
0.83767	-25
0.84133	-23
0.84500	-23
0.84867	-26
0.85233	-34
0.85600	-41
0.85967	-45
0.86333	-45
0.86700	-46
0.87067	-50
0.87433	-53
0.87800	-58
0.88167	-60
0.88533	-58
0.88900	-51
0.89267	-44
0.89633	-42
0.90000	-44
0.90367	-46
0.90733	-47
0.91100	-49
0.91467	-48
0.91833	-44
0.92200	-41
0.92567	-40
0.92933	-39
0.93300	-38
0.93667	-37
0.94033	-37
0.94400	-36
0.94767	-33
0.95133	-29
0.95500	-27
0.95867	-26
0.96233	-25
0.96600	-23
0.96967	-24
0.97333	-27
0.97700	-33
0.98067	-35
0.98433	-36
0.98800	-38
0.99167	-42
0.99533	-45
0.99900	-47
1.00267	-47
1.00633	-43
1.01000	-39
1.01367	-37
1.01733	-39
1.02100	-43
1.02467	-46
1.02833	-49
1.03200	-54
1.03567	-56
1.03933	-57
1.04300	-57
1.04667	-55
1.05033	-51
1.05400	-49
1.05767	-50
1.06133	-50
1.06500	-48
1.06867	-45
1.07233	-44
1.07600	-44
1.07967	-43
1.08333	-42
1.08700	-45
1.09067	-52
1.09433	-61
1.09800	-68
1.10167	-73
1.10533	-72
1.10900	-71
1.11267	-68
1.11633	-63
1.12000	-58
1.12367	-54
1.12733	-50
1.13100	-50
1.13467	-51
1.13833	-49
1.14200	-47
1.14567	-44
1.14933	-44
1.15300	-48
1.15667	-52
1.16033	-57
1.16400	-66
1.16767	-69
1.17133	-66
1.17500	-61
1.17867	-56
1.18233	-54
1.18600	-54
1.18967	-53
1.19333	-50
1.19700	-47
1.20067	-47
1.20433	-44
1.20800	-42
1.21167	-41
1.21533	-41
1.21900	-41
1.22267	-44
1.22633	-49
1.23000	-51
1.23367	-52
1.23733	-55
1.24100	-58
1.24467	-61
1.24833	-62
1.25200	-65
1.25567	-68
1.25933	-71
1.26300	-76
1.26667	-79
1.27033	-77
1.27400	-72
1.27767	-70
1.28133	-69
1.28500	-66
1.28867	-64
1.29233	-62
1.29600	-62
1.29967	-60
1.30333	-58
1.30700	-57
1.31067	-57
1.31433	-58
1.31800	-58
1.32167	-57
1.32533	-55
1.32900	-55
1.33267	-59
1.33633	-63
1.34000	-66
1.34367	-68
1.34733	-69
1.35100	-67
1.35467	-66
1.35833	-66
1.36200	-64
1.36567	-61
1.36933	-59
1.37300	-57
1.37667	-54
1.38033	-52
1.38400	-52
1.38767	-56
1.39133	-60
1.39500	-61
1.39867	-62
1.40233	-61
1.40600	-61
1.40967	-62
1.41333	-65
1.41700	-68
1.42067	-68
1.42433	-68
1.42800	-69
1.43167	-69
1.43533	-63
1.43900	-50
1.44267	-51
1.44633	-72
1.45000	-68
1.45367	-16
1.45733	70
1.46100	164
1.46467	252
1.46833	335
1.47200	406
1.47567	449
1.47933	447
1.48300	401
1.48667	328
1.49033	245
1.49400	166
1.49767	98
1.50133	43
1.50500	2
1.50867	-26
1.51233	-43
1.51600	-51
1.51967	-53
1.52333	-56
1.52700	-58
1.53067	-30
1.53433	128
1.53800	660
1.54167	1818
1.54533	3556
1.54900	5512
1.55267	7301
1.55633	8700
1.56000	9587
1.56367	9828
1.56733	9321
1.57100	8137
1.57467	6565
1.57833	4951
1.58200	3542
1.58567	2434
1.58933	1623
1.59300	1053
1.59667	664
1.60033	406
1.60400	240
1.60767	132
1.61133	62
1.61500	16
1.61867	-16
1.62233	-38
1.62600	-52
1.62967	-60
1.63333	-64
1.63700	-68
1.64067	-70
1.64433	-70
1.64800	-72
1.65167	-76
1.65533	-79
1.65900	-84
1.66267	-86
1.66633	-85
1.67000	-84
1.67367	-82
1.67733	-81
1.68100	-82
1.68467	-87
1.68833	-92
1.69200	-93
1.69567	-92
1.69933	-85
1.70300	-79
1.70667	-76
1.71033	-74
1.71400	-77
1.71767	-84
1.72133	-88
1.72500	-89
1.72867	-89
1.73233	-90
1.73600	-95
1.73967	-98
1.74333	-97
1.74700	-92
1.75067	-87
1.75433	-85
1.75800	-85
1.76167	-86
1.76533	-87
1.76900	-85
1.77267	-83
1.77633	-80
1.78000	-80
1.78367	-82
1.78733	-86
1.79100	-92
1.79467	-96
1.79833	-99
1.80200	-100
1.80567	-100
1.80933	-101
1.81300	-105
1.81667	-108
1.82033	-109
1.82400	-108
1.82767	-105
1.83133	-100
1.83500	-96
1.83867	-93
1.84233	-92
1.84600	-92
1.84967	-91
1.85333	-93
1.85700	-97
1.86067	-100
1.86433	-101
1.86800	-99
1.87167	-96
1.87533	-92
1.87900	-89
1.88267	-91
1.88633	-95
1.89000	-99
1.89367	-101
1.89733	-103
1.90100	-106
1.90467	-111
1.90833	-115
1.91200	-117
1.91567	-114
1.91933	-104
1.92300	-92
1.92667	-84
1.93033	-84
1.93400	-88
1.93767	-93
1.94133	-94
1.94500	-83
1.94867	21
1.95233	716
1.95600	4210
1.95967	17260
1.96333	54184
1.96700	134299
1.97067	269303
1.97433	449606
1.97800	645097
1.98167	820484
1.98533	947191
1.98900	1006922
1.99267	993350
1.99633	913083
2.00000	785084
2.00367	635132
2.00733	487538
2.01100	358789
2.01467	255993
2.01833	179042
2.02200	124015
2.02567	85872
2.02933	59951
2.03300	42525
2.03667	30849
2.04033	22998
2.04400	17673
2.04767	14009
2.05133	11439
2.05500	9590
2.05867	8225
2.06233	7191
2.06600	6385
2.06967	5740
2.07333	5217
2.07700	4784
2.08067	4415
2.08433	4099
2.08800	3825
2.09167	3582
2.09533	3367
2.09900	3177
2.10267	3007
2.10633	2853
2.11000	2710
2.11367	2579
2.11733	2460
2.12100	2351
2.12467	2251
2.12833	2158
2.13200	2071
2.13567	1991
2.13933	1916
2.14300	1845
2.14667	1776
2.15033	1711
2.15400	1646
2.15767	1582
2.16133	1523
2.16500	1472
2.16867	1428
2.17233	1387
2.17600	1346
2.17967	1307
2.18333	1269
2.18700	1229
2.19067	1189
2.19433	1149
2.19800	1108
2.20167	1073
2.20533	1042
2.20900	1017
2.21267	995
2.21633	978
2.22000	963
2.22367	945
2.22733	922
2.23100	896
2.23467	872
2.23833	848
2.24200	824
2.24567	800
2.24933	779
2.25300	761
2.25667	741
2.26033	719
2.26400	700
2.26767	685
2.27133	673
2.27500	661
2.27867	647
2.28233	635
2.28600	623
2.28967	610
2.29333	599
2.29700	590
2.30067	583
2.30433	575
2.30800	564
2.31167	548
2.31533	532
2.31900	517
2.32267	504
2.32633	492
2.33000	479
2.33367	470
2.33733	462
2.34100	455
2.34467	449
2.34833	444
2.35200	441
2.35567	435
2.35933	428
2.36300	418
2.36667	409
2.37033	400
2.37400	394
2.37767	390
2.38133	390
2.38500	387
2.38867	380
2.39233	371
2.39600	361
2.39967	351
2.40333	344
2.40700	339
2.41067	335
2.41433	332
2.41800	325
2.42167	315
2.42533	308
2.42900	304
2.43267	300
2.43633	297
2.44000	293
2.44367	288
2.44733	285
2.45100	281
2.45467	274
2.45833	268
2.46200	267
2.46567	269
2.46933	271
2.47300	270
2.47667	266
2.48033	259
2.48400	251
2.48767	246
2.49133	246
2.49500	246
2.49867	246
2.50233	241
2.50600	233
2.50967	224
2.51333	220
2.51700	223
2.52067	227
2.52433	226
2.52800	220
2.53167	211
2.53533	201
2.53900	194
2.54267	191
2.54633	190
2.55000	189
2.55367	188
2.55733	186
2.56100	180
2.56467	171
2.56833	166
2.57200	163
2.57567	160
2.57933	158
2.58300	157
2.58667	155
2.59033	152
2.59400	150
2.59767	146
2.60133	142
2.60500	143
2.60867	146
2.61233	146
2.61600	143
2.61967	137
2.62333	131
2.62700	125
2.63067	117
2.63433	110
2.63800	106
2.64167	105
2.64533	105
2.64900	107
2.65267	111
2.65633	112
2.66000	113
2.66367	114
2.66733	112
2.67100	109
2.67467	107
2.67833	104
2.68200	100
2.68567	94
2.68933	88
2.69300	86
2.69667	89
2.70033	92
2.70400	94
2.70767	95
2.71133	94
2.71500	91
2.71867	87
2.72233	82
2.72600	78
2.72967	74
2.73333	71
2.73700	69
2.74067	72
2.74433	75
2.74800	81
2.75167	92
2.75533	103
2.75900	108
2.76267	106
2.76633	98
2.77000	85
2.77367	71
2.77733	59
2.78100	49
2.78467	42
2.78833	38
2.79200	37
2.79567	38
2.79933	40
2.80300	41
2.80667	41
2.81033	41
2.81400	41
2.81767	44
2.82133	46
2.82500	46
2.82867	45
2.83233	42
2.83600	36
2.83967	31
2.84333	31
2.84700	35
2.85067	37
2.85433	38
2.85800	39
2.86167	41
2.86533	45
2.86900	49
2.87267	52
2.87633	48
2.88000	40
2.88367	34
2.88733	32
2.89100	31
2.89467	32
2.89833	35
2.90200	37
2.90567	39
2.90933	36
2.91300	31
2.91667	23
2.92033	15
2.92400	10
2.92767	11
2.93133	18
2.93500	25
2.93867	28
2.94233	29
2.94600	27
2.94967	25
2.95333	25
2.95700	26
2.96067	26
2.96433	22
2.96800	17
2.97167	12
2.97533	11
2.97900	13
2.98267	14
2.98633	16
2.99000	20
2.99367	25
2.99733	26
3.00100	21
3.00467	17
3.00833	16
3.01200	15
3.01567	9
3.01933	-2
3.02300	-14
3.02667	-23
3.03033	-25
3.03400	-22
3.03767	-18
3.04133	-15
3.04500	-15
3.04867	-14
3.05233	-13
3.05600	-10
3.05967	-5
3.06333	-3
3.06700	-3
3.07067	-4
3.07433	-7
3.07800	-12
3.08167	-14
3.08533	-12
3.08900	-9
3.09267	-6
3.09633	-4
3.10000	-3
3.10367	-4
3.10733	-7
3.11100	-8
3.11467	-6
3.11833	-5
3.12200	-3
3.12567	-3
3.12933	-6
3.13300	-10
3.13667	-7
3.14033	-0
3.14400	6
3.14767	10
3.15133	8
3.15500	0
3.15867	-8
3.16233	-12
3.16600	-12
3.16967	-10
3.17333	-8
3.17700	-3
3.18067	3
3.18433	7
3.18800	6
3.19167	1
3.19533	-5
3.19900	-14
3.20267	-23
3.20633	-30
3.21000	-35
3.21367	-36
3.21733	-35
3.22100	-33
3.22467	-34
3.22833	-36
3.23200	-35
3.23567	-32
3.23933	-29
3.24300	-28
3.24667	-28
3.25033	-29
3.25400	-30
3.25767	-30
3.26133	-29
3.26500	-27
3.26867	-24
3.27233	-20
3.27600	-16
3.27967	-12
3.28333	-13
3.28700	-17
3.29067	-21
3.29433	-28
3.29800	-35
3.30167	-39
3.30533	-41
3.30900	-43
3.31267	-47
3.31633	-52
3.32000	-53
3.32367	-51
3.32733	-47
3.33100	-41
3.33467	-37
3.33833	-31
3.34200	-25
3.34567	-20
3.34933	-16
3.35300	-15
3.35667	-14
3.36033	-18
3.36400	-23
3.36767	-27
3.37133	-27
3.37500	-28
3.37867	-29
3.38233	-33
3.38600	-38
3.38967	-43
3.39333	-44
3.39700	-43
3.40067	-42
3.40433	-40
3.40800	-37
3.41167	-32
3.41533	-27
3.41900	-28
3.42267	-35
3.42633	-42
3.43000	-48
3.43367	-51
3.43733	-53
3.44100	-52
3.44467	-49
3.44833	-47
3.45200	-47
3.45567	-46
3.45933	-46
3.46300	-45
3.46667	-44
3.47033	-42
3.47400	-39
3.47767	-39
3.48133	-41
3.48500	-43
3.48867	-47
3.49233	-50
3.49600	-52
3.49967	-51
3.50333	-48
3.50700	-43
3.51067	-35
3.51433	-30
3.51800	-29
3.52167	-32
3.52533	-36
3.52900	-40
3.53267	-44
3.53633	-45
3.54000	-45
3.54367	-44
3.54733	-43
3.55100	-43
3.55467	-43
3.55833	-45
3.56200	-47
3.56567	-51
3.56933	-54
3.57300	-52
3.57667	-47
3.58033	-45
3.58400	-49
3.58767	-56
3.59133	-63
3.59500	-66
3.59867	-69
3.60233	-69
3.60600	-64
3.60967	-57
3.61333	-51
3.61700	-48
3.62067	-48
3.62433	-49
3.62800	-52
3.63167	-54
3.63533	-53
3.63900	-53
3.64267	-53
3.64633	-54
3.65000	-53
3.65367	-50
3.65733	-52
3.66100	-56
3.66467	-60
3.66833	-65
3.67200	-65
3.67567	-63
3.67933	-63
3.68300	-63
3.68667	-62
3.69033	-62
3.69400	-62
3.69767	-60
3.70133	-54
3.70500	-52
3.70867	-54
3.71233	-57
3.71600	-60
3.71967	-61
3.72333	-63
3.72700	-66
3.73067	-67
3.73433	-63
3.73800	-58
3.74167	-55
3.74533	-57
3.74900	-62
3.75267	-64
3.75633	-64
3.76000	-64
3.76367	-62
3.76733	-58
3.77100	-54
3.77467	-54
3.77833	-54
3.78200	-55
3.78567	-56
3.78933	-60
3.79300	-66
3.79667	-70
3.80033	-73
3.80400	-75
3.80767	-72
3.81133	-69
3.81500	-68
3.81867	-71
3.82233	-76
3.82600	-81
3.82967	-88
3.83333	-93
3.83700	-93
3.84067	-89
3.84433	-84
3.84800	-80
3.85167	-79
3.85533	-79
3.85900	-80
3.86267	-80
3.86633	-81
3.87000	-81
3.87367	-77
3.87733	-68
3.88100	-53
3.88467	-40
3.88833	-37
3.89200	-44
3.89567	-52
3.89933	-58
3.90300	-66
3.90667	-73
3.91033	-77
3.91400	-80
3.91767	-81
3.92133	-82
3.92500	-83
3.92867	-83
3.93233	-81
3.93600	-75
3.93967	-68
3.94333	-65
3.94700	-64
3.95067	-64
3.95433	-65
3.95800	-67
3.96167	-70
3.96533	-73
3.96900	-75
3.97267	-78
3.97633	-79
3.98000	-79
3.98367	-81
3.98733	-84
3.99100	-84
3.99467	-78
3.99833	-71

[Chromatogram (Ch2)]
Interval(msec)	220
# of Points	1091
Start Time(min)	0.002
End Time(min)	3.998
R.Time (min)	Intensity
0.00167	-1
0.00533	-1
0.00900	-1
0.01267	-2
0.01633	-2
0.02000	-2
0.02367	-1
0.02733	-1
0.03100	-1
0.03467	-1
0.03833	-1
0.04200	-1
0.04567	-1
0.04933	-1
0.05300	-1
0.05667	-1
0.06033	-1
0.06400	-1
0.06767	-1
0.07133	-0
0.07500	-0
0.07867	0
0.08233	0
0.08600	0
0.08967	0
0.09333	0
0.09700	0
0.10067	0
0.10433	1
0.10800	1
0.11167	0
0.11533	0
0.11900	0
0.12267	0
0.12633	0
0.13000	0
0.13367	-0
0.13733	-1
0.14100	-1
0.14467	-1
0.14833	-1
0.15200	-1
0.15567	-1
0.15933	-1
0.16300	-0
0.16667	-0
0.17033	-0
0.17400	-0
0.17767	0
0.18133	-0
0.18500	-0
0.18867	-0
0.19233	-1
0.19600	-1
0.19967	-1
0.20333	-1
0.20700	-1
0.21067	-0
0.21433	-0
0.21800	-0
0.22167	-0
0.22533	-0
0.22900	-0
0.23267	-0
0.23633	-0
0.24000	-0
0.24367	-0
0.24733	-0
0.25100	0
0.25467	-0
0.25833	-0
0.26200	-0
0.26567	-0
0.26933	-0
0.27300	-0
0.27667	-0
0.28033	-0
0.28400	-0
0.28767	-1
0.29133	-1
0.29500	-1
0.29867	-1
0.30233	-1
0.30600	-2
0.30967	-2
0.31333	-2
0.31700	-3
0.32067	-3
0.32433	-3
0.32800	-3
0.33167	-4
0.33533	-4
0.33900	-4
0.34267	-4
0.34633	-4
0.35000	-4
0.35367	-4
0.35733	-3
0.36100	-3
0.36467	-3
0.36833	-3
0.37200	-3
0.37567	-3
0.37933	-2
0.38300	-2
0.38667	-2
0.39033	-2
0.39400	-2
0.39767	-2
0.40133	-1
0.40500	-1
0.40867	-1
0.41233	-1
0.41600	-1
0.41967	-0
0.42333	-0
0.42700	-0
0.43067	-0
0.43433	-0
0.43800	-0
0.44167	-0
0.44533	-0
0.44900	-1
0.45267	-1
0.45633	-1
0.46000	-1
0.46367	-1
0.46733	-1
0.47100	-1
0.47467	-1
0.47833	-2
0.48200	-2
0.48567	-2
0.48933	-2
0.49300	-2
0.49667	-2
0.50033	-2
0.50400	-2
0.50767	-2
0.51133	-2
0.51500	-2
0.51867	-1
0.52233	-1
0.52600	-1
0.52967	-1
0.53333	-2
0.53700	-2
0.54067	-2
0.54433	-2
0.54800	-2
0.55167	-2
0.55533	-2
0.55900	-2
0.56267	-2
0.56633	-2
0.57000	-2
0.57367	-2
0.57733	-2
0.58100	-1
0.58467	-1
0.58833	-1
0.59200	-2
0.59567	-2
0.59933	-2
0.60300	-2
0.60667	-2
0.61033	-2
0.61400	-2
0.61767	-2
0.62133	-2
0.62500	-2
0.62867	-2
0.63233	-2
0.63600	-2
0.63967	-2
0.64333	-2
0.64700	-3
0.65067	-3
0.65433	-3
0.65800	-3
0.66167	-3
0.66533	-2
0.66900	-2
0.67267	-2
0.67633	-1
0.68000	-1
0.68367	-1
0.68733	-1
0.69100	-1
0.69467	-1
0.69833	-1
0.70200	-0
0.70567	-0
0.70933	-0
0.71300	-1
0.71667	-1
0.72033	-1
0.72400	-1
0.72767	-1
0.73133	-1
0.73500	-1
0.73867	-1
0.74233	-1
0.74600	-1
0.74967	-1
0.75333	-1
0.75700	-1
0.76067	-1
0.76433	-1
0.76800	-1
0.77167	-1
0.77533	-1
0.77900	-1
0.78267	-1
0.78633	-1
0.79000	-1
0.79367	-2
0.79733	-2
0.80100	-2
0.80467	-2
0.80833	-2
0.81200	-2
0.81567	-2
0.81933	-2
0.82300	-2
0.82667	-2
0.83033	-3
0.83400	-3
0.83767	-3
0.84133	-3
0.84500	-3
0.84867	-2
0.85233	-2
0.85600	-2
0.85967	-2
0.86333	-2
0.86700	-2
0.87067	-2
0.87433	-2
0.87800	-2
0.88167	-2
0.88533	-2
0.88900	-2
0.89267	-2
0.89633	-2
0.90000	-3
0.90367	-3
0.90733	-3
0.91100	-3
0.91467	-3
0.91833	-3
0.92200	-2
0.92567	-2
0.92933	-2
0.93300	-2
0.93667	-2
0.94033	-2
0.94400	-2
0.94767	-2
0.95133	-3
0.95500	-3
0.95867	-3
0.96233	-3
0.96600	-2
0.96967	-2
0.97333	-3
0.97700	-3
0.98067	-3
0.98433	-3
0.98800	-3
0.99167	-3
0.99533	-3
0.99900	-3
1.00267	-3
1.00633	-3
1.01000	-3
1.01367	-3
1.01733	-3
1.02100	-3
1.02467	-3
1.02833	-2
1.03200	-2
1.03567	-2
1.03933	-3
1.04300	-3
1.04667	-3
1.05033	-3
1.05400	-3
1.05767	-3
1.06133	-2
1.06500	-2
1.06867	-2
1.07233	-3
1.07600	-3
1.07967	-3
1.08333	-3
1.08700	-3
1.09067	-3
1.09433	-3
1.09800	-3
1.10167	-3
1.10533	-3
1.10900	-3
1.11267	-3
1.11633	-2
1.12000	-2
1.12367	-2
1.12733	-2
1.13100	-3
1.13467	-3
1.13833	-3
1.14200	-3
1.14567	-3
1.14933	-3
1.15300	-3
1.15667	-3
1.16033	-3
1.16400	-3
1.16767	-3
1.17133	-3
1.17500	-3
1.17867	-3
1.18233	-3
1.18600	-4
1.18967	-4
1.19333	-4
1.19700	-4
1.20067	-3
1.20433	-3
1.20800	-3
1.21167	-3
1.21533	-3
1.21900	-3
1.22267	-3
1.22633	-3
1.23000	-3
1.23367	-3
1.23733	-3
1.24100	-3
1.24467	-3
1.24833	-3
1.25200	-3
1.25567	-3
1.25933	-3
1.26300	-3
1.26667	-3
1.27033	-3
1.27400	-3
1.27767	-3
1.28133	-3
1.28500	-3
1.28867	-4
1.29233	-4
1.29600	-4
1.29967	-4
1.30333	-4
1.30700	-4
1.31067	-4
1.31433	-4
1.31800	-4
1.32167	-4
1.32533	-4
1.32900	-4
1.33267	-4
1.33633	-4
1.34000	-4
1.34367	-4
1.34733	-4
1.35100	-4
1.35467	-4
1.35833	-4
1.36200	-4
1.36567	-4
1.36933	-4
1.37300	-4
1.37667	-4
1.38033	-4
1.38400	-4
1.38767	-4
1.39133	-4
1.39500	-4
1.39867	-4
1.40233	-3
1.40600	-3
1.40967	-3
1.41333	-2
1.41700	-2
1.42067	-2
1.42433	-2
1.42800	-2
1.43167	-2
1.43533	-2
1.43900	-2
1.44267	-2
1.44633	-3
1.45000	-3
1.45367	-4
1.45733	-4
1.46100	-4
1.46467	-4
1.46833	-4
1.47200	-4
1.47567	-3
1.47933	-3
1.48300	-3
1.48667	-3
1.49033	-3
1.49400	-4
1.49767	-4
1.50133	-4
1.50500	-4
1.50867	-4
1.51233	-4
1.51600	-4
1.51967	-3
1.52333	-3
1.52700	-3
1.53067	-3
1.53433	-3
1.53800	-3
1.54167	-3
1.54533	-3
1.54900	-3
1.55267	-3
1.55633	-3
1.56000	-3
1.56367	-3
1.56733	-3
1.57100	-3
1.57467	-3
1.57833	-2
1.58200	-3
1.58567	-3
1.58933	-3
1.59300	-4
1.59667	-4
1.60033	-5
1.60400	-7
1.60767	-8
1.61133	-10
1.61500	-12
1.61867	-14
1.62233	-17
1.62600	-19
1.62967	-22
1.63333	-25
1.63700	-28
1.64067	-31
1.64433	-34
1.64800	-37
1.65167	-40
1.65533	-43
1.65900	-46
1.66267	-49
1.66633	-52
1.67000	-57
1.67367	-61
1.67733	-66
1.68100	-71
1.68467	-76
1.68833	-80
1.69200	-84
1.69567	-87
1.69933	-90
1.70300	-92
1.70667	-93
1.71033	-94
1.71400	-95
1.71767	-96
1.72133	-97
1.72500	-98
1.72867	-98
1.73233	-99
1.73600	-99
1.73967	-100
1.74333	-100
1.74700	-100
1.75067	-99
1.75433	-99
1.75800	-99
1.76167	-99
1.76533	-99
1.76900	-99
1.77267	-99
1.77633	-99
1.78000	-99
1.78367	-99
1.78733	-99
1.79100	-99
1.79467	-99
1.79833	-100
1.80200	-100
1.80567	-100
1.80933	-100
1.81300	-100
1.81667	-100
1.82033	-99
1.82400	-99
1.82767	-99
1.83133	-99
1.83500	-100
1.83867	-100
1.84233	-100
1.84600	-100
1.84967	-100
1.85333	-99
1.85700	-99
1.86067	-99
1.86433	-99
1.86800	-99
1.87167	-99
1.87533	-99
1.87900	-99
1.88267	-99
1.88633	-98
1.89000	-98
1.89367	-98
1.89733	-98
1.90100	-98
1.90467	-98
1.90833	-98
1.91200	-98
1.91567	-98
1.91933	-98
1.92300	-98
1.92667	-98
1.93033	-98
1.93400	-98
1.93767	-98
1.94133	-98
1.94500	-98
1.94867	-97
1.95233	-97
1.95600	-97
1.95967	-96
1.96333	-96
1.96700	-96
1.97067	-96
1.97433	-96
1.97800	-97
1.98167	-96
1.98533	-96
1.98900	-96
1.99267	-96
1.99633	-95
2.00000	-95
2.00367	-94
2.00733	-94
2.01100	-94
2.01467	-93
2.01833	-93
2.02200	-93
2.02567	-92
2.02933	-93
2.03300	-93
2.03667	-93
2.04033	-92
2.04400	-92
2.04767	-91
2.05133	-90
2.05500	-89
2.05867	-87
2.06233	-86
2.06600	-85
2.06967	-85
2.07333	-84
2.07700	-84
2.08067	-84
2.08433	-84
2.08800	-84
2.09167	-84
2.09533	-85
2.09900	-85
2.10267	-85
2.10633	-85
2.11000	-85
2.11367	-84
2.11733	-84
2.12100	-84
2.12467	-84
2.12833	-83
2.13200	-83
2.13567	-83
2.13933	-83
2.14300	-82
2.14667	-82
2.15033	-82
2.15400	-82
2.15767	-82
2.16133	-82
2.16500	-82
2.16867	-82
2.17233	-82
2.17600	-81
2.17967	-81
2.18333	-80
2.18700	-80
2.19067	-80
2.19433	-80
2.19800	-80
2.20167	-79
2.20533	-78
2.20900	-78
2.21267	-77
2.21633	-77
2.22000	-76
2.22367	-76
2.22733	-75
2.23100	-74
2.23467	-73
2.23833	-72
2.24200	-71
2.24567	-71
2.24933	-71
2.25300	-71
2.25667	-71
2.26033	-71
2.26400	-72
2.26767	-72
2.27133	-73
2.27500	-73
2.27867	-72
2.28233	-72
2.28600	-72
2.28967	-71
2.29333	-71
2.29700	-70
2.30067	-70
2.30433	-70
2.30800	-70
2.31167	-71
2.31533	-71
2.31900	-72
2.32267	-72
2.32633	-71
2.33000	-71
2.33367	-71
2.33733	-70
2.34100	-68
2.34467	-67
2.34833	-65
2.35200	-64
2.35567	-63
2.35933	-62
2.36300	-61
2.36667	-60
2.37033	-58
2.37400	-56
2.37767	-54
2.38133	-51
2.38500	-48
2.38867	-44
2.39233	-41
2.39600	-37
2.39967	-33
2.40333	-28
2.40700	-24
2.41067	-20
2.41433	-16
2.41800	-12
2.42167	-9
2.42533	-6
2.42900	-4
2.43267	-2
2.43633	-1
2.44000	1
2.44367	2
2.44733	3
2.45100	4
2.45467	5
2.45833	7
2.46200	8
2.46567	9
2.46933	9
2.47300	10
2.47667	10
2.48033	11
2.48400	11
2.48767	12
2.49133	13
2.49500	14
2.49867	14
2.50233	15
2.50600	15
2.50967	15
2.51333	16
2.51700	17
2.52067	17
2.52433	17
2.52800	17
2.53167	17
2.53533	17
2.53900	16
2.54267	16
2.54633	15
2.55000	14
2.55367	14
2.55733	13
2.56100	12
2.56467	11
2.56833	10
2.57200	10
2.57567	9
2.57933	9
2.58300	10
2.58667	10
2.59033	11
2.59400	12
2.59767	13
2.60133	14
2.60500	15
2.60867	16
2.61233	17
2.61600	18
2.61967	18
2.62333	19
2.62700	19
2.63067	19
2.63433	19
2.63800	20
2.64167	20
2.64533	21
2.64900	21
2.65267	21
2.65633	22
2.66000	22
2.66367	22
2.66733	22
2.67100	22
2.67467	22
2.67833	21
2.68200	21
2.68567	21
2.68933	21
2.69300	21
2.69667	22
2.70033	22
2.70400	22
2.70767	23
2.71133	23
2.71500	24
2.71867	25
2.72233	25
2.72600	26
2.72967	26
2.73333	27
2.73700	27
2.74067	27
2.74433	27
2.74800	27
2.75167	27
2.75533	27
2.75900	26
2.76267	26
2.76633	26
2.77000	26
2.77367	26
2.77733	27
2.78100	27
2.78467	27
2.78833	27
2.79200	27
2.79567	27
2.79933	27
2.80300	27
2.80667	27
2.81033	27
2.81400	27
2.81767	27
2.82133	27
2.82500	27
2.82867	27
2.83233	27
2.83600	27
2.83967	27
2.84333	27
2.84700	27
2.85067	26
2.85433	26
2.85800	25
2.86167	24
2.86533	21
2.86900	17
2.87267	11
2.87633	2
2.88000	-10
2.88367	-24
2.88733	-40
2.89100	-59
2.89467	-79
2.89833	-99
2.90200	-119
2.90567	-138
2.90933	-155
2.91300	-169
2.91667	-179
2.92033	-183
2.92400	-179
2.92767	-168
2.93133	-146
2.93500	-111
2.93867	-62
2.94233	5
2.94600	86
2.94967	170
2.95333	239
2.95700	285
2.96067	308
2.96433	311
2.96800	302
2.97167	285
2.97533	264
2.97900	242
2.98267	220
2.98633	199
2.99000	180
2.99367	162
2.99733	146
3.00100	132
3.00467	120
3.00833	109
3.01200	99
3.01567	90
3.01933	83
3.02300	76
3.02667	70
3.03033	65
3.03400	61
3.03767	57
3.04133	53
3.04500	50
3.04867	47
3.05233	45
3.05600	43
3.05967	41
3.06333	39
3.06700	38
3.07067	37
3.07433	36
3.07800	35
3.08167	34
3.08533	33
3.08900	33
3.09267	32
3.09633	32
3.10000	31
3.10367	31
3.10733	31
3.11100	31
3.11467	30
3.11833	30
3.12200	30
3.12567	30
3.12933	30
3.13300	30
3.13667	30
3.14033	30
3.14400	30
3.14767	29
3.15133	29
3.15500	29
3.15867	29
3.16233	28
3.16600	28
3.16967	28
3.17333	28
3.17700	28
3.18067	28
3.18433	28
3.18800	28
3.19167	28
3.19533	28
3.19900	28
3.20267	28
3.20633	28
3.21000	28
3.21367	28
3.21733	28
3.22100	28
3.22467	28
3.22833	28
3.23200	28
3.23567	28
3.23933	29
3.24300	29
3.24667	30
3.25033	30
3.25400	30
3.25767	31
3.26133	31
3.26500	31
3.26867	31
3.27233	31
3.27600	31
3.27967	31
3.28333	31
3.28700	31
3.29067	31
3.29433	30
3.29800	31
3.30167	30
3.30533	30
3.30900	30
3.31267	30
3.31633	30
3.32000	30
3.32367	30
3.32733	30
3.33100	30
3.33467	30
3.33833	30
3.34200	30
3.34567	30
3.34933	30
3.35300	30
3.35667	30
3.36033	30
3.36400	30
3.36767	30
3.37133	30
3.37500	30
3.37867	30
3.38233	30
3.38600	30
3.38967	29
3.39333	29
3.39700	29
3.40067	29
3.40433	29
3.40800	29
3.41167	29
3.41533	29
3.41900	29
3.42267	29
3.42633	29
3.43000	29
3.43367	29
3.43733	29
3.44100	29
3.44467	29
3.44833	29
3.45200	29
3.45567	29
3.45933	29
3.46300	29
3.46667	29
3.47033	29
3.47400	29
3.47767	29
3.48133	29
3.48500	29
3.48867	29
3.49233	29
3.49600	28
3.49967	28
3.50333	28
3.50700	28
3.51067	28
3.51433	28
3.51800	28
3.52167	28
3.52533	28
3.52900	28
3.53267	28
3.53633	28
3.54000	28
3.54367	29
3.54733	29
3.55100	28
3.55467	28
3.55833	28
3.56200	28
3.56567	28
3.56933	28
3.57300	28
3.57667	28
3.58033	28
3.58400	28
3.58767	28
3.59133	28
3.59500	28
3.59867	28
3.60233	28
3.60600	28
3.60967	28
3.61333	28
3.61700	28
3.62067	28
3.62433	28
3.62800	28
3.63167	28
3.63533	28
3.63900	28
3.64267	28
3.64633	28
3.65000	28
3.65367	28
3.65733	28
3.66100	28
3.66467	28
3.66833	28
3.67200	28
3.67567	27
3.67933	27
3.68300	27
3.68667	27
3.69033	27
3.69400	27
3.69767	27
3.70133	27
3.70500	27
3.70867	27
3.71233	27
3.71600	27
3.71967	27
3.72333	26
3.72700	26
3.73067	27
3.73433	27
3.73800	27
3.74167	28
3.74533	28
3.74900	28
3.75267	28
3.75633	28
3.76000	28
3.76367	29
3.76733	29
3.77100	29
3.77467	29
3.77833	29
3.78200	29
3.78567	28
3.78933	28
3.79300	28
3.79667	28
3.80033	28
3.80400	28
3.80767	28
3.81133	28
3.81500	27
3.81867	27
3.82233	27
3.82600	27
3.82967	27
3.83333	27
3.83700	27
3.84067	27
3.84433	27
3.84800	27
3.85167	28
3.85533	28
3.85900	28
3.86267	28
3.86633	28
3.87000	28
3.87367	28
3.87733	28
3.88100	28
3.88467	28
3.88833	28
3.89200	28
3.89567	28
3.89933	28
3.90300	28
3.90667	28
3.91033	28
3.91400	28
3.91767	28
3.92133	28
3.92500	28
3.92867	28
3.93233	28
3.93600	28
3.93967	28
3.94333	28
3.94700	28
3.95067	28
3.95433	28
3.95800	28
3.96167	28
3.96533	28
3.96900	28
3.97267	28
3.97633	28
3.98000	29
3.98367	29
3.98733	29
3.99100	29
3.99467	29
3.99833	29

[Chromatogram (Ch3)]
Interval(msec)	220
# of Points	1091
Start Time(min)	0.002
End Time(min)	3.998
R.Time (min)	Intensity
0.00167	-2
0.00533	-5
0.00900	-5
0.01267	-5
0.01633	-8
0.02000	-8
0.02367	-6
0.02733	-2
0.03100	2
0.03467	5
0.03833	5
0.04200	3
0.04567	-0
0.04933	-2
0.05300	-2
0.05667	-4
0.06033	-4
0.06400	-3
0.06767	-1
0.07133	-3
0.07500	-1
0.07867	2
0.08233	3
0.08600	4
0.08967	6
0.09333	8
0.09700	8
0.10067	4
0.10433	6
0.10800	7
0.11167	5
0.11533	3
0.11900	-1
0.12267	-4
0.12633	-3
0.13000	-2
0.13367	-2
0.13733	-1
0.14100	-0
0.14467	-1
0.14833	0
0.15200	-1
0.15567	-4
0.15933	-6
0.16300	-6
0.16667	-7
0.17033	-5
0.17400	-4
0.17767	-4
0.18133	-2
0.18500	-3
0.18867	-3
0.19233	-2
0.19600	-2
0.19967	-3
0.20333	-3
0.20700	-2
0.21067	-1
0.21433	1
0.21800	0
0.22167	-2
0.22533	-3
0.22900	-4
0.23267	-3
0.23633	0
0.24000	4
0.24367	5
0.24733	2
0.25100	-1
0.25467	-1
0.25833	1
0.26200	7
0.26567	9
0.26933	7
0.27300	6
0.27667	5
0.28033	8
0.28400	10
0.28767	10
0.29133	9
0.29500	8
0.29867	6
0.30233	5
0.30600	8
0.30967	8
0.31333	6
0.31700	3
0.32067	4
0.32433	6
0.32800	10
0.33167	12
0.33533	13
0.33900	14
0.34267	11
0.34633	6
0.35000	7
0.35367	10
0.35733	10
0.36100	11
0.36467	13
0.36833	13
0.37200	14
0.37567	15
0.37933	14
0.38300	16
0.38667	21
0.39033	24
0.39400	23
0.39767	19
0.40133	17
0.40500	15
0.40867	14
0.41233	10
0.41600	7
0.41967	6
0.42333	8
0.42700	9
0.43067	10
0.43433	9
0.43800	8
0.44167	9
0.44533	11
0.44900	14
0.45267	14
0.45633	10
0.46000	8
0.46367	9
0.46733	9
0.47100	10
0.47467	10
0.47833	11
0.48200	11
0.48567	12
0.48933	12
0.49300	11
0.49667	10
0.50033	7
0.50400	7
0.50767	7
0.51133	5
0.51500	6
0.51867	5
0.52233	5
0.52600	6
0.52967	8
0.53333	7
0.53700	6
0.54067	8
0.54433	8
0.54800	8
0.55167	7
0.55533	7
0.55900	12
0.56267	19
0.56633	21
0.57000	18
0.57367	17
0.57733	15
0.58100	13
0.58467	9
0.58833	7
0.59200	7
0.59567	7
0.59933	10
0.60300	11
0.60667	13
0.61033	13
0.61400	11
0.61767	8
0.62133	6
0.62500	3
0.62867	4
0.63233	7
0.63600	9
0.63967	8
0.64333	4
0.64700	2
0.65067	2
0.65433	3
0.65800	5
0.66167	5
0.66533	7
0.66900	8
0.67267	8
0.67633	5
0.68000	2
0.68367	2
0.68733	1
0.69100	-1
0.69467	-2
0.69833	-2
0.70200	-2
0.70567	-2
0.70933	-5
0.71300	-7
0.71667	-8
0.72033	-7
0.72400	-6
0.72767	-7
0.73133	-4
0.73500	-4
0.73867	-3
0.74233	-2
0.74600	-1
0.74967	-5
0.75333	-6
0.75700	-6
0.76067	-4
0.76433	-7
0.76800	-12
0.77167	-11
0.77533	-8
0.77900	-7
0.78267	-7
0.78633	-6
0.79000	-4
0.79367	-1
0.79733	-2
0.80100	-4
0.80467	-5
0.80833	-5
0.81200	-6
0.81567	-9
0.81933	-9
0.82300	-6
0.82667	-6
0.83033	-6
0.83400	-6
0.83767	-7
0.84133	-6
0.84500	-4
0.84867	-5
0.85233	-5
0.85600	-5
0.85967	-7
0.86333	-7
0.86700	-7
0.87067	-6
0.87433	-5
0.87800	-5
0.88167	-6
0.88533	-5
0.88900	-3
0.89267	-1
0.89633	-1
0.90000	-3
0.90367	-2
0.90733	-0
0.91100	3
0.91467	1
0.91833	-5
0.92200	-9
0.92567	-11
0.92933	-12
0.93300	-13
0.93667	-14
0.94033	-14
0.94400	-14
0.94767	-12
0.95133	-9
0.95500	-5
0.95867	-5
0.96233	-6
0.96600	-5
0.96967	-6
0.97333	-5
0.97700	-4
0.98067	-4
0.98433	-3
0.98800	-2
0.99167	-3
0.99533	-5
0.99900	-4
1.00267	-1
1.00633	-1
1.01000	0
1.01367	-0
1.01733	-3
1.02100	-4
1.02467	-6
1.02833	-6
1.03200	-6
1.03567	-8
1.03933	-9
1.04300	-6
1.04667	-4
1.05033	-2
1.05400	-3
1.05767	-2
1.06133	-0
1.06500	-1
1.06867	-4
1.07233	-4
1.07600	-5
1.07967	-3
1.08333	-3
1.08700	-6
1.09067	-6
1.09433	-7
1.09800	-8
1.10167	-7
1.10533	-3
1.10900	-0
1.11267	-0
1.11633	-1
1.12000	-2
1.12367	-2
1.12733	-2
1.13100	-3
1.13467	-1
1.13833	2
1.14200	1
1.14567	-2
1.14933	-1
1.15300	-2
1.15667	-4
1.16033	-4
1.16400	-8
1.16767	-10
1.17133	-10
1.17500	-7
1.17867	-8
1.18233	-7
1.18600	-7
1.18967	-5
1.19333	-6
1.19700	-5
1.20067	-6
1.20433	-6
1.20800	-7
1.21167	-8
1.21533	-8
1.21900	-7
1.22267	-9
1.22633	-12
1.23000	-15
1.23367	-17
1.23733	-15
1.24100	-13
1.24467	-14
1.24833	-16
1.25200	-18
1.25567	-18
1.25933	-15
1.26300	-13
1.26667	-11
1.27033	-11
1.27400	-11
1.27767	-12
1.28133	-13
1.28500	-12
1.28867	-14
1.29233	-14
1.29600	-14
1.29967	-10
1.30333	-9
1.30700	-8
1.31067	-8
1.31433	-10
1.31800	-11
1.32167	-10
1.32533	-10
1.32900	-12
1.33267	-12
1.33633	-10
1.34000	-10
1.34367	-8
1.34733	-7
1.35100	-6
1.35467	-5
1.35833	-5
1.36200	-5
1.36567	-9
1.36933	-12
1.37300	-11
1.37667	-7
1.38033	-5
1.38400	-5
1.38767	-5
1.39133	-5
1.39500	-6
1.39867	-7
1.40233	-8
1.40600	-9
1.40967	-8
1.41333	-9
1.41700	-10
1.42067	-8
1.42433	-4
1.42800	-4
1.43167	-5
1.43533	-7
1.43900	-11
1.44267	-11
1.44633	-11
1.45000	-9
1.45367	-7
1.45733	-8
1.46100	-11
1.46467	-11
1.46833	-10
1.47200	-10
1.47567	-11
1.47933	-12
1.48300	-11
1.48667	-11
1.49033	-10
1.49400	-11
1.49767	-10
1.50133	-8
1.50500	-8
1.50867	-5
1.51233	-4
1.51600	-6
1.51967	-6
1.52333	-6
1.52700	-7
1.53067	-5
1.53433	-3
1.53800	-2
1.54167	-1
1.54533	-1
1.54900	1
1.55267	2
1.55633	-0
1.56000	-4
1.56367	-9
1.56733	-11
1.57100	-11
1.57467	-12
1.57833	-13
1.58200	-13
1.58567	-11
1.58933	-7
1.59300	-7
1.59667	-4
1.60033	-0
1.60400	-0
1.60767	-3
1.61133	-7
1.61500	-8
1.61867	-8
1.62233	-8
1.62600	-8
1.62967	-8
1.63333	-7
1.63700	-5
1.64067	-5
1.64433	-5
1.64800	-7
1.65167	-6
1.65533	-7
1.65900	-7
1.66267	-5
1.66633	-3
1.67000	0
1.67367	2
1.67733	6
1.68100	11
1.68467	10
1.68833	7
1.69200	6
1.69567	4
1.69933	3
1.70300	3
1.70667	2
1.71033	1
1.71400	-0
1.71767	-3
1.72133	-2
1.72500	3
1.72867	4
1.73233	5
1.73600	2
1.73967	-1
1.74333	-2
1.74700	-3
1.75067	-4
1.75433	-4
1.75800	-3
1.76167	-1
1.76533	-2
1.76900	0
1.77267	1
1.77633	2
1.78000	2
1.78367	0
1.78733	0
1.79100	2
1.79467	3
1.79833	4
1.80200	5
1.80567	6
1.80933	7
1.81300	7
1.81667	6
1.82033	5
1.82400	2
1.82767	3
1.83133	5
1.83500	6
1.83867	6
1.84233	7
1.84600	9
1.84967	11
1.85333	13
1.85700	16
1.86067	19
1.86433	21
1.86800	23
1.87167	24
1.87533	22
1.87900	20
1.88267	16
1.88633	18
1.89000	20
1.89367	19
1.89733	18
1.90100	17
1.90467	16
1.90833	17
1.91200	19
1.91567	19
1.91933	19
1.92300	19
1.92667	18
1.93033	18
1.93400	18
1.93767	19
1.94133	21
1.94500	26
1.94867	29
1.95233	28
1.95600	26
1.95967	24
1.96333	25
1.96700	25
1.97067	25
1.97433	26
1.97800	27
1.98167	25
1.98533	24
1.98900	24
1.99267	24
1.99633	24
2.00000	24
2.00367	26
2.00733	30
2.01100	32
2.01467	34
2.01833	37
2.02200	38
2.02567	41
2.02933	45
2.03300	46
2.03667	47
2.04033	47
2.04400	47
2.04767	45
2.05133	42
2.05500	41
2.05867	42
2.06233	43
2.06600	44
2.06967	44
2.07333	41
2.07700	39
2.08067	37
2.08433	35
2.08800	37
2.09167	39
2.09533	42
2.09900	45
2.10267	49
2.10633	49
2.11000	49
2.11367	48
2.11733	50
2.12100	50
2.12467	50
2.12833	48
2.13200	50
2.13567	51
2.13933	51
2.14300	52
2.14667	51
2.15033	52
2.15400	52
2.15767	52
2.16133	52
2.16500	50
2.16867	48
2.17233	48
2.17600	49
2.17967	49
2.18333	46
2.18700	44
2.19067	47
2.19433	50
2.19800	50
2.20167	53
2.20533	56
2.20900	57
2.21267	58
2.21633	58
2.22000	58
2.22367	58
2.22733	61
2.23100	63
2.23467	64
2.23833	66
2.24200	66
2.24567	65
2.24933	64
2.25300	63
2.25667	64
2.26033	64
2.26400	64
2.26767	67
2.27133	71
2.27500	74
2.27867	75
2.28233	76
2.28600	77
2.28967	79
2.29333	78
2.29700	76
2.30067	74
2.30433	74
2.30800	74
2.31167	76
2.31533	79
2.31900	79
2.32267	78
2.32633	78
2.33000	78
2.33367	78
2.33733	80
2.34100	80
2.34467	77
2.34833	74
2.35200	74
2.35567	79
2.35933	84
2.36300	87
2.36667	87
2.37033	86
2.37400	86
2.37767	87
2.38133	88
2.38500	86
2.38867	80
2.39233	79
2.39600	84
2.39967	90
2.40333	99
2.40700	108
2.41067	114
2.41433	115
2.41800	116
2.42167	117
2.42533	115
2.42900	115
2.43267	114
2.43633	116
2.44000	120
2.44367	155
2.44733	217
2.45100	275
2.45467	313
2.45833	330
2.46200	336
2.46567	340
2.46933	337
2.47300	323
2.47667	304
2.48033	283
2.48400	265
2.48767	253
2.49133	248
2.49500	247
2.49867	251
2.50233	255
2.50600	257
2.50967	253
2.51333	242
2.51700	229
2.52067	218
2.52433	205
2.52800	191
2.53167	183
2.53533	179
2.53900	174
2.54267	168
2.54633	163
2.55000	159
2.55367	160
2.55733	162
2.56100	168
2.56467	175
2.56833	182
2.57200	189
2.57567	198
2.57933	204
2.58300	209
2.58667	212
2.59033	214
2.59400	208
2.59767	201
2.60133	194
2.60500	187
2.60867	183
2.61233	176
2.61600	167
2.61967	159
2.62333	151
2.62700	143
2.63067	134
2.63433	127
2.63800	122
2.64167	115
2.64533	108
2.64900	101
2.65267	98
2.65633	95
2.66000	93
2.66367	93
2.66733	92
2.67100	88
2.67467	86
2.67833	84
2.68200	85
2.68567	88
2.68933	91
2.69300	91
2.69667	91
2.70033	91
2.70400	92
2.70767	93
2.71133	95
2.71500	96
2.71867	98
2.72233	102
2.72600	105
2.72967	109
2.73333	116
2.73700	122
2.74067	126
2.74433	129
2.74800	131
2.75167	136
2.75533	139
2.75900	140
2.76267	142
2.76633	146
2.77000	150
2.77367	152
2.77733	150
2.78100	146
2.78467	146
2.78833	148
2.79200	148
2.79567	146
2.79933	143
2.80300	141
2.80667	139
2.81033	138
2.81400	137
2.81767	132
2.82133	131
2.82500	136
2.82867	140
2.83233	147
2.83600	170
2.83967	227
2.84333	350
2.84700	588
2.85067	989
2.85433	1600
2.85800	2451
2.86167	3538
2.86533	4826
2.86900	6237
2.87267	7666
2.87633	9005
2.88000	10153
2.88367	11016
2.88733	11546
2.89100	11736
2.89467	11611
2.89833	11225
2.90200	10642
2.90567	9924
2.90933	9132
2.91300	8310
2.91667	7491
2.92033	6704
2.92400	5968
2.92767	5292
2.93133	4675
2.93500	4120
2.93867	3624
2.94233	3182
2.94600	2790
2.94967	2445
2.95333	2140
2.95700	1874
2.96067	1641
2.96433	1436
2.96800	1260
2.97167	1109
2.97533	977
2.97900	864
2.98267	767
2.98633	685
2.99000	612
2.99367	548
2.99733	494
3.00100	447
3.00467	408
3.00833	374
3.01200	346
3.01567	323
3.01933	303
3.02300	283
3.02667	270
3.03033	257
3.03400	242
3.03767	230
3.04133	222
3.04500	213
3.04867	205
3.05233	198
3.05600	195
3.05967	193
3.06333	193
3.06700	191
3.07067	188
3.07433	188
3.07800	191
3.08167	192
3.08533	190
3.08900	189
3.09267	189
3.09633	190
3.10000	188
3.10367	185
3.10733	184
3.11100	184
3.11467	185
3.11833	186
3.12200	186
3.12567	186
3.12933	185
3.13300	186
3.13667	186
3.14033	187
3.14400	190
3.14767	188
3.15133	186
3.15500	185
3.15867	184
3.16233	184
3.16600	185
3.16967	189
3.17333	192
3.17700	193
3.18067	193
3.18433	196
3.18800	197
3.19167	197
3.19533	195
3.19900	192
3.20267	190
3.20633	187
3.21000	186
3.21367	185
3.21733	186
3.22100	186
3.22467	184
3.22833	181
3.23200	180
3.23567	181
3.23933	182
3.24300	192
3.24667	212
3.25033	238
3.25400	276
3.25767	323
3.26133	374
3.26500	428
3.26867	484
3.27233	535
3.27600	580
3.27967	618
3.28333	653
3.28700	685
3.29067	713
3.29433	735
3.29800	750
3.30167	762
3.30533	771
3.30900	775
3.31267	781
3.31633	785
3.32000	790
3.32367	791
3.32733	791
3.33100	792
3.33467	797
3.33833	798
3.34200	795
3.34567	792
3.34933	789
3.35300	786
3.35667	782
3.36033	777
3.36400	771
3.36767	768
3.37133	764
3.37500	758
3.37867	752
3.38233	746
3.38600	742
3.38967	740
3.39333	737
3.39700	734
3.40067	730
3.40433	727
3.40800	724
3.41167	719
3.41533	714
3.41900	711
3.42267	708
3.42633	704
3.43000	698
3.43367	691
3.43733	685
3.44100	681
3.44467	676
3.44833	672
3.45200	668
3.45567	664
3.45933	658
3.46300	653
3.46667	649
3.47033	645
3.47400	641
3.47767	636
3.48133	632
3.48500	627
3.48867	625
3.49233	623
3.49600	622
3.49967	621
3.50333	619
3.50700	618
3.51067	616
3.51433	614
3.51800	609
3.52167	605
3.52533	604
3.52900	606
3.53267	606
3.53633	604
3.54000	603
3.54367	603
3.54733	604
3.55100	602
3.55467	601
3.55833	598
3.56200	596
3.56567	598
3.56933	601
3.57300	599
3.57667	593
3.58033	590
3.58400	589
3.58767	589
3.59133	587
3.59500	585
3.59867	584
3.60233	583
3.60600	582
3.60967	580
3.61333	581
3.61700	578
3.62067	577
3.62433	576
3.62800	574
3.63167	570
3.63533	565
3.63900	561
3.64267	560
3.64633	557
3.65000	556
3.65367	557
3.65733	556
3.66100	555
3.66467	555
3.66833	555
3.67200	552
3.67567	551
3.67933	551
3.68300	552
3.68667	555
3.69033	554
3.69400	553
3.69767	551
3.70133	551
3.70500	550
3.70867	547
3.71233	547
3.71600	548
3.71967	547
3.72333	549
3.72700	550
3.73067	550
3.73433	550
3.73800	552
3.74167	552
3.74533	552
3.74900	550
3.75267	548
3.75633	545
3.76000	544
3.76367	543
3.76733	542
3.77100	540
3.77467	538
3.77833	537
3.78200	535
3.78567	533
3.78933	532
3.79300	534
3.79667	536
3.80033	539
3.80400	543
3.80767	545
3.81133	541
3.81500	539
3.81867	537
3.82233	536
3.82600	534
3.82967	530
3.83333	528
3.83700	527
3.84067	526
3.84433	524
3.84800	523
3.85167	522
3.85533	520
3.85900	520
3.86267	520
3.86633	525
3.87000	528
3.87367	529
3.87733	530
3.88100	530
3.88467	529
3.88833	528
3.89200	528
3.89567	523
3.89933	520
3.90300	517
3.90667	514
3.91033	513
3.91400	515
3.91767	514
3.92133	512
3.92500	512
3.92867	509
3.93233	506
3.93600	503
3.93967	498
3.94333	498
3.94700	498
3.95067	499
3.95433	501
3.95800	504
3.96167	507
3.96533	510
3.96900	511
3.97267	508
3.97633	506
3.98000	506
3.98367	505
3.98733	502
3.99100	501
3.99467	498
3.99833	489

[Status Trace (Column Oven Temperature)]
Interval(msec)	1000
# of Points	240
Start Time(min)	0.008
End Time(min)	3.991
Intensity Units	
Intensity Multiplier	1
R.Time (min)	Intensity
0.00813	35.08
0.02480	35.08
0.04147	35.08
0.05813	35.08
0.07480	35.06
0.09147	35.06
0.10813	35.05
0.12480	35.06
0.14147	35.06
0.15813	35.06
0.17480	35.04
0.19147	35.03
0.20813	35.04
0.22480	35.04
0.24147	35.04
0.25813	35.03
0.27480	35.02
0.29147	35.02
0.30813	35.02
0.32480	35.04
0.34147	35.04
0.35813	35.05
0.37480	35.04
0.39147	35.03
0.40813	35.02
0.42480	35.02
0.44147	35.01
0.45813	35.01
0.47480	35.01
0.49147	35.00
0.50813	35.01
0.52480	35.01
0.54147	35.00
0.55813	35.00
0.57480	35.00
0.59147	35.00
0.60813	35.00
0.62480	35.00
0.64147	35.01
0.65813	35.02
0.67480	35.02
0.69147	35.01
0.70813	35.01
0.72480	34.99
0.74147	34.99
0.75813	34.99
0.77480	34.99
0.79147	34.98
0.80813	34.98
0.82480	34.97
0.84147	34.98
0.85813	34.98
0.87480	34.99
0.89147	34.99
0.90813	34.99
0.92480	34.99
0.94147	34.99
0.95813	35.00
0.97480	34.99
0.99147	35.00
1.00813	34.99
1.02480	35.00
1.04147	34.99
1.05813	34.99
1.07480	34.99
1.09147	34.99
1.10813	35.00
1.12480	34.99
1.14147	35.00
1.15813	34.99
1.17480	35.00
1.19147	34.99
1.20813	34.99
1.22480	34.98
1.24147	34.98
1.25813	34.98
1.27480	34.98
1.29147	34.99
1.30813	34.99
1.32480	34.99
1.34147	35.00
1.35813	35.01
1.37480	35.01
1.39147	35.00
1.40813	34.99
1.42480	34.99
1.44147	34.99
1.45813	34.99
1.47480	34.99
1.49147	34.99
1.50813	35.00
1.52480	35.00
1.54147	34.99
1.55813	34.99
1.57480	34.99
1.59147	35.00
1.60813	35.06
1.62480	35.18
1.64147	35.37
1.65813	35.60
1.67480	35.92
1.69147	36.30
1.70813	36.65
1.72480	37.00
1.74147	37.33
1.75813	37.66
1.77480	38.00
1.79147	38.34
1.80813	38.66
1.82480	38.99
1.84147	39.33
1.85813	39.65
1.87480	39.97
1.89147	40.31
1.90813	40.63
1.92480	40.98
1.94147	41.30
1.95813	41.62
1.97480	41.96
1.99147	42.29
2.00813	42.62
2.02480	42.93
2.04147	43.28
2.05813	43.58
2.07480	43.90
2.09147	44.25
2.10813	44.57
2.12480	44.89
2.14147	45.21
2.15813	45.55
2.17480	45.87
2.19147	46.21
2.20813	46.53
2.22480	46.85
2.24147	47.14
2.25813	47.49
2.27480	47.82
2.29147	48.14
2.30813	48.49
2.32480	48.84
2.34147	49.14
2.35813	49.42
2.37480	49.63
2.39147	49.71
2.40813	49.71
2.42480	49.70
2.44147	49.72
2.45813	49.72
2.47480	49.75
2.49147	49.75
2.50813	49.76
2.52480	49.77
2.54147	49.78
2.55813	49.79
2.57480	49.80
2.59147	49.81
2.60813	49.81
2.62480	49.83
2.64147	49.83
2.65813	49.83
2.67480	49.85
2.69147	49.86
2.70813	49.86
2.72480	49.85
2.74147	49.85
2.75813	49.86
2.77480	49.87
2.79147	49.87
2.80813	49.87
2.82480	49.87
2.84147	49.89
2.85813	49.90
2.87480	49.91
2.89147	49.92
2.90813	49.94
2.92480	49.95
2.94147	49.97
2.95813	49.99
2.97480	50.00
2.99147	50.01
3.00813	50.02
3.02480	50.02
3.04147	50.02
3.05813	50.03
3.07480	50.04
3.09147	50.05
3.10813	50.06
3.12480	50.07
3.14147	50.08
3.15813	50.09
3.17480	50.09
3.19147	50.09
3.20813	50.11
3.22480	50.11
3.24147	50.10
3.25813	50.09
3.27480	50.08
3.29147	50.06
3.30813	50.05
3.32480	50.05
3.34147	50.05
3.35813	50.04
3.37480	50.03
3.39147	50.04
3.40813	50.04
3.42480	50.03
3.44147	50.03
3.45813	50.03
3.47480	50.04
3.49147	50.04
3.50813	50.04
3.52480	50.05
3.54147	50.05
3.55813	50.05
3.57480	50.05
3.59147	50.06
3.60813	50.06
3.62480	50.06
3.64147	50.06
3.65813	50.07
3.67480	50.08
3.69147	50.09
3.70813	50.09
3.72480	50.09
3.74147	50.08
3.75813	50.08
3.77480	50.08
3.79147	50.08
3.80813	50.08
3.82480	50.07
3.84147	50.07
3.85813	50.06
3.87480	50.06
3.89147	50.06
3.90813	50.06
3.92480	50.06
3.94147	50.07
3.95813	50.07
3.97480	50.06
3.99147	50.06

[Status Trace (Injection Unit Temperature)]
Interval(msec)	1000
# of Points	240
Start Time(min)	0.008
End Time(min)	3.991
Intensity Units	
Intensity Multiplier	1
R.Time (min)	Intensity
0.00813	99.97
0.02480	99.97
0.04147	99.97
0.05813	99.98
0.07480	99.98
0.09147	99.97
0.10813	99.98
0.12480	99.98
0.14147	99.98
0.15813	99.98
0.17480	99.98
0.19147	99.98
0.20813	99.98
0.22480	99.98
0.24147	99.98
0.25813	99.98
0.27480	99.98
0.29147	99.98
0.30813	99.98
0.32480	99.98
0.34147	99.98
0.35813	99.98
0.37480	99.98
0.39147	99.98
0.40813	99.98
0.42480	99.98
0.44147	99.98
0.45813	99.98
0.47480	99.98
0.49147	99.98
0.50813	99.98
0.52480	99.98
0.54147	99.98
0.55813	99.98
0.57480	99.98
0.59147	99.98
0.60813	99.98
0.62480	99.98
0.64147	99.98
0.65813	99.98
0.67480	99.98
0.69147	99.98
0.70813	99.98
0.72480	99.98
0.74147	99.98
0.75813	99.98
0.77480	99.98
0.79147	99.98
0.80813	99.98
0.82480	99.98
0.84147	99.98
0.85813	99.98
0.87480	99.98
0.89147	99.98
0.90813	99.98
0.92480	99.98
0.94147	99.98
0.95813	99.98
0.97480	99.98
0.99147	99.98
1.00813	99.98
1.02480	99.98
1.04147	99.98
1.05813	99.98
1.07480	99.98
1.09147	99.98
1.10813	99.98
1.12480	99.98
1.14147	99.98
1.15813	99.98
1.17480	99.98
1.19147	99.98
1.20813	99.98
1.22480	99.98
1.24147	99.98
1.25813	99.98
1.27480	99.98
1.29147	99.98
1.30813	99.98
1.32480	99.98
1.34147	99.98
1.35813	99.98
1.37480	99.98
1.39147	99.98
1.40813	99.98
1.42480	99.99
1.44147	99.99
1.45813	99.98
1.47480	99.99
1.49147	99.99
1.50813	99.98
1.52480	99.98
1.54147	99.98
1.55813	99.99
1.57480	99.98
1.59147	99.98
1.60813	99.98
1.62480	99.99
1.64147	99.98
1.65813	99.99
1.67480	99.99
1.69147	99.98
1.70813	99.99
1.72480	99.98
1.74147	99.98
1.75813	99.98
1.77480	99.98
1.79147	99.98
1.80813	99.98
1.82480	99.98
1.84147	99.98
1.85813	99.98
1.87480	99.97
1.89147	99.98
1.90813	99.97
1.92480	99.98
1.94147	99.97
1.95813	99.97
1.97480	99.97
1.99147	99.97
2.00813	99.97
2.02480	99.97
2.04147	99.97
2.05813	99.97
2.07480	99.97
2.09147	99.97
2.10813	99.97
2.12480	99.96
2.14147	99.96
2.15813	99.96
2.17480	99.96
2.19147	99.96
2.20813	99.96
2.22480	99.96
2.24147	99.96
2.25813	99.96
2.27480	99.96
2.29147	99.96
2.30813	99.96
2.32480	99.96
2.34147	99.96
2.35813	99.96
2.37480	99.96
2.39147	99.96
2.40813	99.96
2.42480	99.96
2.44147	99.96
2.45813	99.96
2.47480	99.96
2.49147	99.96
2.50813	99.96
2.52480	99.96
2.54147	99.96
2.55813	99.97
2.57480	99.96
2.59147	99.97
2.60813	99.97
2.62480	99.97
2.64147	99.97
2.65813	99.97
2.67480	99.97
2.69147	99.98
2.70813	99.98
2.72480	99.98
2.74147	99.98
2.75813	99.98
2.77480	99.98
2.79147	99.99
2.80813	99.99
2.82480	99.99
2.84147	99.99
2.85813	99.99
2.87480	99.99
2.89147	99.99
2.90813	100.00
2.92480	100.00
2.94147	100.00
2.95813	100.00
2.97480	100.00
2.99147	100.01
3.00813	100.01
3.02480	100.00
3.04147	100.01
3.05813	100.01
3.07480	100.01
3.09147	100.01
3.10813	100.01
3.12480	100.02
3.14147	100.02
3.15813	100.02
3.17480	100.02
3.19147	100.02
3.20813	100.02
3.22480	100.02
3.24147	100.02
3.25813	100.03
3.27480	100.03
3.29147	100.03
3.30813	100.03
3.32480	100.03
3.34147	100.03
3.35813	100.03
3.37480	100.03
3.39147	100.04
3.40813	100.04
3.42480	100.04
3.44147	100.04
3.45813	100.04
3.47480	100.04
3.49147	100.04
3.50813	100.03
3.52480	100.04
3.54147	100.04
3.55813	100.04
3.57480	100.04
3.59147	100.04
3.60813	100.04
3.62480	100.04
3.64147	100.04
3.65813	100.04
3.67480	100.04
3.69147	100.04
3.70813	100.04
3.72480	100.04
3.74147	100.04
3.75813	100.04
3.77480	100.04
3.79147	100.04
3.80813	100.04
3.82480	100.05
3.84147	100.04
3.85813	100.05
3.87480	100.04
3.89147	100.05
3.90813	100.04
3.92480	100.04
3.94147	100.05
3.95813	100.04
3.97480	100.04
3.99147	100.04

[Status Trace (Carrier Gas Pressure)]
Interval(msec)	1000
# of Points	240
Start Time(min)	0.008
End Time(min)	3.991
Intensity Units	
Intensity Multiplier	1
R.Time (min)	Intensity
0.00813	58.00
0.02480	55.30
0.04147	57.05
0.05813	59.23
0.07480	59.44
0.09147	58.09
0.10813	57.98
0.12480	58.01
0.14147	58.01
0.15813	58.00
0.17480	58.00
0.19147	58.00
0.20813	58.00
0.22480	58.00
0.24147	58.00
0.25813	58.00
0.27480	58.00
0.29147	58.00
0.30813	58.00
0.32480	58.00
0.34147	58.00
0.35813	58.00
0.37480	58.00
0.39147	58.00
0.40813	58.00
0.42480	58.00
0.44147	58.00
0.45813	58.00
0.47480	58.00
0.49147	58.00
0.50813	58.00
0.52480	58.00
0.54147	58.00
0.55813	58.00
0.57480	58.00
0.59147	58.00
0.60813	58.00
0.62480	58.00
0.64147	58.00
0.65813	58.00
0.67480	58.00
0.69147	58.00
0.70813	58.00
0.72480	58.00
0.74147	58.00
0.75813	58.00
0.77480	58.00
0.79147	58.00
0.80813	58.00
0.82480	58.00
0.84147	58.00
0.85813	58.00
0.87480	58.00
0.89147	58.00
0.90813	58.00
0.92480	58.00
0.94147	58.00
0.95813	58.00
0.97480	58.00
0.99147	58.00
1.00813	58.00
1.02480	58.00
1.04147	58.00
1.05813	58.00
1.07480	58.00
1.09147	58.00
1.10813	58.00
1.12480	58.00
1.14147	58.00
1.15813	58.00
1.17480	58.00
1.19147	58.00
1.20813	58.00
1.22480	58.00
1.24147	58.00
1.25813	58.00
1.27480	58.00
1.29147	58.00
1.30813	58.00
1.32480	58.00
1.34147	58.00
1.35813	58.00
1.37480	58.00
1.39147	58.00
1.40813	58.00
1.42480	58.00
1.44147	58.00
1.45813	58.00
1.47480	58.00
1.49147	58.00
1.50813	58.00
1.52480	58.00
1.54147	58.00
1.55813	58.00
1.57480	58.00
1.59147	58.00
1.60813	58.00
1.62480	58.00
1.64147	58.00
1.65813	58.00
1.67480	58.01
1.69147	58.00
1.70813	58.00
1.72480	58.00
1.74147	58.00
1.75813	58.00
1.77480	58.00
1.79147	58.00
1.80813	58.00
1.82480	58.00
1.84147	58.00
1.85813	58.00
1.87480	58.00
1.89147	58.00
1.90813	58.00
1.92480	58.00
1.94147	58.00
1.95813	58.00
1.97480	58.00
1.99147	58.00
2.00813	58.00
2.02480	58.00
2.04147	58.00
2.05813	58.00
2.07480	58.00
2.09147	58.00
2.10813	58.00
2.12480	58.00
2.14147	58.00
2.15813	58.00
2.17480	58.00
2.19147	58.00
2.20813	58.00
2.22480	58.00
2.24147	58.00
2.25813	58.00
2.27480	58.00
2.29147	58.00
2.30813	58.00
2.32480	58.00
2.34147	58.00
2.35813	58.00
2.37480	58.00
2.39147	57.99
2.40813	57.99
2.42480	58.00
2.44147	58.00
2.45813	58.00
2.47480	58.00
2.49147	58.00
2.50813	58.00
2.52480	57.98
2.54147	58.00
2.55813	58.00
2.57480	58.00
2.59147	58.00
2.60813	58.00
2.62480	58.00
2.64147	58.00
2.65813	58.00
2.67480	58.00
2.69147	58.00
2.70813	58.00
2.72480	58.00
2.74147	58.00
2.75813	58.00
2.77480	58.00
2.79147	58.00
2.80813	58.00
2.82480	58.00
2.84147	58.00
2.85813	58.00
2.87480	58.00
2.89147	58.00
2.90813	58.00
2.92480	58.00
2.94147	58.00
2.95813	58.00
2.97480	58.00
2.99147	58.00
3.00813	58.00
3.02480	58.00
3.04147	58.00
3.05813	58.00
3.07480	58.00
3.09147	58.00
3.10813	58.00
3.12480	58.00
3.14147	58.00
3.15813	58.00
3.17480	58.00
3.19147	58.00
3.20813	58.00
3.22480	58.00
3.24147	58.00
3.25813	58.00
3.27480	58.00
3.29147	58.00
3.30813	58.00
3.32480	58.00
3.34147	58.00
3.35813	58.00
3.37480	58.00
3.39147	58.00
3.40813	58.00
3.42480	58.00
3.44147	58.00
3.45813	58.00
3.47480	58.00
3.49147	58.00
3.50813	58.00
3.52480	58.00
3.54147	58.00
3.55813	58.00
3.57480	58.00
3.59147	58.00
3.60813	58.00
3.62480	58.00
3.64147	58.00
3.65813	58.00
3.67480	58.00
3.69147	58.00
3.70813	58.00
3.72480	58.00
3.74147	58.00
3.75813	58.00
3.77480	58.00
3.79147	58.00
3.80813	58.00
3.82480	58.00
3.84147	58.00
3.85813	58.00
3.87480	58.00
3.89147	58.00
3.90813	58.00
3.92480	58.00
3.94147	58.00
3.95813	58.00
3.97480	58.00
3.99147	58.00

[Status Trace (Carrier Gas Flow)]
Interval(msec)	1000
# of Points	240
Start Time(min)	0.008
End Time(min)	3.991
Intensity Units	
Intensity Multiplier	1
R.Time (min)	Intensity
0.00813	34.52
0.02480	34.53
0.04147	34.55
0.05813	34.55
0.07480	34.50
0.09147	34.51
0.10813	34.51
0.12480	34.52
0.14147	34.52
0.15813	34.52
0.17480	34.52
0.19147	34.52
0.20813	34.52
0.22480	34.51
0.24147	34.52
0.25813	34.52
0.27480	34.52
0.29147	34.52
0.30813	34.52
0.32480	34.52
0.34147	34.52
0.35813	34.53
0.37480	34.52
0.39147	34.51
0.40813	34.52
0.42480	34.52
0.44147	34.52
0.45813	34.52
0.47480	34.51
0.49147	34.52
0.50813	34.52
0.52480	34.52
0.54147	34.52
0.55813	34.53
0.57480	34.52
0.59147	34.52
0.60813	34.52
0.62480	34.52
0.64147	34.52
0.65813	34.52
0.67480	34.52
0.69147	34.52
0.70813	34.52
0.72480	34.51
0.74147	34.52
0.75813	34.52
0.77480	34.52
0.79147	34.52
0.80813	34.51
0.82480	34.52
0.84147	34.52
0.85813	34.52
0.87480	34.52
0.89147	34.51
0.90813	34.52
0.92480	34.52
0.94147	34.52
0.95813	34.52
0.97480	34.52
0.99147	34.52
1.00813	34.52
1.02480	34.52
1.04147	34.52
1.05813	34.52
1.07480	34.52
1.09147	34.52
1.10813	34.52
1.12480	34.52
1.14147	34.52
1.15813	34.52
1.17480	34.51
1.19147	34.52
1.20813	34.52
1.22480	34.52
1.24147	34.52
1.25813	34.52
1.27480	34.52
1.29147	34.52
1.30813	34.51
1.32480	34.52
1.34147	34.52
1.35813	34.52
1.37480	34.52
1.39147	34.52
1.40813	34.52
1.42480	34.52
1.44147	34.52
1.45813	34.52
1.47480	34.52
1.49147	34.52
1.50813	34.52
1.52480	34.52
1.54147	34.52
1.55813	34.52
1.57480	34.52
1.59147	34.52
1.60813	34.51
1.62480	34.52
1.64147	34.52
1.65813	34.52
1.67480	34.52
1.69147	34.53
1.70813	34.53
1.72480	34.52
1.74147	34.52
1.75813	34.52
1.77480	34.52
1.79147	34.52
1.80813	34.52
1.82480	34.53
1.84147	34.52
1.85813	34.52
1.87480	34.52
1.89147	34.52
1.90813	34.52
1.92480	34.51
1.94147	34.52
1.95813	34.52
1.97480	34.52
1.99147	34.53
2.00813	34.52
2.02480	34.51
2.04147	34.52
2.05813	34.52
2.07480	34.52
2.09147	34.52
2.10813	34.52
2.12480	34.51
2.14147	34.51
2.15813	34.52
2.17480	34.52
2.19147	34.52
2.20813	34.52
2.22480	34.52
2.24147	34.51
2.25813	34.51
2.27480	34.53
2.29147	34.52
2.30813	34.52
2.32480	34.52
2.34147	34.52
2.35813	34.52
2.37480	34.52
2.39147	34.53
2.40813	34.53
2.42480	34.52
2.44147	34.52
2.45813	34.52
2.47480	34.52
2.49147	34.52
2.50813	34.41
2.52480	34.52
2.54147	34.52
2.55813	34.52
2.57480	34.52
2.59147	34.52
2.60813	34.52
2.62480	34.51
2.64147	34.52
2.65813	34.52
2.67480	34.52
2.69147	34.52
2.70813	34.52
2.72480	34.52
2.74147	34.52
2.75813	34.51
2.77480	34.52
2.79147	34.52
2.80813	34.52
2.82480	34.52
2.84147	34.52
2.85813	34.52
2.87480	34.52
2.89147	34.52
2.90813	34.51
2.92480	34.52
2.94147	34.52
2.95813	34.51
2.97480	34.52
2.99147	34.51
3.00813	34.52
3.02480	34.51
3.04147	34.52
3.05813	34.52
3.07480	34.52
3.09147	34.51
3.10813	34.52
3.12480	34.52
3.14147	34.52
3.15813	34.51
3.17480	34.51
3.19147	34.52
3.20813	34.51
3.22480	34.53
3.24147	34.52
3.25813	34.52
3.27480	34.51
3.29147	34.52
3.30813	34.53
3.32480	34.52
3.34147	34.51
3.35813	34.52
3.37480	34.53
3.39147	34.52
3.40813	34.52
3.42480	34.52
3.44147	34.52
3.45813	34.52
3.47480	34.51
3.49147	34.52
3.50813	34.51
3.52480	34.52
3.54147	34.52
3.55813	34.52
3.57480	34.52
3.59147	34.52
3.60813	34.52
3.62480	34.52
3.64147	34.52
3.65813	34.52
3.67480	34.52
3.69147	34.52
3.70813	34.52
3.72480	34.52
3.74147	34.52
3.75813	34.52
3.77480	34.52
3.79147	34.52
3.80813	34.52
3.82480	34.52
3.84147	34.52
3.85813	34.51
3.87480	34.52
3.89147	34.52
3.90813	34.52
3.92480	34.52
3.94147	34.52
3.95813	34.52
3.97480	34.52
3.99147	34.52

[Status Trace (Column Flow)]
Interval(msec)	1000
# of Points	240
Start Time(min)	0.008
End Time(min)	3.991
Intensity Units	
Intensity Multiplier	1
R.Time (min)	Intensity
0.00813	5.51
0.02480	5.20
0.04147	5.40
0.05813	5.65
0.07480	5.68
0.09147	5.52
0.10813	5.51
0.12480	5.51
0.14147	5.51
0.15813	5.51
0.17480	5.51
0.19147	5.51
0.20813	5.51
0.22480	5.51
0.24147	5.51
0.25813	5.51
0.27480	5.51
0.29147	5.51
0.30813	5.51
0.32480	5.51
0.34147	5.51
0.35813	5.51
0.37480	5.51
0.39147	5.51
0.40813	5.51
0.42480	5.51
0.44147	5.51
0.45813	5.51
0.47480	5.51
0.49147	5.51
0.50813	5.51
0.52480	5.51
0.54147	5.51
0.55813	5.51
0.57480	5.51
0.59147	5.51
0.60813	5.51
0.62480	5.51
0.64147	5.51
0.65813	5.51
0.67480	5.51
0.69147	5.51
0.70813	5.51
0.72480	5.51
0.74147	5.51
0.75813	5.51
0.77480	5.51
0.79147	5.51
0.80813	5.51
0.82480	5.51
0.84147	5.51
0.85813	5.51
0.87480	5.51
0.89147	5.51
0.90813	5.51
0.92480	5.51
0.94147	5.51
0.95813	5.51
0.97480	5.51
0.99147	5.51
1.00813	5.51
1.02480	5.51
1.04147	5.51
1.05813	5.51
1.07480	5.51
1.09147	5.51
1.10813	5.51
1.12480	5.51
1.14147	5.51
1.15813	5.51
1.17480	5.51
1.19147	5.51
1.20813	5.51
1.22480	5.51
1.24147	5.51
1.25813	5.51
1.27480	5.51
1.29147	5.51
1.30813	5.51
1.32480	5.51
1.34147	5.51
1.35813	5.51
1.37480	5.51
1.39147	5.51
1.40813	5.51
1.42480	5.51
1.44147	5.51
1.45813	5.51
1.47480	5.51
1.49147	5.51
1.50813	5.51
1.52480	5.51
1.54147	5.51
1.55813	5.51
1.57480	5.51
1.59147	5.51
1.60813	5.51
1.62480	5.51
1.64147	5.50
1.65813	5.49
1.67480	5.48
1.69147	5.47
1.70813	5.46
1.72480	5.45
1.74147	5.44
1.75813	5.43
1.77480	5.42
1.79147	5.41
1.80813	5.40
1.82480	5.39
1.84147	5.38
1.85813	5.37
1.87480	5.36
1.89147	5.35
1.90813	5.34
1.92480	5.33
1.94147	5.32
1.95813	5.31
1.97480	5.30
1.99147	5.29
2.00813	5.28
2.02480	5.27
2.04147	5.26
2.05813	5.25
2.07480	5.24
2.09147	5.23
2.10813	5.22
2.12480	5.21
2.14147	5.20
2.15813	5.19
2.17480	5.18
2.19147	5.17
2.20813	5.17
2.22480	5.16
2.24147	5.15
2.25813	5.14
2.27480	5.13
2.29147	5.12
2.30813	5.11
2.32480	5.10
2.34147	5.09
2.35813	5.08
2.37480	5.08
2.39147	5.08
2.40813	5.08
2.42480	5.08
2.44147	5.08
2.45813	5.08
2.47480	5.08
2.49147	5.08
2.50813	5.07
2.52480	5.07
2.54147	5.07
2.55813	5.07
2.57480	5.07
2.59147	5.07
2.60813	5.07
2.62480	5.07
2.64147	5.07
2.65813	5.07
2.67480	5.07
2.69147	5.07
2.70813	5.07
2.72480	5.07
2.74147	5.07
2.75813	5.07
2.77480	5.07
2.79147	5.07
2.80813	5.07
2.82480	5.07
2.84147	5.07
2.85813	5.07
2.87480	5.07
2.89147	5.07
2.90813	5.07
2.92480	5.07
2.94147	5.07
2.95813	5.07
2.97480	5.07
2.99147	5.07
3.00813	5.07
3.02480	5.07
3.04147	5.07
3.05813	5.07
3.07480	5.07
3.09147	5.07
3.10813	5.07
3.12480	5.07
3.14147	5.07
3.15813	5.07
3.17480	5.07
3.19147	5.07
3.20813	5.07
3.22480	5.07
3.24147	5.07
3.25813	5.07
3.27480	5.07
3.29147	5.07
3.30813	5.07
3.32480	5.07
3.34147	5.07
3.35813	5.07
3.37480	5.07
3.39147	5.07
3.40813	5.07
3.42480	5.07
3.44147	5.07
3.45813	5.07
3.47480	5.07
3.49147	5.07
3.50813	5.07
3.52480	5.07
3.54147	5.07
3.55813	5.07
3.57480	5.07
3.59147	5.07
3.60813	5.07
3.62480	5.07
3.64147	5.07
3.65813	5.07
3.67480	5.07
3.69147	5.07
3.70813	5.07
3.72480	5.07
3.74147	5.07
3.75813	5.07
3.77480	5.07
3.79147	5.07
3.80813	5.07
3.82480	5.07
3.84147	5.07
3.85813	5.07
3.87480	5.07
3.89147	5.07
3.90813	5.07
3.92480	5.07
3.94147	5.07
3.95813	5.07
3.97480	5.07
3.99147	5.07

[Status Trace (Linear Velocity)]
Interval(msec)	1000
# of Points	240
Start Time(min)	0.008
End Time(min)	3.991
Intensity Units	
Intensity Multiplier	1
R.Time (min)	Intensity
0.00813	39.01
0.02480	37.24
0.04147	38.38
0.05813	39.81
0.07480	39.95
0.09147	39.07
0.10813	39.00
0.12480	39.02
0.14147	39.01
0.15813	39.01
0.17480	39.01
0.19147	39.01
0.20813	39.01
0.22480	39.01
0.24147	39.01
0.25813	39.01
0.27480	39.01
0.29147	39.01
0.30813	39.01
0.32480	39.01
0.34147	39.01
0.35813	39.01
0.37480	39.01
0.39147	39.01
0.40813	39.01
0.42480	39.01
0.44147	39.01
0.45813	39.01
0.47480	39.01
0.49147	39.01
0.50813	39.01
0.52480	39.01
0.54147	39.01
0.55813	39.01
0.57480	39.01
0.59147	39.01
0.60813	39.01
0.62480	39.01
0.64147	39.01
0.65813	39.01
0.67480	39.01
0.69147	39.01
0.70813	39.01
0.72480	39.01
0.74147	39.02
0.75813	39.02
0.77480	39.02
0.79147	39.02
0.80813	39.02
0.82480	39.02
0.84147	39.02
0.85813	39.02
0.87480	39.02
0.89147	39.02
0.90813	39.02
0.92480	39.02
0.94147	39.01
0.95813	39.01
0.97480	39.01
0.99147	39.01
1.00813	39.02
1.02480	39.01
1.04147	39.02
1.05813	39.01
1.07480	39.02
1.09147	39.02
1.10813	39.01
1.12480	39.01
1.14147	39.01
1.15813	39.01
1.17480	39.01
1.19147	39.02
1.20813	39.01
1.22480	39.02
1.24147	39.02
1.25813	39.02
1.27480	39.02
1.29147	39.02
1.30813	39.01
1.32480	39.02
1.34147	39.01
1.35813	39.01
1.37480	39.01
1.39147	39.01
1.40813	39.01
1.42480	39.02
1.44147	39.01
1.45813	39.02
1.47480	39.02
1.49147	39.02
1.50813	39.01
1.52480	39.01
1.54147	39.01
1.55813	39.02
1.57480	39.01
1.59147	39.01
1.60813	39.01
1.62480	39.00
1.64147	38.98
1.65813	38.96
1.67480	38.93
1.69147	38.89
1.70813	38.86
1.72480	38.82
1.74147	38.79
1.75813	38.76
1.77480	38.73
1.79147	38.70
1.80813	38.67
1.82480	38.63
1.84147	38.60
1.85813	38.57
1.87480	38.54
1.89147	38.51
1.90813	38.48
1.92480	38.45
1.94147	38.42
1.95813	38.39
1.97480	38.36
1.99147	38.33
2.00813	38.30
2.02480	38.27
2.04147	38.24
2.05813	38.21
2.07480	38.18
2.09147	38.15
2.10813	38.12
2.12480	38.09
2.14147	38.06
2.15813	38.03
2.17480	38.00
2.19147	37.97
2.20813	37.94
2.22480	37.91
2.24147	37.88
2.25813	37.85
2.27480	37.82
2.29147	37.79
2.30813	37.76
2.32480	37.73
2.34147	37.71
2.35813	37.68
2.37480	37.66
2.39147	37.65
2.40813	37.65
2.42480	37.66
2.44147	37.65
2.45813	37.65
2.47480	37.65
2.49147	37.65
2.50813	37.65
2.52480	37.64
2.54147	37.65
2.55813	37.65
2.57480	37.65
2.59147	37.65
2.60813	37.65
2.62480	37.65
2.64147	37.65
2.65813	37.64
2.67480	37.64
2.69147	37.64
2.70813	37.64
2.72480	37.64
2.74147	37.64
2.75813	37.64
2.77480	37.64
2.79147	37.64
2.80813	37.64
2.82480	37.64
2.84147	37.64
2.85813	37.64
2.87480	37.64
2.89147	37.64
2.90813	37.64
2.92480	37.63
2.94147	37.63
2.95813	37.63
2.97480	37.63
2.99147	37.63
3.00813	37.63
3.02480	37.63
3.04147	37.63
3.05813	37.63
3.07480	37.63
3.09147	37.63
3.10813	37.62
3.12480	37.62
3.14147	37.62
3.15813	37.62
3.17480	37.62
3.19147	37.62
3.20813	37.62
3.22480	37.62
3.24147	37.62
3.25813	37.62
3.27480	37.62
3.29147	37.63
3.30813	37.63
3.32480	37.63
3.34147	37.63
3.35813	37.63
3.37480	37.63
3.39147	37.63
3.40813	37.63
3.42480	37.63
3.44147	37.63
3.45813	37.63
3.47480	37.63
3.49147	37.63
3.50813	37.63
3.52480	37.63
3.54147	37.63
3.55813	37.63
3.57480	37.63
3.59147	37.62
3.60813	37.63
3.62480	37.62
3.64147	37.62
3.65813	37.62
3.67480	37.62
3.69147	37.62
3.70813	37.62
3.72480	37.62
3.74147	37.62
3.75813	37.62
3.77480	37.62
3.79147	37.62
3.80813	37.62
3.82480	37.62
3.84147	37.62
3.85813	37.63
3.87480	37.63
3.89147	37.63
3.90813	37.63
3.92480	37.62
3.94147	37.62
3.95813	37.62
3.97480	37.62
3.99147	37.62

