[Header]
Application Name	LabSolutions
Version	5.110
Data File Name	C:\Users\User\Desktop\Junior\UIC Prairie Sampling\7.18.23\071823_057.gcd
Output Date	8/29/2023
Output Time	10:40:23 AM

[File Information]
Type	Data File
Generated	8/28/2023 8:33:22 PM
Generated by	System Administrator
Modified	8/28/2023 8:39:59 PM
Modified by	System Administrator

[Sample Information]
Operator Name	System Administrator
Acquired	8/28/2023 8:35:58 PM
Sample Type	0:Unknown
Level	0
Sample Name	057
Sample ID	057
ISTD Amount1	1
ISTD Amount2	1
ISTD Amount3	1
ISTD Amount4	1
ISTD Amount5	1
ISTD Amount6	1
ISTD Amount7	1
ISTD Amount8	1
ISTD Amount9	1
ISTD Amount10	1
ISTD Amount11	1
ISTD Amount12	1
ISTD Amount13	1
ISTD Amount14	1
ISTD Amount15	1
ISTD Amount16	1
ISTD Amount17	1
ISTD Amount18	1
ISTD Amount19	1
ISTD Amount20	1
ISTD Amount21	1
ISTD Amount22	1
ISTD Amount23	1
ISTD Amount24	1
ISTD Amount25	1
ISTD Amount26	1
ISTD Amount27	1
ISTD Amount28	1
ISTD Amount29	1
ISTD Amount30	1
ISTD Amount31	1
ISTD Amount32	1
Sample Amount	1
Dilution Factor	1
Vial#	56
Injection Volume	1
Injection Count	1
Bar Code	

[Original Files]
Data File	C:\Users\User\Desktop\Junior\UIC Prairie Sampling\7.18.23\071823_057.gcd
Method File	C:\LabSolutions\Data\GHG_4min_2022\ghg3_togas_w_acet_4 min_new_int.gcm
Batch File	C:\LabSolutions\Data\BATCH FILES\071823.gcb
Report Format File	c:\LabSolutions\System\DEFAULT.lsr

[File Description]


[Configuration]
Instrument Name	C0B7VH3-Instrument1
Instrument #	1
Line #	1
# of Detectors	3
Detector ID	DET#1	DET#2	DET#3
Detector Name	FID	PTCD	ECD
# of Channels	1	1	1

[Peak Table(Ch1)]
# of Peaks	3
Peak#	R.Time	I.Time	F.Time	Area	Height	A/H	Conc.	Mark	ID#	Name	k'	Plate #	Plate Ht.	Tailing	Resolution	Sep.Factor	Area Ratio	Height Ratio	Conc. %	Norm Conc.
1	1.472	1.432	1.531	9968	4948	2.014	0.000	   	1	CO	0.000	9903	15.146	1.318	0.000	0.000	0	0	0.000	0.000
2	1.564	1.531	1.626	4472	2279	1.962	21.802	 V 	2	CH4	0.062	11523	13.017	1.131	1.561	0.000	0	0	5.459	5.459
3	1.989	1.945	2.543	1959286	940774	2.083	377.590	   	3	CO2	0.351	17642	8.503	1.329	7.199	5.640	0	0	94.541	94.541

[Peak Table(Ch2)]
# of Peaks	0

[Peak Table(Ch3)]
# of Peaks	5
Peak#	R.Time	I.Time	F.Time	Area	Height	A/H	Conc.	Mark	ID#	Name	k'	Plate #	Plate Ht.	Tailing	Resolution	Sep.Factor	Area Ratio	Height Ratio	Conc. %	Norm Conc.
1	2.458	2.301	2.499	948	274	3.455	0.000	   			0.000	12486	12.013	0.000	0.000	0.000	0	0	0.000	0.000
2	2.517	2.499	2.557	378	132	2.863	0.000	 V 			0.024	4282	35.027	0.000	0.485	0.000	0	0	0.000	0.000
3	2.616	2.557	2.686	830	158	5.249	0.000	 V 			0.064	4653	32.236	0.000	0.644	2.688	0	0	0.000	0.000
4	2.891	2.686	3.023	17105	3937	4.345	0.253	 V 	1	N2O	0.176	12638	11.869	1.414	2.146	2.744	0	0	100.000	100.000
5	3.104	3.023	3.995	28783	1061	27.120	0.000	   	2	SF6	0.263	171	878.228	6.028	0.404	1.492	0	0	0.000	0.000

[Compound Results(Ch1)]
# of IDs	6
ID#	Name	R.Time	Area	Height	Conc.	Curve	3rd	2nd	1st	Constant	Area Ratio	Height Ratio	Conc. %	Norm Conc.
1	CO	1.472	9968	4948	0.000	Linear	0.000000e+00	0.000000e+00	0.000000e+00	0.000000e+00	0	0	0.000	0.000
2	CH4	1.564	4472	2279	21.802	Linear	0.000000e+00	0.000000e+00	2.051179e+002	0.000000e+00	0	0	5.459	5.459
3	CO2	1.989	1959286	940774	377.590	Linear	0.000000e+00	0.000000e+00	5.188919e+003	0.000000e+00	0	0	94.541	94.541
4	Ethylene	0.000	0	0	0.000	Linear	0.000000e+00	0.000000e+00	0.000000e+00	0.000000e+00	0	0	0.000	0.000
5	Acetylene	0.000	0	0	0.000	Linear	0.000000e+00	0.000000e+00	0.000000e+00	0.000000e+00	0	0	0.000	0.000
6	Ethane	0.000	0	0	0.000	Linear	0.000000e+00	0.000000e+00	0.000000e+00	0.000000e+00	0	0	0.000	0.000

[Compound Results(Ch2)]
# of IDs	5
ID#	Name	R.Time	Area	Height	Conc.	Curve	3rd	2nd	1st	Constant	Area Ratio	Height Ratio	Conc. %	Norm Conc.
1	Hydrogen	0.000	0	0	0.000	Linear	0.000000e+00	0.000000e+00	0.000000e+00	0.000000e+00	0	0	0.000	0.000
2	Oxygen	0.000	0	0	0.000	Linear	0.000000e+00	0.000000e+00	0.000000e+00	0.000000e+00	0	0	0.000	0.000
3	Nitrogen	0.000	0	0	0.000	Linear	0.000000e+00	0.000000e+00	0.000000e+00	0.000000e+00	0	0	0.000	0.000
4	Methane	0.000	0	0	0.000	Linear	0.000000e+00	0.000000e+00	0.000000e+00	0.000000e+00	0	0	0.000	0.000
5	Carbon Monoxide	0.000	0	0	0.000	Linear	0.000000e+00	0.000000e+00	0.000000e+00	0.000000e+00	0	0	0.000	0.000

[Compound Results(Ch3)]
# of IDs	2
ID#	Name	R.Time	Area	Height	Conc.	Curve	3rd	2nd	1st	Constant	Area Ratio	Height Ratio	Conc. %	Norm Conc.
1	N2O	2.891	17105	3937	0.253	Linear	0.000000e+00	0.000000e+00	6.759880e+004	0.000000e+00	0	0	100.000	100.000
2	SF6	3.104	28783	1061	0.000	Linear	0.000000e+00	0.000000e+00	0.000000e+00	0.000000e+00	0	0	0.000	0.000

[Group Results(Ch1)]
# of Groups	0

[Group Results(Ch2)]
# of Groups	0

[Group Results(Ch3)]
# of Groups	0

[Chromatogram (Ch1)]
Interval(msec)	220
# of Points	1091
Start Time(min)	0.002
End Time(min)	3.998
R.Time (min)	Intensity
0.00167	-18
0.00533	-16
0.00900	-15
0.01267	-14
0.01633	-13
0.02000	-11
0.02367	-9
0.02733	-9
0.03100	-10
0.03467	-9
0.03833	-9
0.04200	-11
0.04567	-15
0.04933	-20
0.05300	-24
0.05667	-27
0.06033	-28
0.06400	-26
0.06767	-22
0.07133	-17
0.07500	-15
0.07867	-12
0.08233	-6
0.08600	-0
0.08967	1
0.09333	-2
0.09700	-8
0.10067	-13
0.10433	-14
0.10800	-12
0.11167	-11
0.11533	-11
0.11900	-11
0.12267	-5
0.12633	9
0.13000	20
0.13367	25
0.13733	29
0.14100	29
0.14467	24
0.14833	18
0.15200	14
0.15567	12
0.15933	9
0.16300	7
0.16667	7
0.17033	9
0.17400	10
0.17767	8
0.18133	3
0.18500	-2
0.18867	-4
0.19233	-1
0.19600	4
0.19967	8
0.20333	10
0.20700	12
0.21067	11
0.21433	10
0.21800	10
0.22167	8
0.22533	5
0.22900	5
0.23267	8
0.23633	9
0.24000	9
0.24367	9
0.24733	13
0.25100	20
0.25467	24
0.25833	24
0.26200	22
0.26567	20
0.26933	22
0.27300	26
0.27667	32
0.28033	38
0.28400	44
0.28767	50
0.29133	56
0.29500	63
0.29867	71
0.30233	76
0.30600	76
0.30967	73
0.31333	68
0.31700	63
0.32067	61
0.32433	63
0.32800	66
0.33167	68
0.33533	70
0.33900	70
0.34267	69
0.34633	68
0.35000	65
0.35367	61
0.35733	60
0.36100	61
0.36467	62
0.36833	60
0.37200	53
0.37567	43
0.37933	33
0.38300	26
0.38667	23
0.39033	21
0.39400	20
0.39767	22
0.40133	23
0.40500	23
0.40867	20
0.41233	17
0.41600	16
0.41967	14
0.42333	10
0.42700	7
0.43067	6
0.43433	9
0.43800	10
0.44167	6
0.44533	-0
0.44900	-5
0.45267	-6
0.45633	-4
0.46000	-0
0.46367	2
0.46733	2
0.47100	-2
0.47467	-5
0.47833	-6
0.48200	-7
0.48567	-9
0.48933	-10
0.49300	-11
0.49667	-15
0.50033	-19
0.50400	-21
0.50767	-21
0.51133	-21
0.51500	-18
0.51867	-12
0.52233	-5
0.52600	-1
0.52967	0
0.53333	-1
0.53700	-2
0.54067	-2
0.54433	-4
0.54800	-8
0.55167	-14
0.55533	-19
0.55900	-22
0.56267	-23
0.56633	-23
0.57000	-24
0.57367	-24
0.57733	-24
0.58100	-24
0.58467	-20
0.58833	-15
0.59200	-12
0.59567	-11
0.59933	-12
0.60300	-14
0.60667	-18
0.61033	-22
0.61400	-23
0.61767	-19
0.62133	-14
0.62500	-9
0.62867	-7
0.63233	-4
0.63600	-3
0.63967	-3
0.64333	-5
0.64700	-8
0.65067	-11
0.65433	-17
0.65800	-24
0.66167	-28
0.66533	-31
0.66900	-32
0.67267	-29
0.67633	-24
0.68000	-20
0.68367	-18
0.68733	-18
0.69100	-17
0.69467	-16
0.69833	-15
0.70200	-15
0.70567	-17
0.70933	-22
0.71300	-29
0.71667	-34
0.72033	-32
0.72400	-26
0.72767	-26
0.73133	-27
0.73500	-27
0.73867	-28
0.74233	-30
0.74600	-29
0.74967	-27
0.75333	-26
0.75700	-24
0.76067	-20
0.76433	-15
0.76800	-16
0.77167	-21
0.77533	-22
0.77900	-18
0.78267	-13
0.78633	-14
0.79000	-18
0.79367	-22
0.79733	-23
0.80100	-21
0.80467	-15
0.80833	-9
0.81200	-7
0.81567	-7
0.81933	-10
0.82300	-12
0.82667	-14
0.83033	-14
0.83400	-9
0.83767	-7
0.84133	-9
0.84500	-10
0.84867	-12
0.85233	-16
0.85600	-22
0.85967	-25
0.86333	-28
0.86700	-29
0.87067	-29
0.87433	-29
0.87800	-27
0.88167	-26
0.88533	-25
0.88900	-26
0.89267	-25
0.89633	-23
0.90000	-24
0.90367	-25
0.90733	-27
0.91100	-30
0.91467	-32
0.91833	-32
0.92200	-30
0.92567	-29
0.92933	-29
0.93300	-30
0.93667	-31
0.94033	-31
0.94400	-32
0.94767	-34
0.95133	-36
0.95500	-32
0.95867	-29
0.96233	-27
0.96600	-23
0.96967	-18
0.97333	-17
0.97700	-17
0.98067	-18
0.98433	-20
0.98800	-21
0.99167	-20
0.99533	-18
0.99900	-17
1.00267	-17
1.00633	-20
1.01000	-26
1.01367	-30
1.01733	-31
1.02100	-29
1.02467	-28
1.02833	-27
1.03200	-29
1.03567	-34
1.03933	-39
1.04300	-42
1.04667	-43
1.05033	-45
1.05400	-44
1.05767	-42
1.06133	-39
1.06500	-37
1.06867	-37
1.07233	-33
1.07600	-29
1.07967	-26
1.08333	-23
1.08700	-23
1.09067	-24
1.09433	-24
1.09800	-26
1.10167	-28
1.10533	-31
1.10900	-33
1.11267	-33
1.11633	-32
1.12000	-34
1.12367	-35
1.12733	-35
1.13100	-34
1.13467	-29
1.13833	-21
1.14200	-15
1.14567	-12
1.14933	-12
1.15300	-17
1.15667	-28
1.16033	-37
1.16400	-40
1.16767	-39
1.17133	-37
1.17500	-35
1.17867	-37
1.18233	-41
1.18600	-45
1.18967	-47
1.19333	-50
1.19700	-51
1.20067	-50
1.20433	-48
1.20800	-46
1.21167	-44
1.21533	-42
1.21900	-38
1.22267	-34
1.22633	-31
1.23000	-28
1.23367	-27
1.23733	-30
1.24100	-36
1.24467	-43
1.24833	-46
1.25200	-47
1.25567	-46
1.25933	-45
1.26300	-45
1.26667	-45
1.27033	-47
1.27400	-47
1.27767	-44
1.28133	-38
1.28500	-31
1.28867	-25
1.29233	-19
1.29600	-16
1.29967	-14
1.30333	-12
1.30700	-13
1.31067	-19
1.31433	-27
1.31800	-36
1.32167	-42
1.32533	-42
1.32900	-37
1.33267	-32
1.33633	-29
1.34000	-29
1.34367	-31
1.34733	-33
1.35100	-35
1.35467	-35
1.35833	-34
1.36200	-31
1.36567	-28
1.36933	-24
1.37300	-22
1.37667	-23
1.38033	-26
1.38400	-31
1.38767	-35
1.39133	-37
1.39500	-36
1.39867	-34
1.40233	-33
1.40600	-32
1.40967	-33
1.41333	-35
1.41700	-37
1.42067	-42
1.42433	-44
1.42800	-42
1.43167	-35
1.43533	-24
1.43900	-7
1.44267	29
1.44633	205
1.45000	718
1.45367	1581
1.45733	2586
1.46100	3518
1.46467	4257
1.46833	4742
1.47200	4915
1.47567	4727
1.47933	4211
1.48300	3489
1.48667	2718
1.49033	2020
1.49400	1450
1.49767	1018
1.50133	705
1.50500	488
1.50867	341
1.51233	243
1.51600	178
1.51967	132
1.52333	97
1.52700	69
1.53067	53
1.53433	69
1.53800	169
1.54167	412
1.54533	797
1.54900	1248
1.55267	1665
1.55633	1990
1.56000	2195
1.56367	2250
1.56733	2131
1.57100	1858
1.57467	1497
1.57833	1127
1.58200	803
1.58567	548
1.58933	362
1.59300	232
1.59667	143
1.60033	81
1.60400	38
1.60767	8
1.61133	-9
1.61500	-16
1.61867	-19
1.62233	-23
1.62600	-27
1.62967	-30
1.63333	-31
1.63700	-29
1.64067	-27
1.64433	-26
1.64800	-25
1.65167	-22
1.65533	-18
1.65900	-16
1.66267	-19
1.66633	-25
1.67000	-29
1.67367	-32
1.67733	-36
1.68100	-38
1.68467	-38
1.68833	-36
1.69200	-34
1.69567	-30
1.69933	-27
1.70300	-25
1.70667	-26
1.71033	-28
1.71400	-31
1.71767	-35
1.72133	-38
1.72500	-40
1.72867	-40
1.73233	-39
1.73600	-38
1.73967	-39
1.74333	-41
1.74700	-42
1.75067	-41
1.75433	-40
1.75800	-40
1.76167	-40
1.76533	-35
1.76900	-29
1.77267	-26
1.77633	-26
1.78000	-27
1.78367	-28
1.78733	-26
1.79100	-22
1.79467	-16
1.79833	-11
1.80200	-9
1.80567	-13
1.80933	-19
1.81300	-25
1.81667	-32
1.82033	-34
1.82400	-32
1.82767	-30
1.83133	-29
1.83500	-24
1.83867	-18
1.84233	-19
1.84600	-23
1.84967	-26
1.85333	-26
1.85700	-27
1.86067	-29
1.86433	-30
1.86800	-30
1.87167	-30
1.87533	-28
1.87900	-24
1.88267	-22
1.88633	-22
1.89000	-21
1.89367	-23
1.89733	-26
1.90100	-29
1.90467	-30
1.90833	-29
1.91200	-30
1.91567	-29
1.91933	-26
1.92300	-24
1.92667	-22
1.93033	-19
1.93400	-18
1.93767	-19
1.94133	-23
1.94500	-16
1.94867	76
1.95233	680
1.95600	3716
1.95967	15168
1.96333	47979
1.96700	120157
1.97067	243513
1.97433	410508
1.97800	594053
1.98167	760641
1.98533	882226
1.98900	940786
1.99267	929902
1.99633	855777
2.00000	736435
2.00367	596256
2.00733	458169
2.01100	337711
2.01467	241529
2.01833	169491
2.02200	117919
2.02567	82114
2.02933	57729
2.03300	41291
2.03667	30237
2.04033	22776
2.04400	17694
2.04767	14183
2.05133	11710
2.05500	9919
2.05867	8586
2.06233	7571
2.06600	6776
2.06967	6139
2.07333	5617
2.07700	5180
2.08067	4805
2.08433	4480
2.08800	4196
2.09167	3944
2.09533	3720
2.09900	3521
2.10267	3341
2.10633	3180
2.11000	3032
2.11367	2899
2.11733	2778
2.12100	2667
2.12467	2564
2.12833	2465
2.13200	2372
2.13567	2286
2.13933	2206
2.14300	2129
2.14667	2054
2.15033	1984
2.15400	1919
2.15767	1859
2.16133	1802
2.16500	1749
2.16867	1701
2.17233	1660
2.17600	1620
2.17967	1578
2.18333	1535
2.18700	1493
2.19067	1453
2.19433	1413
2.19800	1375
2.20167	1335
2.20533	1297
2.20900	1262
2.21267	1231
2.21633	1206
2.22000	1184
2.22367	1161
2.22733	1139
2.23100	1117
2.23467	1095
2.23833	1074
2.24200	1057
2.24567	1040
2.24933	1022
2.25300	1006
2.25667	985
2.26033	962
2.26400	938
2.26767	916
2.27133	896
2.27500	879
2.27867	862
2.28233	845
2.28600	828
2.28967	811
2.29333	795
2.29700	782
2.30067	776
2.30433	772
2.30800	763
2.31167	751
2.31533	735
2.31900	719
2.32267	703
2.32633	687
2.33000	674
2.33367	664
2.33733	658
2.34100	652
2.34467	649
2.34833	644
2.35200	637
2.35567	627
2.35933	616
2.36300	605
2.36667	594
2.37033	582
2.37400	573
2.37767	565
2.38133	557
2.38500	549
2.38867	545
2.39233	546
2.39600	549
2.39967	550
2.40333	549
2.40700	546
2.41067	538
2.41433	526
2.41800	512
2.42167	500
2.42533	493
2.42900	489
2.43267	484
2.43633	480
2.44000	477
2.44367	475
2.44733	470
2.45100	463
2.45467	458
2.45833	452
2.46200	446
2.46567	438
2.46933	432
2.47300	426
2.47667	423
2.48033	419
2.48400	413
2.48767	403
2.49133	396
2.49500	390
2.49867	386
2.50233	383
2.50600	378
2.50967	373
2.51333	371
2.51700	368
2.52067	366
2.52433	367
2.52800	370
2.53167	371
2.53533	371
2.53900	369
2.54267	366
2.54633	365
2.55000	366
2.55367	368
2.55733	367
2.56100	360
2.56467	349
2.56833	336
2.57200	326
2.57567	321
2.57933	319
2.58300	318
2.58667	316
2.59033	310
2.59400	303
2.59767	295
2.60133	288
2.60500	286
2.60867	287
2.61233	290
2.61600	292
2.61967	290
2.62333	284
2.62700	277
2.63067	271
2.63433	267
2.63800	267
2.64167	270
2.64533	273
2.64900	273
2.65267	275
2.65633	273
2.66000	270
2.66367	268
2.66733	265
2.67100	262
2.67467	261
2.67833	259
2.68200	257
2.68567	254
2.68933	250
2.69300	250
2.69667	252
2.70033	254
2.70400	258
2.70767	262
2.71133	266
2.71500	264
2.71867	259
2.72233	250
2.72600	241
2.72967	233
2.73333	226
2.73700	222
2.74067	221
2.74433	224
2.74800	228
2.75167	230
2.75533	225
2.75900	218
2.76267	210
2.76633	206
2.77000	205
2.77367	205
2.77733	207
2.78100	209
2.78467	210
2.78833	211
2.79200	211
2.79567	211
2.79933	211
2.80300	213
2.80667	217
2.81033	219
2.81400	213
2.81767	203
2.82133	194
2.82500	187
2.82867	183
2.83233	182
2.83600	181
2.83967	183
2.84333	184
2.84700	184
2.85067	180
2.85433	173
2.85800	167
2.86167	163
2.86533	160
2.86900	162
2.87267	169
2.87633	178
2.88000	187
2.88367	192
2.88733	192
2.89100	189
2.89467	184
2.89833	179
2.90200	174
2.90567	169
2.90933	164
2.91300	160
2.91667	160
2.92033	164
2.92400	167
2.92767	167
2.93133	164
2.93500	160
2.93867	150
2.94233	140
2.94600	134
2.94967	137
2.95333	146
2.95700	155
2.96067	159
2.96433	159
2.96800	157
2.97167	155
2.97533	151
2.97900	150
2.98267	152
2.98633	157
2.99000	162
2.99367	163
2.99733	164
3.00100	165
3.00467	166
3.00833	161
3.01200	154
3.01567	147
3.01933	143
3.02300	142
3.02667	140
3.03033	136
3.03400	133
3.03767	129
3.04133	125
3.04500	122
3.04867	120
3.05233	121
3.05600	124
3.05967	124
3.06333	122
3.06700	119
3.07067	112
3.07433	104
3.07800	101
3.08167	101
3.08533	100
3.08900	98
3.09267	99
3.09633	101
3.10000	105
3.10367	109
3.10733	114
3.11100	117
3.11467	119
3.11833	119
3.12200	116
3.12567	113
3.12933	110
3.13300	110
3.13667	108
3.14033	106
3.14400	105
3.14767	103
3.15133	104
3.15500	108
3.15867	110
3.16233	107
3.16600	101
3.16967	94
3.17333	89
3.17700	85
3.18067	81
3.18433	79
3.18800	79
3.19167	82
3.19533	83
3.19900	83
3.20267	82
3.20633	82
3.21000	85
3.21367	87
3.21733	87
3.22100	85
3.22467	83
3.22833	83
3.23200	83
3.23567	81
3.23933	81
3.24300	79
3.24667	76
3.25033	72
3.25400	70
3.25767	71
3.26133	72
3.26500	71
3.26867	70
3.27233	68
3.27600	66
3.27967	65
3.28333	67
3.28700	77
3.29067	86
3.29433	90
3.29800	91
3.30167	93
3.30533	93
3.30900	92
3.31267	89
3.31633	84
3.32000	79
3.32367	78
3.32733	78
3.33100	76
3.33467	74
3.33833	71
3.34200	68
3.34567	67
3.34933	68
3.35300	72
3.35667	74
3.36033	78
3.36400	81
3.36767	80
3.37133	79
3.37500	78
3.37867	74
3.38233	72
3.38600	68
3.38967	63
3.39333	60
3.39700	61
3.40067	65
3.40433	69
3.40800	72
3.41167	74
3.41533	73
3.41900	72
3.42267	70
3.42633	68
3.43000	65
3.43367	63
3.43733	63
3.44100	64
3.44467	66
3.44833	66
3.45200	66
3.45567	66
3.45933	65
3.46300	63
3.46667	60
3.47033	58
3.47400	57
3.47767	59
3.48133	63
3.48500	67
3.48867	67
3.49233	64
3.49600	58
3.49967	53
3.50333	51
3.50700	51
3.51067	54
3.51433	59
3.51800	66
3.52167	73
3.52533	76
3.52900	77
3.53267	74
3.53633	70
3.54000	66
3.54367	63
3.54733	60
3.55100	57
3.55467	55
3.55833	55
3.56200	52
3.56567	46
3.56933	39
3.57300	33
3.57667	31
3.58033	30
3.58400	30
3.58767	30
3.59133	32
3.59500	35
3.59867	38
3.60233	40
3.60600	41
3.60967	40
3.61333	39
3.61700	39
3.62067	41
3.62433	44
3.62800	48
3.63167	49
3.63533	46
3.63900	41
3.64267	42
3.64633	47
3.65000	50
3.65367	51
3.65733	49
3.66100	46
3.66467	43
3.66833	42
3.67200	44
3.67567	50
3.67933	53
3.68300	52
3.68667	51
3.69033	50
3.69400	48
3.69767	45
3.70133	38
3.70500	34
3.70867	34
3.71233	36
3.71600	38
3.71967	39
3.72333	39
3.72700	36
3.73067	31
3.73433	28
3.73800	25
3.74167	24
3.74533	24
3.74900	26
3.75267	30
3.75633	38
3.76000	43
3.76367	45
3.76733	42
3.77100	35
3.77467	26
3.77833	20
3.78200	18
3.78567	17
3.78933	19
3.79300	22
3.79667	27
3.80033	31
3.80400	32
3.80767	31
3.81133	33
3.81500	32
3.81867	30
3.82233	28
3.82600	27
3.82967	27
3.83333	26
3.83700	24
3.84067	21
3.84433	19
3.84800	17
3.85167	16
3.85533	18
3.85900	22
3.86267	27
3.86633	30
3.87000	29
3.87367	32
3.87733	36
3.88100	42
3.88467	46
3.88833	46
3.89200	41
3.89567	34
3.89933	24
3.90300	14
3.90667	7
3.91033	5
3.91400	5
3.91767	7
3.92133	8
3.92500	9
3.92867	12
3.93233	13
3.93600	9
3.93967	4
3.94333	2
3.94700	4
3.95067	5
3.95433	6
3.95800	10
3.96167	15
3.96533	19
3.96900	20
3.97267	21
3.97633	21
3.98000	18
3.98367	13
3.98733	5
3.99100	-2
3.99467	-5
3.99833	-6

[Chromatogram (Ch2)]
Interval(msec)	220
# of Points	1091
Start Time(min)	0.002
End Time(min)	3.998
R.Time (min)	Intensity
0.00167	1
0.00533	1
0.00900	1
0.01267	1
0.01633	0
0.02000	0
0.02367	0
0.02733	0
0.03100	0
0.03467	0
0.03833	0
0.04200	0
0.04567	-0
0.04933	-0
0.05300	-0
0.05667	-0
0.06033	-0
0.06400	-0
0.06767	-0
0.07133	-0
0.07500	-0
0.07867	-0
0.08233	-0
0.08600	-0
0.08967	-0
0.09333	-0
0.09700	-0
0.10067	0
0.10433	0
0.10800	1
0.11167	1
0.11533	1
0.11900	1
0.12267	0
0.12633	0
0.13000	0
0.13367	0
0.13733	0
0.14100	0
0.14467	0
0.14833	0
0.15200	0
0.15567	0
0.15933	0
0.16300	0
0.16667	0
0.17033	0
0.17400	-0
0.17767	-1
0.18133	-1
0.18500	-1
0.18867	-1
0.19233	-1
0.19600	-2
0.19967	-2
0.20333	-2
0.20700	-2
0.21067	-2
0.21433	-2
0.21800	-2
0.22167	-2
0.22533	-2
0.22900	-1
0.23267	-1
0.23633	-1
0.24000	-1
0.24367	-1
0.24733	-1
0.25100	-1
0.25467	-1
0.25833	-1
0.26200	-1
0.26567	-1
0.26933	-1
0.27300	-1
0.27667	-1
0.28033	-1
0.28400	-1
0.28767	-1
0.29133	-1
0.29500	-0
0.29867	-0
0.30233	-0
0.30600	-1
0.30967	-1
0.31333	-1
0.31700	-1
0.32067	-0
0.32433	-0
0.32800	-1
0.33167	-1
0.33533	-1
0.33900	-1
0.34267	-1
0.34633	-1
0.35000	-1
0.35367	-1
0.35733	-1
0.36100	-1
0.36467	-1
0.36833	-1
0.37200	-1
0.37567	-1
0.37933	-1
0.38300	-1
0.38667	-1
0.39033	-1
0.39400	-1
0.39767	-1
0.40133	-1
0.40500	-1
0.40867	-1
0.41233	-1
0.41600	-1
0.41967	-1
0.42333	-1
0.42700	-0
0.43067	-0
0.43433	0
0.43800	0
0.44167	0
0.44533	0
0.44900	0
0.45267	0
0.45633	0
0.46000	0
0.46367	0
0.46733	0
0.47100	0
0.47467	1
0.47833	0
0.48200	0
0.48567	0
0.48933	0
0.49300	0
0.49667	0
0.50033	0
0.50400	-0
0.50767	-0
0.51133	-0
0.51500	-0
0.51867	-0
0.52233	-0
0.52600	-1
0.52967	-1
0.53333	-1
0.53700	-1
0.54067	-1
0.54433	-1
0.54800	-2
0.55167	-2
0.55533	-2
0.55900	-2
0.56267	-2
0.56633	-2
0.57000	-2
0.57367	-2
0.57733	-2
0.58100	-2
0.58467	-2
0.58833	-2
0.59200	-2
0.59567	-2
0.59933	-2
0.60300	-2
0.60667	-2
0.61033	-2
0.61400	-2
0.61767	-2
0.62133	-2
0.62500	-2
0.62867	-1
0.63233	-1
0.63600	-1
0.63967	-1
0.64333	-1
0.64700	-0
0.65067	-0
0.65433	-1
0.65800	-1
0.66167	-1
0.66533	-2
0.66900	-2
0.67267	-1
0.67633	-1
0.68000	-1
0.68367	-1
0.68733	-1
0.69100	-1
0.69467	-1
0.69833	-1
0.70200	-1
0.70567	-1
0.70933	-1
0.71300	-1
0.71667	-1
0.72033	-1
0.72400	-1
0.72767	-1
0.73133	-1
0.73500	-1
0.73867	-1
0.74233	-1
0.74600	-1
0.74967	-2
0.75333	-2
0.75700	-2
0.76067	-2
0.76433	-2
0.76800	-2
0.77167	-2
0.77533	-1
0.77900	-1
0.78267	-1
0.78633	-1
0.79000	-1
0.79367	-1
0.79733	-1
0.80100	-1
0.80467	-1
0.80833	-1
0.81200	-1
0.81567	-1
0.81933	-1
0.82300	-1
0.82667	-1
0.83033	-1
0.83400	-1
0.83767	-1
0.84133	-1
0.84500	-1
0.84867	-1
0.85233	-1
0.85600	-1
0.85967	-1
0.86333	-1
0.86700	-1
0.87067	-2
0.87433	-2
0.87800	-2
0.88167	-2
0.88533	-2
0.88900	-2
0.89267	-2
0.89633	-2
0.90000	-1
0.90367	-1
0.90733	-1
0.91100	-1
0.91467	-1
0.91833	-1
0.92200	-1
0.92567	-1
0.92933	-1
0.93300	-1
0.93667	-1
0.94033	-1
0.94400	-1
0.94767	-1
0.95133	-1
0.95500	-1
0.95867	-1
0.96233	-2
0.96600	-2
0.96967	-2
0.97333	-2
0.97700	-2
0.98067	-2
0.98433	-2
0.98800	-2
0.99167	-2
0.99533	-2
0.99900	-2
1.00267	-2
1.00633	-2
1.01000	-2
1.01367	-2
1.01733	-3
1.02100	-3
1.02467	-3
1.02833	-3
1.03200	-2
1.03567	-2
1.03933	-2
1.04300	-2
1.04667	-2
1.05033	-2
1.05400	-2
1.05767	-2
1.06133	-2
1.06500	-2
1.06867	-2
1.07233	-2
1.07600	-2
1.07967	-2
1.08333	-2
1.08700	-2
1.09067	-2
1.09433	-2
1.09800	-2
1.10167	-2
1.10533	-2
1.10900	-2
1.11267	-2
1.11633	-3
1.12000	-3
1.12367	-3
1.12733	-2
1.13100	-2
1.13467	-2
1.13833	-2
1.14200	-2
1.14567	-2
1.14933	-2
1.15300	-2
1.15667	-2
1.16033	-2
1.16400	-2
1.16767	-2
1.17133	-2
1.17500	-2
1.17867	-2
1.18233	-3
1.18600	-3
1.18967	-3
1.19333	-3
1.19700	-3
1.20067	-3
1.20433	-3
1.20800	-3
1.21167	-3
1.21533	-3
1.21900	-3
1.22267	-3
1.22633	-3
1.23000	-3
1.23367	-3
1.23733	-3
1.24100	-3
1.24467	-3
1.24833	-3
1.25200	-3
1.25567	-3
1.25933	-3
1.26300	-3
1.26667	-3
1.27033	-3
1.27400	-3
1.27767	-3
1.28133	-3
1.28500	-3
1.28867	-3
1.29233	-3
1.29600	-3
1.29967	-3
1.30333	-3
1.30700	-3
1.31067	-3
1.31433	-3
1.31800	-3
1.32167	-3
1.32533	-3
1.32900	-3
1.33267	-3
1.33633	-3
1.34000	-3
1.34367	-3
1.34733	-3
1.35100	-3
1.35467	-3
1.35833	-3
1.36200	-3
1.36567	-3
1.36933	-3
1.37300	-3
1.37667	-3
1.38033	-3
1.38400	-3
1.38767	-3
1.39133	-3
1.39500	-3
1.39867	-3
1.40233	-3
1.40600	-3
1.40967	-3
1.41333	-3
1.41700	-3
1.42067	-3
1.42433	-3
1.42800	-3
1.43167	-3
1.43533	-3
1.43900	-3
1.44267	-3
1.44633	-3
1.45000	-3
1.45367	-3
1.45733	-3
1.46100	-3
1.46467	-3
1.46833	-3
1.47200	-3
1.47567	-3
1.47933	-3
1.48300	-3
1.48667	-3
1.49033	-3
1.49400	-3
1.49767	-3
1.50133	-3
1.50500	-3
1.50867	-3
1.51233	-3
1.51600	-3
1.51967	-3
1.52333	-3
1.52700	-3
1.53067	-3
1.53433	-3
1.53800	-3
1.54167	-4
1.54533	-4
1.54900	-3
1.55267	-3
1.55633	-3
1.56000	-3
1.56367	-3
1.56733	-3
1.57100	-3
1.57467	-3
1.57833	-3
1.58200	-3
1.58567	-3
1.58933	-3
1.59300	-3
1.59667	-3
1.60033	-4
1.60400	-5
1.60767	-7
1.61133	-8
1.61500	-10
1.61867	-12
1.62233	-15
1.62600	-18
1.62967	-21
1.63333	-24
1.63700	-27
1.64067	-30
1.64433	-34
1.64800	-37
1.65167	-40
1.65533	-44
1.65900	-47
1.66267	-51
1.66633	-55
1.67000	-59
1.67367	-64
1.67733	-68
1.68100	-72
1.68467	-76
1.68833	-80
1.69200	-83
1.69567	-85
1.69933	-88
1.70300	-90
1.70667	-91
1.71033	-92
1.71400	-92
1.71767	-93
1.72133	-94
1.72500	-94
1.72867	-95
1.73233	-96
1.73600	-97
1.73967	-98
1.74333	-99
1.74700	-100
1.75067	-100
1.75433	-100
1.75800	-100
1.76167	-100
1.76533	-100
1.76900	-99
1.77267	-99
1.77633	-100
1.78000	-100
1.78367	-100
1.78733	-100
1.79100	-101
1.79467	-101
1.79833	-101
1.80200	-101
1.80567	-101
1.80933	-101
1.81300	-101
1.81667	-101
1.82033	-102
1.82400	-102
1.82767	-102
1.83133	-102
1.83500	-102
1.83867	-102
1.84233	-103
1.84600	-103
1.84967	-102
1.85333	-102
1.85700	-102
1.86067	-101
1.86433	-101
1.86800	-101
1.87167	-101
1.87533	-100
1.87900	-100
1.88267	-100
1.88633	-100
1.89000	-100
1.89367	-100
1.89733	-100
1.90100	-100
1.90467	-100
1.90833	-100
1.91200	-100
1.91567	-99
1.91933	-98
1.92300	-98
1.92667	-97
1.93033	-96
1.93400	-96
1.93767	-95
1.94133	-95
1.94500	-95
1.94867	-95
1.95233	-95
1.95600	-95
1.95967	-95
1.96333	-95
1.96700	-95
1.97067	-95
1.97433	-95
1.97800	-95
1.98167	-95
1.98533	-94
1.98900	-94
1.99267	-94
1.99633	-94
2.00000	-93
2.00367	-93
2.00733	-93
2.01100	-93
2.01467	-93
2.01833	-92
2.02200	-91
2.02567	-91
2.02933	-90
2.03300	-89
2.03667	-89
2.04033	-89
2.04400	-89
2.04767	-89
2.05133	-89
2.05500	-90
2.05867	-90
2.06233	-91
2.06600	-91
2.06967	-90
2.07333	-90
2.07700	-89
2.08067	-88
2.08433	-88
2.08800	-87
2.09167	-87
2.09533	-87
2.09900	-87
2.10267	-87
2.10633	-87
2.11000	-87
2.11367	-86
2.11733	-86
2.12100	-86
2.12467	-85
2.12833	-85
2.13200	-85
2.13567	-84
2.13933	-84
2.14300	-83
2.14667	-83
2.15033	-83
2.15400	-83
2.15767	-83
2.16133	-83
2.16500	-82
2.16867	-82
2.17233	-81
2.17600	-80
2.17967	-80
2.18333	-80
2.18700	-80
2.19067	-80
2.19433	-80
2.19800	-80
2.20167	-80
2.20533	-80
2.20900	-80
2.21267	-79
2.21633	-79
2.22000	-78
2.22367	-77
2.22733	-77
2.23100	-76
2.23467	-75
2.23833	-75
2.24200	-75
2.24567	-75
2.24933	-75
2.25300	-74
2.25667	-74
2.26033	-73
2.26400	-73
2.26767	-73
2.27133	-72
2.27500	-72
2.27867	-72
2.28233	-72
2.28600	-72
2.28967	-72
2.29333	-72
2.29700	-71
2.30067	-71
2.30433	-71
2.30800	-71
2.31167	-71
2.31533	-70
2.31900	-70
2.32267	-69
2.32633	-69
2.33000	-69
2.33367	-68
2.33733	-68
2.34100	-68
2.34467	-68
2.34833	-67
2.35200	-66
2.35567	-65
2.35933	-64
2.36300	-62
2.36667	-60
2.37033	-58
2.37400	-55
2.37767	-51
2.38133	-47
2.38500	-43
2.38867	-39
2.39233	-35
2.39600	-31
2.39967	-26
2.40333	-22
2.40700	-19
2.41067	-16
2.41433	-13
2.41800	-11
2.42167	-9
2.42533	-7
2.42900	-5
2.43267	-2
2.43633	-1
2.44000	1
2.44367	3
2.44733	4
2.45100	5
2.45467	6
2.45833	7
2.46200	8
2.46567	9
2.46933	10
2.47300	11
2.47667	12
2.48033	13
2.48400	13
2.48767	13
2.49133	13
2.49500	13
2.49867	13
2.50233	13
2.50600	14
2.50967	14
2.51333	15
2.51700	15
2.52067	15
2.52433	15
2.52800	15
2.53167	15
2.53533	15
2.53900	15
2.54267	15
2.54633	14
2.55000	14
2.55367	13
2.55733	13
2.56100	12
2.56467	12
2.56833	11
2.57200	11
2.57567	12
2.57933	12
2.58300	12
2.58667	12
2.59033	12
2.59400	12
2.59767	12
2.60133	13
2.60500	13
2.60867	13
2.61233	14
2.61600	14
2.61967	15
2.62333	15
2.62700	15
2.63067	15
2.63433	15
2.63800	15
2.64167	15
2.64533	16
2.64900	16
2.65267	17
2.65633	17
2.66000	18
2.66367	19
2.66733	19
2.67100	20
2.67467	20
2.67833	20
2.68200	21
2.68567	21
2.68933	21
2.69300	21
2.69667	22
2.70033	22
2.70400	22
2.70767	23
2.71133	23
2.71500	24
2.71867	24
2.72233	25
2.72600	26
2.72967	27
2.73333	27
2.73700	27
2.74067	28
2.74433	28
2.74800	28
2.75167	27
2.75533	27
2.75900	27
2.76267	27
2.76633	27
2.77000	26
2.77367	26
2.77733	27
2.78100	26
2.78467	26
2.78833	26
2.79200	26
2.79567	26
2.79933	26
2.80300	26
2.80667	26
2.81033	26
2.81400	27
2.81767	27
2.82133	27
2.82500	27
2.82867	27
2.83233	27
2.83600	27
2.83967	27
2.84333	27
2.84700	28
2.85067	28
2.85433	27
2.85800	26
2.86167	23
2.86533	19
2.86900	12
2.87267	2
2.87633	-13
2.88000	-31
2.88367	-56
2.88733	-85
2.89100	-120
2.89467	-161
2.89833	-206
2.90200	-257
2.90567	-312
2.90933	-370
2.91300	-431
2.91667	-494
2.92033	-559
2.92400	-624
2.92767	-689
2.93133	-753
2.93500	-814
2.93867	-872
2.94233	-927
2.94600	-982
2.94967	-1037
2.95333	-1086
2.95700	-1118
2.96067	-1127
2.96433	-1110
2.96800	-1071
2.97167	-1012
2.97533	-941
2.97900	-862
2.98267	-780
2.98633	-698
2.99000	-620
2.99367	-546
2.99733	-477
3.00100	-415
3.00467	-359
3.00833	-309
3.01200	-265
3.01567	-226
3.01933	-193
3.02300	-163
3.02667	-138
3.03033	-116
3.03400	-97
3.03767	-81
3.04133	-67
3.04500	-55
3.04867	-45
3.05233	-36
3.05600	-29
3.05967	-22
3.06333	-17
3.06700	-12
3.07067	-8
3.07433	-5
3.07800	-2
3.08167	1
3.08533	3
3.08900	5
3.09267	7
3.09633	8
3.10000	9
3.10367	10
3.10733	11
3.11100	12
3.11467	13
3.11833	14
3.12200	15
3.12567	15
3.12933	15
3.13300	16
3.13667	17
3.14033	17
3.14400	18
3.14767	18
3.15133	18
3.15500	19
3.15867	19
3.16233	19
3.16600	19
3.16967	20
3.17333	20
3.17700	20
3.18067	21
3.18433	21
3.18800	21
3.19167	21
3.19533	22
3.19900	22
3.20267	22
3.20633	22
3.21000	22
3.21367	22
3.21733	22
3.22100	22
3.22467	23
3.22833	23
3.23200	23
3.23567	23
3.23933	24
3.24300	24
3.24667	24
3.25033	24
3.25400	24
3.25767	24
3.26133	24
3.26500	24
3.26867	24
3.27233	24
3.27600	24
3.27967	24
3.28333	25
3.28700	25
3.29067	25
3.29433	25
3.29800	25
3.30167	25
3.30533	26
3.30900	26
3.31267	26
3.31633	27
3.32000	27
3.32367	27
3.32733	28
3.33100	28
3.33467	28
3.33833	28
3.34200	28
3.34567	28
3.34933	28
3.35300	28
3.35667	28
3.36033	28
3.36400	28
3.36767	28
3.37133	29
3.37500	29
3.37867	29
3.38233	29
3.38600	28
3.38967	28
3.39333	28
3.39700	28
3.40067	28
3.40433	28
3.40800	28
3.41167	28
3.41533	28
3.41900	28
3.42267	28
3.42633	28
3.43000	28
3.43367	28
3.43733	29
3.44100	29
3.44467	28
3.44833	28
3.45200	28
3.45567	28
3.45933	28
3.46300	28
3.46667	28
3.47033	28
3.47400	28
3.47767	28
3.48133	27
3.48500	27
3.48867	27
3.49233	27
3.49600	27
3.49967	28
3.50333	28
3.50700	28
3.51067	28
3.51433	28
3.51800	28
3.52167	28
3.52533	28
3.52900	28
3.53267	29
3.53633	29
3.54000	29
3.54367	29
3.54733	29
3.55100	29
3.55467	29
3.55833	29
3.56200	28
3.56567	28
3.56933	28
3.57300	28
3.57667	28
3.58033	28
3.58400	28
3.58767	28
3.59133	28
3.59500	28
3.59867	28
3.60233	28
3.60600	28
3.60967	28
3.61333	28
3.61700	28
3.62067	27
3.62433	27
3.62800	27
3.63167	27
3.63533	27
3.63900	27
3.64267	27
3.64633	27
3.65000	27
3.65367	27
3.65733	27
3.66100	27
3.66467	27
3.66833	27
3.67200	27
3.67567	27
3.67933	27
3.68300	28
3.68667	28
3.69033	28
3.69400	28
3.69767	28
3.70133	28
3.70500	28
3.70867	28
3.71233	28
3.71600	27
3.71967	27
3.72333	27
3.72700	27
3.73067	28
3.73433	28
3.73800	28
3.74167	28
3.74533	28
3.74900	28
3.75267	28
3.75633	28
3.76000	29
3.76367	29
3.76733	29
3.77100	29
3.77467	29
3.77833	28
3.78200	28
3.78567	28
3.78933	28
3.79300	29
3.79667	28
3.80033	28
3.80400	28
3.80767	28
3.81133	28
3.81500	28
3.81867	28
3.82233	28
3.82600	29
3.82967	28
3.83333	28
3.83700	28
3.84067	28
3.84433	28
3.84800	28
3.85167	28
3.85533	28
3.85900	28
3.86267	28
3.86633	27
3.87000	27
3.87367	27
3.87733	27
3.88100	27
3.88467	27
3.88833	27
3.89200	27
3.89567	27
3.89933	27
3.90300	27
3.90667	27
3.91033	27
3.91400	27
3.91767	27
3.92133	27
3.92500	27
3.92867	27
3.93233	27
3.93600	27
3.93967	27
3.94333	27
3.94700	27
3.95067	27
3.95433	27
3.95800	27
3.96167	27
3.96533	27
3.96900	27
3.97267	27
3.97633	27
3.98000	28
3.98367	28
3.98733	28
3.99100	28
3.99467	28
3.99833	28

[Chromatogram (Ch3)]
Interval(msec)	220
# of Points	1091
Start Time(min)	0.002
End Time(min)	3.998
R.Time (min)	Intensity
0.00167	0
0.00533	1
0.00900	1
0.01267	2
0.01633	5
0.02000	6
0.02367	7
0.02733	8
0.03100	9
0.03467	10
0.03833	12
0.04200	11
0.04567	13
0.04933	13
0.05300	12
0.05667	13
0.06033	14
0.06400	13
0.06767	10
0.07133	9
0.07500	12
0.07867	14
0.08233	15
0.08600	12
0.08967	11
0.09333	11
0.09700	10
0.10067	10
0.10433	10
0.10800	12
0.11167	13
0.11533	14
0.11900	14
0.12267	14
0.12633	13
0.13000	14
0.13367	15
0.13733	15
0.14100	14
0.14467	15
0.14833	13
0.15200	12
0.15567	11
0.15933	11
0.16300	9
0.16667	9
0.17033	9
0.17400	9
0.17767	6
0.18133	6
0.18500	6
0.18867	7
0.19233	11
0.19600	12
0.19967	13
0.20333	13
0.20700	13
0.21067	8
0.21433	6
0.21800	8
0.22167	10
0.22533	10
0.22900	8
0.23267	7
0.23633	6
0.24000	8
0.24367	11
0.24733	12
0.25100	12
0.25467	12
0.25833	10
0.26200	9
0.26567	11
0.26933	11
0.27300	12
0.27667	9
0.28033	8
0.28400	6
0.28767	8
0.29133	9
0.29500	8
0.29867	7
0.30233	5
0.30600	1
0.30967	-0
0.31333	-0
0.31700	-2
0.32067	1
0.32433	3
0.32800	5
0.33167	7
0.33533	9
0.33900	11
0.34267	11
0.34633	10
0.35000	8
0.35367	9
0.35733	9
0.36100	11
0.36467	12
0.36833	14
0.37200	16
0.37567	15
0.37933	11
0.38300	9
0.38667	10
0.39033	8
0.39400	7
0.39767	6
0.40133	7
0.40500	9
0.40867	10
0.41233	11
0.41600	13
0.41967	13
0.42333	11
0.42700	10
0.43067	10
0.43433	12
0.43800	16
0.44167	18
0.44533	16
0.44900	15
0.45267	13
0.45633	12
0.46000	11
0.46367	11
0.46733	9
0.47100	5
0.47467	5
0.47833	8
0.48200	11
0.48567	13
0.48933	16
0.49300	17
0.49667	16
0.50033	16
0.50400	14
0.50767	12
0.51133	9
0.51500	9
0.51867	9
0.52233	9
0.52600	9
0.52967	8
0.53333	8
0.53700	7
0.54067	6
0.54433	8
0.54800	9
0.55167	9
0.55533	7
0.55900	7
0.56267	9
0.56633	10
0.57000	10
0.57367	12
0.57733	13
0.58100	11
0.58467	11
0.58833	12
0.59200	12
0.59567	13
0.59933	14
0.60300	14
0.60667	13
0.61033	12
0.61400	12
0.61767	12
0.62133	12
0.62500	11
0.62867	13
0.63233	15
0.63600	15
0.63967	14
0.64333	16
0.64700	18
0.65067	19
0.65433	18
0.65800	19
0.66167	17
0.66533	14
0.66900	11
0.67267	9
0.67633	8
0.68000	7
0.68367	6
0.68733	6
0.69100	6
0.69467	7
0.69833	8
0.70200	10
0.70567	11
0.70933	10
0.71300	10
0.71667	11
0.72033	12
0.72400	10
0.72767	9
0.73133	9
0.73500	12
0.73867	13
0.74233	13
0.74600	11
0.74967	12
0.75333	13
0.75700	13
0.76067	12
0.76433	11
0.76800	11
0.77167	10
0.77533	8
0.77900	8
0.78267	11
0.78633	14
0.79000	15
0.79367	14
0.79733	10
0.80100	9
0.80467	13
0.80833	19
0.81200	23
0.81567	20
0.81933	17
0.82300	19
0.82667	22
0.83033	23
0.83400	22
0.83767	22
0.84133	21
0.84500	17
0.84867	15
0.85233	13
0.85600	13
0.85967	15
0.86333	19
0.86700	19
0.87067	19
0.87433	18
0.87800	17
0.88167	15
0.88533	16
0.88900	16
0.89267	15
0.89633	16
0.90000	16
0.90367	17
0.90733	20
0.91100	22
0.91467	20
0.91833	19
0.92200	16
0.92567	14
0.92933	14
0.93300	14
0.93667	13
0.94033	15
0.94400	18
0.94767	20
0.95133	19
0.95500	19
0.95867	17
0.96233	18
0.96600	19
0.96967	17
0.97333	14
0.97700	11
0.98067	13
0.98433	15
0.98800	16
0.99167	16
0.99533	15
0.99900	15
1.00267	15
1.00633	15
1.01000	14
1.01367	13
1.01733	12
1.02100	12
1.02467	13
1.02833	14
1.03200	15
1.03567	16
1.03933	17
1.04300	17
1.04667	14
1.05033	14
1.05400	14
1.05767	14
1.06133	14
1.06500	13
1.06867	12
1.07233	10
1.07600	11
1.07967	14
1.08333	15
1.08700	16
1.09067	16
1.09433	15
1.09800	16
1.10167	17
1.10533	15
1.10900	12
1.11267	9
1.11633	10
1.12000	10
1.12367	10
1.12733	9
1.13100	6
1.13467	6
1.13833	7
1.14200	7
1.14567	9
1.14933	11
1.15300	12
1.15667	12
1.16033	13
1.16400	17
1.16767	16
1.17133	13
1.17500	12
1.17867	13
1.18233	15
1.18600	18
1.18967	19
1.19333	20
1.19700	22
1.20067	21
1.20433	18
1.20800	17
1.21167	13
1.21533	12
1.21900	11
1.22267	11
1.22633	13
1.23000	15
1.23367	15
1.23733	13
1.24100	11
1.24467	12
1.24833	13
1.25200	14
1.25567	13
1.25933	14
1.26300	16
1.26667	18
1.27033	18
1.27400	20
1.27767	20
1.28133	18
1.28500	18
1.28867	16
1.29233	15
1.29600	15
1.29967	15
1.30333	17
1.30700	18
1.31067	18
1.31433	17
1.31800	16
1.32167	16
1.32533	17
1.32900	18
1.33267	18
1.33633	17
1.34000	15
1.34367	14
1.34733	15
1.35100	15
1.35467	15
1.35833	15
1.36200	13
1.36567	13
1.36933	13
1.37300	17
1.37667	18
1.38033	19
1.38400	19
1.38767	18
1.39133	20
1.39500	22
1.39867	23
1.40233	23
1.40600	20
1.40967	18
1.41333	16
1.41700	15
1.42067	14
1.42433	15
1.42800	14
1.43167	14
1.43533	16
1.43900	17
1.44267	18
1.44633	19
1.45000	19
1.45367	19
1.45733	20
1.46100	21
1.46467	22
1.46833	22
1.47200	23
1.47567	22
1.47933	20
1.48300	19
1.48667	18
1.49033	20
1.49400	19
1.49767	17
1.50133	18
1.50500	19
1.50867	19
1.51233	18
1.51600	18
1.51967	20
1.52333	20
1.52700	21
1.53067	22
1.53433	19
1.53800	16
1.54167	15
1.54533	16
1.54900	17
1.55267	18
1.55633	17
1.56000	14
1.56367	11
1.56733	13
1.57100	14
1.57467	15
1.57833	19
1.58200	22
1.58567	22
1.58933	22
1.59300	21
1.59667	20
1.60033	22
1.60400	21
1.60767	20
1.61133	20
1.61500	21
1.61867	22
1.62233	21
1.62600	18
1.62967	16
1.63333	15
1.63700	15
1.64067	16
1.64433	15
1.64800	15
1.65167	17
1.65533	20
1.65900	22
1.66267	24
1.66633	21
1.67000	20
1.67367	22
1.67733	24
1.68100	25
1.68467	25
1.68833	24
1.69200	23
1.69567	21
1.69933	19
1.70300	19
1.70667	22
1.71033	23
1.71400	22
1.71767	23
1.72133	26
1.72500	29
1.72867	32
1.73233	34
1.73600	35
1.73967	38
1.74333	38
1.74700	36
1.75067	35
1.75433	33
1.75800	31
1.76167	27
1.76533	23
1.76900	23
1.77267	24
1.77633	25
1.78000	27
1.78367	30
1.78733	32
1.79100	32
1.79467	33
1.79833	32
1.80200	33
1.80567	33
1.80933	31
1.81300	30
1.81667	31
1.82033	35
1.82400	37
1.82767	38
1.83133	36
1.83500	37
1.83867	41
1.84233	47
1.84600	48
1.84967	47
1.85333	45
1.85700	41
1.86067	39
1.86433	40
1.86800	44
1.87167	46
1.87533	45
1.87900	43
1.88267	42
1.88633	41
1.89000	41
1.89367	42
1.89733	40
1.90100	41
1.90467	42
1.90833	42
1.91200	44
1.91567	46
1.91933	48
1.92300	50
1.92667	53
1.93033	51
1.93400	49
1.93767	50
1.94133	47
1.94500	47
1.94867	46
1.95233	47
1.95600	48
1.95967	50
1.96333	51
1.96700	49
1.97067	49
1.97433	48
1.97800	45
1.98167	46
1.98533	45
1.98900	47
1.99267	49
1.99633	52
2.00000	54
2.00367	54
2.00733	54
2.01100	56
2.01467	56
2.01833	55
2.02200	52
2.02567	52
2.02933	52
2.03300	50
2.03667	49
2.04033	50
2.04400	51
2.04767	54
2.05133	56
2.05500	57
2.05867	57
2.06233	57
2.06600	58
2.06967	56
2.07333	56
2.07700	59
2.08067	62
2.08433	63
2.08800	63
2.09167	63
2.09533	64
2.09900	64
2.10267	61
2.10633	60
2.11000	62
2.11367	63
2.11733	63
2.12100	65
2.12467	67
2.12833	70
2.13200	71
2.13567	70
2.13933	69
2.14300	71
2.14667	74
2.15033	78
2.15400	80
2.15767	82
2.16133	79
2.16500	75
2.16867	73
2.17233	76
2.17600	77
2.17967	79
2.18333	78
2.18700	78
2.19067	79
2.19433	81
2.19800	84
2.20167	85
2.20533	83
2.20900	82
2.21267	84
2.21633	86
2.22000	87
2.22367	86
2.22733	85
2.23100	85
2.23467	86
2.23833	88
2.24200	90
2.24567	90
2.24933	88
2.25300	88
2.25667	88
2.26033	91
2.26400	96
2.26767	96
2.27133	96
2.27500	99
2.27867	100
2.28233	100
2.28600	100
2.28967	100
2.29333	100
2.29700	97
2.30067	96
2.30433	97
2.30800	96
2.31167	98
2.31533	99
2.31900	101
2.32267	104
2.32633	105
2.33000	104
2.33367	102
2.33733	101
2.34100	106
2.34467	107
2.34833	106
2.35200	108
2.35567	110
2.35933	111
2.36300	110
2.36667	108
2.37033	109
2.37400	110
2.37767	109
2.38133	105
2.38500	100
2.38867	94
2.39233	95
2.39600	100
2.39967	105
2.40333	111
2.40700	117
2.41067	122
2.41433	127
2.41800	129
2.42167	129
2.42533	128
2.42900	130
2.43267	131
2.43633	132
2.44000	137
2.44367	177
2.44733	241
2.45100	293
2.45467	324
2.45833	327
2.46200	311
2.46567	292
2.46933	279
2.47300	268
2.47667	252
2.48033	228
2.48400	203
2.48767	182
2.49133	165
2.49500	152
2.49867	145
2.50233	147
2.50600	152
2.50967	159
2.51333	165
2.51700	168
2.52067	165
2.52433	161
2.52800	155
2.53167	145
2.53533	136
2.53900	130
2.54267	123
2.54633	113
2.55000	104
2.55367	97
2.55733	94
2.56100	94
2.56467	95
2.56833	97
2.57200	99
2.57567	104
2.57933	107
2.58300	112
2.58667	121
2.59033	129
2.59400	137
2.59767	146
2.60133	156
2.60500	164
2.60867	166
2.61233	167
2.61600	167
2.61967	162
2.62333	152
2.62700	142
2.63067	133
2.63433	124
2.63800	117
2.64167	110
2.64533	105
2.64900	100
2.65267	95
2.65633	89
2.66000	84
2.66367	80
2.66733	76
2.67100	75
2.67467	76
2.67833	76
2.68200	74
2.68567	72
2.68933	74
2.69300	72
2.69667	69
2.70033	68
2.70400	69
2.70767	70
2.71133	70
2.71500	72
2.71867	75
2.72233	77
2.72600	79
2.72967	80
2.73333	79
2.73700	79
2.74067	80
2.74433	82
2.74800	87
2.75167	93
2.75533	100
2.75900	104
2.76267	107
2.76633	108
2.77000	109
2.77367	111
2.77733	112
2.78100	117
2.78467	122
2.78833	124
2.79200	126
2.79567	130
2.79933	134
2.80300	136
2.80667	137
2.81033	138
2.81400	140
2.81767	143
2.82133	146
2.82500	148
2.82867	148
2.83233	148
2.83600	155
2.83967	171
2.84333	205
2.84700	269
2.85067	380
2.85433	554
2.85800	811
2.86167	1151
2.86533	1564
2.86900	2026
2.87267	2503
2.87633	2953
2.88000	3337
2.88367	3626
2.88733	3805
2.89100	3868
2.89467	3828
2.89833	3697
2.90200	3495
2.90567	3252
2.90933	2985
2.91300	2707
2.91667	2433
2.92033	2173
2.92400	1930
2.92767	1709
2.93133	1510
2.93500	1333
2.93867	1175
2.94233	1032
2.94600	909
2.94967	804
2.95333	710
2.95700	626
2.96067	556
2.96433	498
2.96800	449
2.97167	405
2.97533	364
2.97900	328
2.98267	299
2.98633	274
2.99000	252
2.99367	233
2.99733	217
3.00100	207
3.00467	197
3.00833	186
3.01200	147
3.01567	39
3.01933	-65
3.02300	-105
3.02667	-74
3.03033	9
3.03400	121
3.03767	246
3.04133	372
3.04500	489
3.04867	593
3.05233	681
3.05600	756
3.05967	815
3.06333	860
3.06700	895
3.07067	920
3.07433	941
3.07800	961
3.08167	977
3.08533	988
3.08900	994
3.09267	997
3.09633	1000
3.10000	1002
3.10367	1004
3.10733	1006
3.11100	1003
3.11467	999
3.11833	995
3.12200	993
3.12567	990
3.12933	990
3.13300	988
3.13667	984
3.14033	981
3.14400	978
3.14767	975
3.15133	971
3.15500	966
3.15867	960
3.16233	955
3.16600	949
3.16967	943
3.17333	941
3.17700	940
3.18067	937
3.18433	933
3.18800	929
3.19167	925
3.19533	922
3.19900	918
3.20267	916
3.20633	913
3.21000	910
3.21367	905
3.21733	900
3.22100	894
3.22467	889
3.22833	883
3.23200	878
3.23567	875
3.23933	873
3.24300	871
3.24667	865
3.25033	858
3.25400	852
3.25767	844
3.26133	837
3.26500	834
3.26867	831
3.27233	828
3.27600	824
3.27967	820
3.28333	820
3.28700	819
3.29067	819
3.29433	815
3.29800	809
3.30167	802
3.30533	796
3.30900	792
3.31267	788
3.31633	784
3.32000	780
3.32367	778
3.32733	776
3.33100	774
3.33467	772
3.33833	771
3.34200	770
3.34567	767
3.34933	762
3.35300	761
3.35667	764
3.36033	767
3.36400	769
3.36767	767
3.37133	764
3.37500	761
3.37867	761
3.38233	764
3.38600	766
3.38967	766
3.39333	765
3.39700	763
3.40067	765
3.40433	768
3.40800	770
3.41167	769
3.41533	768
3.41900	764
3.42267	762
3.42633	760
3.43000	760
3.43367	757
3.43733	754
3.44100	753
3.44467	750
3.44833	748
3.45200	744
3.45567	739
3.45933	734
3.46300	730
3.46667	726
3.47033	721
3.47400	714
3.47767	709
3.48133	704
3.48500	699
3.48867	696
3.49233	691
3.49600	686
3.49967	681
3.50333	674
3.50700	667
3.51067	662
3.51433	659
3.51800	657
3.52167	653
3.52533	650
3.52900	646
3.53267	643
3.53633	642
3.54000	640
3.54367	637
3.54733	632
3.55100	631
3.55467	630
3.55833	627
3.56200	624
3.56567	623
3.56933	621
3.57300	619
3.57667	617
3.58033	617
3.58400	617
3.58767	617
3.59133	614
3.59500	611
3.59867	607
3.60233	601
3.60600	595
3.60967	591
3.61333	588
3.61700	586
3.62067	587
3.62433	587
3.62800	584
3.63167	584
3.63533	584
3.63900	585
3.64267	585
3.64633	581
3.65000	576
3.65367	573
3.65733	573
3.66100	574
3.66467	573
3.66833	573
3.67200	571
3.67567	567
3.67933	561
3.68300	558
3.68667	556
3.69033	557
3.69400	556
3.69767	554
3.70133	554
3.70500	554
3.70867	551
3.71233	550
3.71600	551
3.71967	554
3.72333	554
3.72700	551
3.73067	549
3.73433	550
3.73800	549
3.74167	548
3.74533	548
3.74900	548
3.75267	546
3.75633	543
3.76000	539
3.76367	539
3.76733	539
3.77100	539
3.77467	538
3.77833	534
3.78200	532
3.78567	532
3.78933	531
3.79300	527
3.79667	523
3.80033	522
3.80400	521
3.80767	521
3.81133	519
3.81500	518
3.81867	520
3.82233	523
3.82600	524
3.82967	523
3.83333	521
3.83700	519
3.84067	518
3.84433	517
3.84800	516
3.85167	514
3.85533	511
3.85900	509
3.86267	509
3.86633	508
3.87000	506
3.87367	505
3.87733	507
3.88100	511
3.88467	515
3.88833	518
3.89200	518
3.89567	518
3.89933	520
3.90300	517
3.90667	512
3.91033	508
3.91400	504
3.91767	498
3.92133	493
3.92500	492
3.92867	492
3.93233	493
3.93600	495
3.93967	496
3.94333	495
3.94700	490
3.95067	488
3.95433	488
3.95800	488
3.96167	486
3.96533	485
3.96900	484
3.97267	483
3.97633	481
3.98000	478
3.98367	477
3.98733	476
3.99100	475
3.99467	473
3.99833	468

[Status Trace (Column Oven Temperature)]
Interval(msec)	1000
# of Points	240
Start Time(min)	0.016
End Time(min)	3.999
Intensity Units	
Intensity Multiplier	1
R.Time (min)	Intensity
0.01613	35.04
0.03280	35.04
0.04947	35.04
0.06613	35.04
0.08280	35.03
0.09947	35.04
0.11613	35.03
0.13280	35.03
0.14947	35.03
0.16613	35.02
0.18280	35.02
0.19947	35.02
0.21613	35.02
0.23280	35.03
0.24947	35.03
0.26613	35.03
0.28280	35.03
0.29947	35.02
0.31613	35.01
0.33280	35.01
0.34947	35.02
0.36613	35.02
0.38280	35.02
0.39947	35.02
0.41613	35.02
0.43280	35.02
0.44947	35.02
0.46613	35.01
0.48280	35.01
0.49947	35.01
0.51613	35.00
0.53280	35.00
0.54947	35.00
0.56613	35.00
0.58280	35.01
0.59947	35.01
0.61613	35.00
0.63280	35.00
0.64947	35.00
0.66613	35.00
0.68280	35.00
0.69947	35.00
0.71613	35.00
0.73280	34.99
0.74947	34.99
0.76613	34.98
0.78280	34.99
0.79947	34.99
0.81613	34.99
0.83280	34.99
0.84947	34.99
0.86613	34.99
0.88280	35.00
0.89947	35.00
0.91613	35.00
0.93280	35.00
0.94947	34.99
0.96613	34.99
0.98280	34.98
0.99947	34.98
1.01613	34.98
1.03280	34.98
1.04947	34.99
1.06613	34.99
1.08280	34.99
1.09947	34.99
1.11613	35.00
1.13280	34.99
1.14947	34.99
1.16613	34.99
1.18280	34.99
1.19947	34.99
1.21613	34.99
1.23280	35.00
1.24947	35.01
1.26613	35.00
1.28280	35.00
1.29947	34.99
1.31613	34.99
1.33280	34.99
1.34947	34.99
1.36613	35.00
1.38280	34.99
1.39947	34.99
1.41613	35.00
1.43280	34.99
1.44947	34.99
1.46613	34.99
1.48280	34.99
1.49947	34.99
1.51613	34.99
1.53280	34.99
1.54947	35.00
1.56613	35.00
1.58280	35.00
1.59947	35.02
1.61613	35.11
1.63280	35.26
1.64947	35.46
1.66613	35.75
1.68280	36.11
1.69947	36.47
1.71613	36.80
1.73280	37.16
1.74947	37.50
1.76613	37.80
1.78280	38.14
1.79947	38.47
1.81613	38.81
1.83280	39.15
1.84947	39.48
1.86613	39.81
1.88280	40.13
1.89947	40.48
1.91613	40.80
1.93280	41.12
1.94947	41.46
1.96613	41.79
1.98280	42.13
1.99947	42.45
2.01613	42.77
2.03280	43.07
2.04947	43.40
2.06613	43.73
2.08280	44.05
2.09947	44.39
2.11613	44.72
2.13280	45.05
2.14947	45.37
2.16613	45.70
2.18280	46.02
2.19947	46.35
2.21613	46.68
2.23280	47.00
2.24947	47.32
2.26613	47.63
2.28280	47.98
2.29947	48.32
2.31613	48.64
2.33280	48.97
2.34947	49.29
2.36613	49.50
2.38280	49.62
2.39947	49.62
2.41613	49.64
2.43280	49.64
2.44947	49.65
2.46613	49.66
2.48280	49.67
2.49947	49.69
2.51613	49.71
2.53280	49.72
2.54947	49.74
2.56613	49.74
2.58280	49.75
2.59947	49.79
2.61613	49.79
2.63280	49.82
2.64947	49.84
2.66613	49.84
2.68280	49.86
2.69947	49.87
2.71613	49.86
2.73280	49.85
2.74947	49.86
2.76613	49.86
2.78280	49.87
2.79947	49.87
2.81613	49.87
2.83280	49.87
2.84947	49.87
2.86613	49.88
2.88280	49.88
2.89947	49.90
2.91613	49.91
2.93280	49.93
2.94947	49.95
2.96613	49.96
2.98280	49.97
2.99947	49.99
3.01613	50.00
3.03280	50.01
3.04947	50.01
3.06613	50.02
3.08280	50.03
3.09947	50.03
3.11613	50.04
3.13280	50.06
3.14947	50.06
3.16613	50.07
3.18280	50.07
3.19947	50.07
3.21613	50.08
3.23280	50.09
3.24947	50.09
3.26613	50.10
3.28280	50.11
3.29947	50.11
3.31613	50.10
3.33280	50.08
3.34947	50.07
3.36613	50.06
3.38280	50.06
3.39947	50.06
3.41613	50.06
3.43280	50.05
3.44947	50.06
3.46613	50.06
3.48280	50.05
3.49947	50.05
3.51613	50.05
3.53280	50.04
3.54947	50.04
3.56613	50.04
3.58280	50.04
3.59947	50.04
3.61613	50.04
3.63280	50.05
3.64947	50.05
3.66613	50.05
3.68280	50.05
3.69947	50.05
3.71613	50.06
3.73280	50.05
3.74947	50.05
3.76613	50.05
3.78280	50.05
3.79947	50.05
3.81613	50.05
3.83280	50.06
3.84947	50.06
3.86613	50.06
3.88280	50.07
3.89947	50.07
3.91613	50.08
3.93280	50.08
3.94947	50.08
3.96613	50.08
3.98280	50.08
3.99947	50.08

[Status Trace (Injection Unit Temperature)]
Interval(msec)	1000
# of Points	240
Start Time(min)	0.016
End Time(min)	3.999
Intensity Units	
Intensity Multiplier	1
R.Time (min)	Intensity
0.01613	99.98
0.03280	99.98
0.04947	99.98
0.06613	99.98
0.08280	99.98
0.09947	99.98
0.11613	99.98
0.13280	99.98
0.14947	99.98
0.16613	99.98
0.18280	99.98
0.19947	99.98
0.21613	99.98
0.23280	99.98
0.24947	99.98
0.26613	99.98
0.28280	99.98
0.29947	99.98
0.31613	99.98
0.33280	99.99
0.34947	99.98
0.36613	99.98
0.38280	99.98
0.39947	99.98
0.41613	99.98
0.43280	99.98
0.44947	99.98
0.46613	99.98
0.48280	99.98
0.49947	99.98
0.51613	99.98
0.53280	99.98
0.54947	99.98
0.56613	99.98
0.58280	99.98
0.59947	99.98
0.61613	99.98
0.63280	99.98
0.64947	99.98
0.66613	99.98
0.68280	99.98
0.69947	99.98
0.71613	99.98
0.73280	99.98
0.74947	99.98
0.76613	99.98
0.78280	99.98
0.79947	99.98
0.81613	99.98
0.83280	99.98
0.84947	99.98
0.86613	99.98
0.88280	99.98
0.89947	99.98
0.91613	99.98
0.93280	99.98
0.94947	99.98
0.96613	99.98
0.98280	99.98
0.99947	99.98
1.01613	99.98
1.03280	99.98
1.04947	99.98
1.06613	99.98
1.08280	99.98
1.09947	99.98
1.11613	99.98
1.13280	99.98
1.14947	99.98
1.16613	99.98
1.18280	99.98
1.19947	99.98
1.21613	99.98
1.23280	99.98
1.24947	99.98
1.26613	99.98
1.28280	99.98
1.29947	99.98
1.31613	99.98
1.33280	99.98
1.34947	99.98
1.36613	99.98
1.38280	99.98
1.39947	99.98
1.41613	99.98
1.43280	99.98
1.44947	99.98
1.46613	99.98
1.48280	99.98
1.49947	99.98
1.51613	99.98
1.53280	99.98
1.54947	99.98
1.56613	99.98
1.58280	99.98
1.59947	99.98
1.61613	99.98
1.63280	99.98
1.64947	99.98
1.66613	99.98
1.68280	99.98
1.69947	99.98
1.71613	99.98
1.73280	99.98
1.74947	99.98
1.76613	99.98
1.78280	99.98
1.79947	99.98
1.81613	99.98
1.83280	99.98
1.84947	99.98
1.86613	99.98
1.88280	99.97
1.89947	99.98
1.91613	99.98
1.93280	99.97
1.94947	99.98
1.96613	99.98
1.98280	99.98
1.99947	99.97
2.01613	99.97
2.03280	99.97
2.04947	99.97
2.06613	99.97
2.08280	99.97
2.09947	99.97
2.11613	99.97
2.13280	99.97
2.14947	99.97
2.16613	99.97
2.18280	99.97
2.19947	99.96
2.21613	99.96
2.23280	99.96
2.24947	99.96
2.26613	99.96
2.28280	99.96
2.29947	99.96
2.31613	99.96
2.33280	99.96
2.34947	99.96
2.36613	99.96
2.38280	99.96
2.39947	99.96
2.41613	99.97
2.43280	99.96
2.44947	99.96
2.46613	99.96
2.48280	99.96
2.49947	99.96
2.51613	99.97
2.53280	99.96
2.54947	99.97
2.56613	99.96
2.58280	99.97
2.59947	99.97
2.61613	99.97
2.63280	99.97
2.64947	99.97
2.66613	99.97
2.68280	99.97
2.69947	99.98
2.71613	99.98
2.73280	99.98
2.74947	99.98
2.76613	99.98
2.78280	99.99
2.79947	99.99
2.81613	99.98
2.83280	99.99
2.84947	99.99
2.86613	100.00
2.88280	99.99
2.89947	100.00
2.91613	99.99
2.93280	100.00
2.94947	100.00
2.96613	100.01
2.98280	100.00
2.99947	100.01
3.01613	100.00
3.03280	100.01
3.04947	100.01
3.06613	100.02
3.08280	100.02
3.09947	100.02
3.11613	100.02
3.13280	100.02
3.14947	100.02
3.16613	100.02
3.18280	100.02
3.19947	100.02
3.21613	100.02
3.23280	100.03
3.24947	100.03
3.26613	100.03
3.28280	100.02
3.29947	100.03
3.31613	100.03
3.33280	100.03
3.34947	100.03
3.36613	100.03
3.38280	100.03
3.39947	100.03
3.41613	100.03
3.43280	100.03
3.44947	100.03
3.46613	100.03
3.48280	100.03
3.49947	100.03
3.51613	100.03
3.53280	100.04
3.54947	100.04
3.56613	100.04
3.58280	100.04
3.59947	100.04
3.61613	100.04
3.63280	100.04
3.64947	100.04
3.66613	100.04
3.68280	100.04
3.69947	100.05
3.71613	100.04
3.73280	100.04
3.74947	100.04
3.76613	100.04
3.78280	100.04
3.79947	100.04
3.81613	100.05
3.83280	100.05
3.84947	100.05
3.86613	100.05
3.88280	100.04
3.89947	100.04
3.91613	100.04
3.93280	100.05
3.94947	100.04
3.96613	100.04
3.98280	100.04
3.99947	100.04

[Status Trace (Carrier Gas Pressure)]
Interval(msec)	1000
# of Points	240
Start Time(min)	0.016
End Time(min)	3.999
Intensity Units	
Intensity Multiplier	1
R.Time (min)	Intensity
0.01613	57.01
0.03280	55.79
0.04947	58.18
0.06613	59.89
0.08280	58.58
0.09947	57.97
0.11613	58.00
0.13280	58.01
0.14947	58.01
0.16613	58.00
0.18280	58.00
0.19947	58.00
0.21613	58.00
0.23280	58.00
0.24947	58.00
0.26613	58.00
0.28280	58.00
0.29947	58.00
0.31613	58.00
0.33280	58.00
0.34947	58.00
0.36613	58.00
0.38280	58.00
0.39947	58.00
0.41613	58.00
0.43280	58.00
0.44947	58.00
0.46613	58.00
0.48280	58.00
0.49947	58.00
0.51613	58.00
0.53280	58.00
0.54947	58.00
0.56613	58.00
0.58280	58.00
0.59947	58.00
0.61613	58.00
0.63280	58.00
0.64947	58.00
0.66613	58.00
0.68280	58.00
0.69947	58.00
0.71613	58.00
0.73280	58.00
0.74947	58.00
0.76613	58.00
0.78280	58.00
0.79947	58.00
0.81613	58.00
0.83280	58.00
0.84947	58.00
0.86613	58.00
0.88280	58.00
0.89947	58.00
0.91613	58.00
0.93280	58.00
0.94947	58.00
0.96613	58.00
0.98280	58.00
0.99947	58.00
1.01613	58.00
1.03280	58.00
1.04947	58.00
1.06613	58.00
1.08280	58.00
1.09947	58.00
1.11613	58.00
1.13280	58.00
1.14947	58.00
1.16613	58.00
1.18280	58.00
1.19947	58.00
1.21613	58.00
1.23280	58.00
1.24947	58.00
1.26613	58.00
1.28280	58.00
1.29947	58.00
1.31613	58.00
1.33280	58.00
1.34947	58.00
1.36613	58.00
1.38280	58.00
1.39947	58.00
1.41613	58.00
1.43280	58.00
1.44947	58.00
1.46613	58.00
1.48280	58.00
1.49947	58.00
1.51613	58.00
1.53280	58.00
1.54947	58.00
1.56613	58.00
1.58280	58.00
1.59947	58.00
1.61613	58.00
1.63280	58.00
1.64947	58.00
1.66613	58.01
1.68280	58.01
1.69947	58.00
1.71613	58.00
1.73280	58.00
1.74947	58.00
1.76613	58.00
1.78280	58.00
1.79947	58.00
1.81613	58.00
1.83280	58.00
1.84947	58.00
1.86613	58.00
1.88280	58.00
1.89947	58.00
1.91613	58.00
1.93280	58.00
1.94947	58.00
1.96613	58.00
1.98280	58.00
1.99947	58.00
2.01613	58.00
2.03280	58.00
2.04947	58.00
2.06613	58.00
2.08280	58.00
2.09947	58.00
2.11613	58.00
2.13280	58.00
2.14947	58.00
2.16613	58.00
2.18280	58.00
2.19947	58.00
2.21613	58.00
2.23280	58.00
2.24947	58.00
2.26613	58.00
2.28280	58.00
2.29947	58.00
2.31613	58.00
2.33280	58.00
2.34947	58.00
2.36613	58.00
2.38280	57.99
2.39947	57.99
2.41613	58.00
2.43280	58.00
2.44947	58.00
2.46613	58.00
2.48280	58.00
2.49947	58.00
2.51613	57.99
2.53280	57.99
2.54947	58.00
2.56613	58.00
2.58280	58.00
2.59947	58.00
2.61613	58.00
2.63280	58.00
2.64947	58.00
2.66613	58.00
2.68280	58.00
2.69947	58.00
2.71613	58.00
2.73280	58.00
2.74947	58.00
2.76613	58.00
2.78280	58.00
2.79947	58.00
2.81613	58.00
2.83280	58.00
2.84947	58.00
2.86613	58.00
2.88280	58.00
2.89947	58.00
2.91613	58.00
2.93280	58.00
2.94947	58.00
2.96613	58.00
2.98280	58.00
2.99947	58.00
3.01613	58.00
3.03280	58.00
3.04947	58.00
3.06613	58.00
3.08280	58.00
3.09947	58.00
3.11613	58.00
3.13280	58.00
3.14947	58.00
3.16613	58.00
3.18280	58.00
3.19947	58.00
3.21613	58.00
3.23280	58.00
3.24947	58.00
3.26613	58.00
3.28280	58.00
3.29947	58.00
3.31613	58.00
3.33280	58.00
3.34947	58.00
3.36613	58.00
3.38280	58.00
3.39947	58.00
3.41613	58.00
3.43280	58.00
3.44947	58.00
3.46613	58.00
3.48280	58.00
3.49947	58.00
3.51613	58.00
3.53280	58.00
3.54947	58.00
3.56613	58.00
3.58280	58.00
3.59947	58.00
3.61613	58.00
3.63280	58.00
3.64947	58.00
3.66613	58.00
3.68280	58.00
3.69947	58.00
3.71613	58.00
3.73280	58.00
3.74947	58.00
3.76613	58.00
3.78280	58.00
3.79947	58.00
3.81613	58.00
3.83280	58.00
3.84947	58.00
3.86613	58.00
3.88280	58.00
3.89947	58.00
3.91613	58.00
3.93280	58.00
3.94947	58.00
3.96613	58.00
3.98280	58.00
3.99947	58.00

[Status Trace (Carrier Gas Flow)]
Interval(msec)	1000
# of Points	240
Start Time(min)	0.016
End Time(min)	3.999
Intensity Units	
Intensity Multiplier	1
R.Time (min)	Intensity
0.01613	33.90
0.03280	34.54
0.04947	34.54
0.06613	34.51
0.08280	34.51
0.09947	34.52
0.11613	34.52
0.13280	34.52
0.14947	34.52
0.16613	34.52
0.18280	34.52
0.19947	34.52
0.21613	34.52
0.23280	34.52
0.24947	34.52
0.26613	34.52
0.28280	34.52
0.29947	34.52
0.31613	34.51
0.33280	34.52
0.34947	34.52
0.36613	34.52
0.38280	34.52
0.39947	34.52
0.41613	34.52
0.43280	34.51
0.44947	34.52
0.46613	34.52
0.48280	34.52
0.49947	34.51
0.51613	34.52
0.53280	34.52
0.54947	34.52
0.56613	34.52
0.58280	34.52
0.59947	34.52
0.61613	34.52
0.63280	34.52
0.64947	34.52
0.66613	34.52
0.68280	34.52
0.69947	34.52
0.71613	34.52
0.73280	34.53
0.74947	34.52
0.76613	34.52
0.78280	34.52
0.79947	34.52
0.81613	34.51
0.83280	34.52
0.84947	34.52
0.86613	34.52
0.88280	34.51
0.89947	34.52
0.91613	34.52
0.93280	34.51
0.94947	34.52
0.96613	34.51
0.98280	34.52
0.99947	34.52
1.01613	34.52
1.03280	34.51
1.04947	34.51
1.06613	34.52
1.08280	34.51
1.09947	34.52
1.11613	34.52
1.13280	34.51
1.14947	34.51
1.16613	34.52
1.18280	34.52
1.19947	34.52
1.21613	34.52
1.23280	34.52
1.24947	34.52
1.26613	34.52
1.28280	34.52
1.29947	34.52
1.31613	34.52
1.33280	34.52
1.34947	34.52
1.36613	34.51
1.38280	34.52
1.39947	34.52
1.41613	34.51
1.43280	34.51
1.44947	34.52
1.46613	34.52
1.48280	34.52
1.49947	34.52
1.51613	34.52
1.53280	34.52
1.54947	34.52
1.56613	34.52
1.58280	34.52
1.59947	34.52
1.61613	34.52
1.63280	34.52
1.64947	34.52
1.66613	34.51
1.68280	34.52
1.69947	34.52
1.71613	34.52
1.73280	34.52
1.74947	34.51
1.76613	34.52
1.78280	34.52
1.79947	34.52
1.81613	34.52
1.83280	34.52
1.84947	34.52
1.86613	34.52
1.88280	34.52
1.89947	34.52
1.91613	34.52
1.93280	34.52
1.94947	34.52
1.96613	34.52
1.98280	34.52
1.99947	34.52
2.01613	34.52
2.03280	34.52
2.04947	34.52
2.06613	34.51
2.08280	34.51
2.09947	34.52
2.11613	34.53
2.13280	34.52
2.14947	34.51
2.16613	34.52
2.18280	34.52
2.19947	34.51
2.21613	34.52
2.23280	34.52
2.24947	34.52
2.26613	34.52
2.28280	34.52
2.29947	34.51
2.31613	34.52
2.33280	34.52
2.34947	34.51
2.36613	34.52
2.38280	34.51
2.39947	34.52
2.41613	34.52
2.43280	34.51
2.44947	34.52
2.46613	34.52
2.48280	34.52
2.49947	34.52
2.51613	34.52
2.53280	34.52
2.54947	34.52
2.56613	34.52
2.58280	34.52
2.59947	34.51
2.61613	34.52
2.63280	34.52
2.64947	34.52
2.66613	34.52
2.68280	34.52
2.69947	34.51
2.71613	34.52
2.73280	34.52
2.74947	34.51
2.76613	34.52
2.78280	34.52
2.79947	34.52
2.81613	34.51
2.83280	34.52
2.84947	34.52
2.86613	34.52
2.88280	34.52
2.89947	34.51
2.91613	34.52
2.93280	34.52
2.94947	34.53
2.96613	34.51
2.98280	34.52
2.99947	34.52
3.01613	34.52
3.03280	34.51
3.04947	34.52
3.06613	34.52
3.08280	34.51
3.09947	34.52
3.11613	34.51
3.13280	34.52
3.14947	34.52
3.16613	34.52
3.18280	34.52
3.19947	34.52
3.21613	34.52
3.23280	34.52
3.24947	34.52
3.26613	34.52
3.28280	34.53
3.29947	34.52
3.31613	34.51
3.33280	34.52
3.34947	34.52
3.36613	34.51
3.38280	34.52
3.39947	34.52
3.41613	34.52
3.43280	34.52
3.44947	34.52
3.46613	34.51
3.48280	34.52
3.49947	34.52
3.51613	34.52
3.53280	34.52
3.54947	34.52
3.56613	34.52
3.58280	34.52
3.59947	34.52
3.61613	34.52
3.63280	34.51
3.64947	34.52
3.66613	34.52
3.68280	34.52
3.69947	34.52
3.71613	34.52
3.73280	34.52
3.74947	34.52
3.76613	34.52
3.78280	34.51
3.79947	34.52
3.81613	34.52
3.83280	34.52
3.84947	34.52
3.86613	34.52
3.88280	34.52
3.89947	34.51
3.91613	34.52
3.93280	34.52
3.94947	34.52
3.96613	34.52
3.98280	34.53
3.99947	34.52

[Status Trace (Column Flow)]
Interval(msec)	1000
# of Points	240
Start Time(min)	0.016
End Time(min)	3.999
Intensity Units	
Intensity Multiplier	1
R.Time (min)	Intensity
0.01613	5.39
0.03280	5.25
0.04947	5.53
0.06613	5.73
0.08280	5.57
0.09947	5.50
0.11613	5.50
0.13280	5.51
0.14947	5.51
0.16613	5.51
0.18280	5.51
0.19947	5.51
0.21613	5.51
0.23280	5.51
0.24947	5.51
0.26613	5.51
0.28280	5.51
0.29947	5.51
0.31613	5.51
0.33280	5.51
0.34947	5.51
0.36613	5.51
0.38280	5.51
0.39947	5.51
0.41613	5.51
0.43280	5.51
0.44947	5.51
0.46613	5.51
0.48280	5.51
0.49947	5.51
0.51613	5.51
0.53280	5.51
0.54947	5.51
0.56613	5.51
0.58280	5.51
0.59947	5.51
0.61613	5.51
0.63280	5.51
0.64947	5.51
0.66613	5.51
0.68280	5.51
0.69947	5.51
0.71613	5.51
0.73280	5.51
0.74947	5.51
0.76613	5.51
0.78280	5.51
0.79947	5.51
0.81613	5.51
0.83280	5.51
0.84947	5.51
0.86613	5.51
0.88280	5.51
0.89947	5.51
0.91613	5.51
0.93280	5.51
0.94947	5.51
0.96613	5.51
0.98280	5.51
0.99947	5.51
1.01613	5.51
1.03280	5.51
1.04947	5.51
1.06613	5.51
1.08280	5.51
1.09947	5.51
1.11613	5.51
1.13280	5.51
1.14947	5.51
1.16613	5.51
1.18280	5.51
1.19947	5.51
1.21613	5.51
1.23280	5.51
1.24947	5.51
1.26613	5.51
1.28280	5.51
1.29947	5.51
1.31613	5.51
1.33280	5.51
1.34947	5.51
1.36613	5.51
1.38280	5.51
1.39947	5.51
1.41613	5.51
1.43280	5.51
1.44947	5.51
1.46613	5.51
1.48280	5.51
1.49947	5.51
1.51613	5.51
1.53280	5.51
1.54947	5.51
1.56613	5.51
1.58280	5.51
1.59947	5.51
1.61613	5.50
1.63280	5.50
1.64947	5.49
1.66613	5.48
1.68280	5.47
1.69947	5.46
1.71613	5.45
1.73280	5.44
1.74947	5.43
1.76613	5.42
1.78280	5.41
1.79947	5.40
1.81613	5.39
1.83280	5.38
1.84947	5.37
1.86613	5.36
1.88280	5.35
1.89947	5.34
1.91613	5.33
1.93280	5.32
1.94947	5.31
1.96613	5.30
1.98280	5.29
1.99947	5.28
2.01613	5.27
2.03280	5.26
2.04947	5.25
2.06613	5.24
2.08280	5.23
2.09947	5.22
2.11613	5.21
2.13280	5.20
2.14947	5.19
2.16613	5.19
2.18280	5.18
2.19947	5.17
2.21613	5.16
2.23280	5.15
2.24947	5.14
2.26613	5.13
2.28280	5.12
2.29947	5.11
2.31613	5.10
2.33280	5.09
2.34947	5.08
2.36613	5.08
2.38280	5.07
2.39947	5.07
2.41613	5.07
2.43280	5.07
2.44947	5.07
2.46613	5.07
2.48280	5.07
2.49947	5.07
2.51613	5.07
2.53280	5.07
2.54947	5.07
2.56613	5.07
2.58280	5.07
2.59947	5.07
2.61613	5.07
2.63280	5.07
2.64947	5.07
2.66613	5.07
2.68280	5.07
2.69947	5.07
2.71613	5.07
2.73280	5.07
2.74947	5.07
2.76613	5.07
2.78280	5.07
2.79947	5.07
2.81613	5.07
2.83280	5.07
2.84947	5.07
2.86613	5.07
2.88280	5.07
2.89947	5.07
2.91613	5.07
2.93280	5.07
2.94947	5.07
2.96613	5.07
2.98280	5.07
2.99947	5.06
3.01613	5.06
3.03280	5.06
3.04947	5.06
3.06613	5.06
3.08280	5.06
3.09947	5.06
3.11613	5.06
3.13280	5.06
3.14947	5.06
3.16613	5.06
3.18280	5.06
3.19947	5.06
3.21613	5.06
3.23280	5.06
3.24947	5.06
3.26613	5.06
3.28280	5.06
3.29947	5.06
3.31613	5.06
3.33280	5.06
3.34947	5.06
3.36613	5.06
3.38280	5.06
3.39947	5.06
3.41613	5.06
3.43280	5.06
3.44947	5.06
3.46613	5.06
3.48280	5.06
3.49947	5.06
3.51613	5.06
3.53280	5.06
3.54947	5.06
3.56613	5.06
3.58280	5.06
3.59947	5.06
3.61613	5.06
3.63280	5.06
3.64947	5.06
3.66613	5.06
3.68280	5.06
3.69947	5.06
3.71613	5.06
3.73280	5.06
3.74947	5.06
3.76613	5.06
3.78280	5.06
3.79947	5.06
3.81613	5.06
3.83280	5.06
3.84947	5.06
3.86613	5.06
3.88280	5.06
3.89947	5.06
3.91613	5.06
3.93280	5.06
3.94947	5.06
3.96613	5.06
3.98280	5.06
3.99947	5.06

[Status Trace (Linear Velocity)]
Interval(msec)	1000
# of Points	240
Start Time(min)	0.016
End Time(min)	3.999
Intensity Units	
Intensity Multiplier	1
R.Time (min)	Intensity
0.01613	38.36
0.03280	37.56
0.04947	39.13
0.06613	40.25
0.08280	39.39
0.09947	38.99
0.11613	39.01
0.13280	39.02
0.14947	39.02
0.16613	39.01
0.18280	39.01
0.19947	39.01
0.21613	39.01
0.23280	39.01
0.24947	39.01
0.26613	39.01
0.28280	39.01
0.29947	39.01
0.31613	39.01
0.33280	39.01
0.34947	39.01
0.36613	39.01
0.38280	39.01
0.39947	39.01
0.41613	39.01
0.43280	39.01
0.44947	39.01
0.46613	39.01
0.48280	39.01
0.49947	39.01
0.51613	39.01
0.53280	39.01
0.54947	39.01
0.56613	39.01
0.58280	39.01
0.59947	39.01
0.61613	39.01
0.63280	39.01
0.64947	39.01
0.66613	39.01
0.68280	39.01
0.69947	39.01
0.71613	39.01
0.73280	39.01
0.74947	39.01
0.76613	39.01
0.78280	39.01
0.79947	39.01
0.81613	39.01
0.83280	39.01
0.84947	39.01
0.86613	39.01
0.88280	39.01
0.89947	39.01
0.91613	39.01
0.93280	39.01
0.94947	39.01
0.96613	39.01
0.98280	39.01
0.99947	39.01
1.01613	39.01
1.03280	39.01
1.04947	39.01
1.06613	39.01
1.08280	39.01
1.09947	39.01
1.11613	39.01
1.13280	39.01
1.14947	39.01
1.16613	39.01
1.18280	39.01
1.19947	39.01
1.21613	39.01
1.23280	39.01
1.24947	39.01
1.26613	39.01
1.28280	39.01
1.29947	39.01
1.31613	39.01
1.33280	39.01
1.34947	39.01
1.36613	39.01
1.38280	39.01
1.39947	39.01
1.41613	39.01
1.43280	39.01
1.44947	39.01
1.46613	39.01
1.48280	39.01
1.49947	39.01
1.51613	39.01
1.53280	39.01
1.54947	39.01
1.56613	39.01
1.58280	39.01
1.59947	39.01
1.61613	39.00
1.63280	38.99
1.64947	38.97
1.66613	38.94
1.68280	38.91
1.69947	38.87
1.71613	38.84
1.73280	38.81
1.74947	38.77
1.76613	38.75
1.78280	38.71
1.79947	38.68
1.81613	38.65
1.83280	38.62
1.84947	38.59
1.86613	38.56
1.88280	38.53
1.89947	38.49
1.91613	38.46
1.93280	38.43
1.94947	38.40
1.96613	38.37
1.98280	38.34
1.99947	38.31
2.01613	38.28
2.03280	38.25
2.04947	38.22
2.06613	38.19
2.08280	38.16
2.09947	38.13
2.11613	38.10
2.13280	38.07
2.14947	38.04
2.16613	38.01
2.18280	37.98
2.19947	37.95
2.21613	37.93
2.23280	37.90
2.24947	37.87
2.26613	37.84
2.28280	37.81
2.29947	37.78
2.31613	37.75
2.33280	37.72
2.34947	37.69
2.36613	37.67
2.38280	37.66
2.39947	37.66
2.41613	37.66
2.43280	37.66
2.44947	37.66
2.46613	37.66
2.48280	37.66
2.49947	37.66
2.51613	37.65
2.53280	37.65
2.54947	37.65
2.56613	37.65
2.58280	37.65
2.59947	37.65
2.61613	37.65
2.63280	37.65
2.64947	37.64
2.66613	37.64
2.68280	37.64
2.69947	37.64
2.71613	37.64
2.73280	37.64
2.74947	37.64
2.76613	37.64
2.78280	37.64
2.79947	37.64
2.81613	37.64
2.83280	37.64
2.84947	37.64
2.86613	37.64
2.88280	37.64
2.89947	37.64
2.91613	37.64
2.93280	37.64
2.94947	37.63
2.96613	37.63
2.98280	37.63
2.99947	37.63
3.01613	37.63
3.03280	37.63
3.04947	37.63
3.06613	37.63
3.08280	37.63
3.09947	37.63
3.11613	37.63
3.13280	37.62
3.14947	37.62
3.16613	37.62
3.18280	37.62
3.19947	37.62
3.21613	37.62
3.23280	37.62
3.24947	37.62
3.26613	37.62
3.28280	37.62
3.29947	37.62
3.31613	37.62
3.33280	37.62
3.34947	37.62
3.36613	37.62
3.38280	37.62
3.39947	37.62
3.41613	37.62
3.43280	37.62
3.44947	37.62
3.46613	37.62
3.48280	37.62
3.49947	37.63
3.51613	37.62
3.53280	37.63
3.54947	37.63
3.56613	37.63
3.58280	37.63
3.59947	37.63
3.61613	37.63
3.63280	37.62
3.64947	37.62
3.66613	37.62
3.68280	37.62
3.69947	37.62
3.71613	37.62
3.73280	37.62
3.74947	37.62
3.76613	37.62
3.78280	37.62
3.79947	37.62
3.81613	37.62
3.83280	37.62
3.84947	37.62
3.86613	37.62
3.88280	37.62
3.89947	37.62
3.91613	37.62
3.93280	37.62
3.94947	37.62
3.96613	37.62
3.98280	37.62
3.99947	37.62

