[Header]
Application Name	LabSolutions
Version	5.110
Data File Name	C:\Users\User\Desktop\Junior\UIC Prairie Sampling\7.18.23\071823_055.gcd
Output Date	8/29/2023
Output Time	10:40:23 AM

[File Information]
Type	Data File
Generated	8/28/2023 8:20:00 PM
Generated by	System Administrator
Modified	8/28/2023 8:26:37 PM
Modified by	System Administrator

[Sample Information]
Operator Name	System Administrator
Acquired	8/28/2023 8:22:36 PM
Sample Type	0:Unknown
Level	0
Sample Name	055
Sample ID	055
ISTD Amount1	1
ISTD Amount2	1
ISTD Amount3	1
ISTD Amount4	1
ISTD Amount5	1
ISTD Amount6	1
ISTD Amount7	1
ISTD Amount8	1
ISTD Amount9	1
ISTD Amount10	1
ISTD Amount11	1
ISTD Amount12	1
ISTD Amount13	1
ISTD Amount14	1
ISTD Amount15	1
ISTD Amount16	1
ISTD Amount17	1
ISTD Amount18	1
ISTD Amount19	1
ISTD Amount20	1
ISTD Amount21	1
ISTD Amount22	1
ISTD Amount23	1
ISTD Amount24	1
ISTD Amount25	1
ISTD Amount26	1
ISTD Amount27	1
ISTD Amount28	1
ISTD Amount29	1
ISTD Amount30	1
ISTD Amount31	1
ISTD Amount32	1
Sample Amount	1
Dilution Factor	1
Vial#	54
Injection Volume	1
Injection Count	1
Bar Code	

[Original Files]
Data File	C:\Users\User\Desktop\Junior\UIC Prairie Sampling\7.18.23\071823_055.gcd
Method File	C:\LabSolutions\Data\GHG_4min_2022\ghg3_togas_w_acet_4 min_new_int.gcm
Batch File	C:\LabSolutions\Data\BATCH FILES\071823.gcb
Report Format File	c:\LabSolutions\System\DEFAULT.lsr

[File Description]


[Configuration]
Instrument Name	C0B7VH3-Instrument1
Instrument #	1
Line #	1
# of Detectors	3
Detector ID	DET#1	DET#2	DET#3
Detector Name	FID	PTCD	ECD
# of Channels	1	1	1

[Peak Table(Ch1)]
# of Peaks	3
Peak#	R.Time	I.Time	F.Time	Area	Height	A/H	Conc.	Mark	ID#	Name	k'	Plate #	Plate Ht.	Tailing	Resolution	Sep.Factor	Area Ratio	Height Ratio	Conc. %	Norm Conc.
1	1.472	1.428	1.531	11333	5646	2.007	0.000	   	1	CO	0.000	9948	15.078	1.296	0.000	0.000	0	0	0.000	0.000
2	1.564	1.531	1.626	4404	2232	1.973	21.471	 V 	2	CH4	0.062	11431	13.122	1.132	1.560	0.000	0	0	5.270	5.270
3	1.989	1.934	2.495	2002504	962662	2.080	385.919	   	3	CO2	0.351	17622	8.512	1.322	7.183	5.640	0	0	94.730	94.730

[Peak Table(Ch2)]
# of Peaks	0

[Peak Table(Ch3)]
# of Peaks	5
Peak#	R.Time	I.Time	F.Time	Area	Height	A/H	Conc.	Mark	ID#	Name	k'	Plate #	Plate Ht.	Tailing	Resolution	Sep.Factor	Area Ratio	Height Ratio	Conc. %	Norm Conc.
1	2.455	2.389	2.502	608	234	2.600	0.000	   			0.000	18779	7.988	0.000	0.000	0.000	0	0	0.000	0.000
2	2.521	2.502	2.557	131	68	1.941	0.000	 V 			0.027	16065	9.337	0.000	0.873	0.000	0	0	0.000	0.000
3	2.616	2.557	2.667	264	84	3.148	0.000	 V 			0.066	12913	11.616	0.000	1.111	2.444	0	0	0.000	0.000
4	2.891	2.836	2.961	12072	3628	3.328	0.179	   	1	N2O	0.178	14817	10.123	1.277	2.940	2.705	0	0	100.000	100.000
5	3.415	3.291	3.492	155	25	6.302	0.000	   			0.391	9506	15.779	0.807	4.460	2.202	0	0	0.000	0.000

[Compound Results(Ch1)]
# of IDs	6
ID#	Name	R.Time	Area	Height	Conc.	Curve	3rd	2nd	1st	Constant	Area Ratio	Height Ratio	Conc. %	Norm Conc.
1	CO	1.472	11333	5646	0.000	Linear	0.000000e+00	0.000000e+00	0.000000e+00	0.000000e+00	0	0	0.000	0.000
2	CH4	1.564	4404	2232	21.471	Linear	0.000000e+00	0.000000e+00	2.051179e+002	0.000000e+00	0	0	5.270	5.270
3	CO2	1.989	2002504	962662	385.919	Linear	0.000000e+00	0.000000e+00	5.188919e+003	0.000000e+00	0	0	94.730	94.730
4	Ethylene	0.000	0	0	0.000	Linear	0.000000e+00	0.000000e+00	0.000000e+00	0.000000e+00	0	0	0.000	0.000
5	Acetylene	0.000	0	0	0.000	Linear	0.000000e+00	0.000000e+00	0.000000e+00	0.000000e+00	0	0	0.000	0.000
6	Ethane	0.000	0	0	0.000	Linear	0.000000e+00	0.000000e+00	0.000000e+00	0.000000e+00	0	0	0.000	0.000

[Compound Results(Ch2)]
# of IDs	5
ID#	Name	R.Time	Area	Height	Conc.	Curve	3rd	2nd	1st	Constant	Area Ratio	Height Ratio	Conc. %	Norm Conc.
1	Hydrogen	0.000	0	0	0.000	Linear	0.000000e+00	0.000000e+00	0.000000e+00	0.000000e+00	0	0	0.000	0.000
2	Oxygen	0.000	0	0	0.000	Linear	0.000000e+00	0.000000e+00	0.000000e+00	0.000000e+00	0	0	0.000	0.000
3	Nitrogen	0.000	0	0	0.000	Linear	0.000000e+00	0.000000e+00	0.000000e+00	0.000000e+00	0	0	0.000	0.000
4	Methane	0.000	0	0	0.000	Linear	0.000000e+00	0.000000e+00	0.000000e+00	0.000000e+00	0	0	0.000	0.000
5	Carbon Monoxide	0.000	0	0	0.000	Linear	0.000000e+00	0.000000e+00	0.000000e+00	0.000000e+00	0	0	0.000	0.000

[Compound Results(Ch3)]
# of IDs	2
ID#	Name	R.Time	Area	Height	Conc.	Curve	3rd	2nd	1st	Constant	Area Ratio	Height Ratio	Conc. %	Norm Conc.
1	N2O	2.891	12072	3628	0.179	Linear	0.000000e+00	0.000000e+00	6.759880e+004	0.000000e+00	0	0	100.000	100.000
2	SF6	0.000	0	0	0.000	Linear	0.000000e+00	0.000000e+00	0.000000e+00	0.000000e+00	0	0	0.000	0.000

[Group Results(Ch1)]
# of Groups	0

[Group Results(Ch2)]
# of Groups	0

[Group Results(Ch3)]
# of Groups	0

[Chromatogram (Ch1)]
Interval(msec)	220
# of Points	1091
Start Time(min)	0.002
End Time(min)	3.998
R.Time (min)	Intensity
0.00167	1
0.00533	1
0.00900	2
0.01267	4
0.01633	8
0.02000	11
0.02367	12
0.02733	11
0.03100	8
0.03467	5
0.03833	0
0.04200	-7
0.04567	-14
0.04933	-16
0.05300	-14
0.05667	-10
0.06033	-4
0.06400	3
0.06767	10
0.07133	15
0.07500	18
0.07867	23
0.08233	27
0.08600	28
0.08967	23
0.09333	15
0.09700	9
0.10067	4
0.10433	3
0.10800	15
0.11167	30
0.11533	44
0.11900	55
0.12267	58
0.12633	54
0.13000	47
0.13367	40
0.13733	35
0.14100	28
0.14467	20
0.14833	14
0.15200	9
0.15567	6
0.15933	7
0.16300	10
0.16667	10
0.17033	9
0.17400	8
0.17767	7
0.18133	7
0.18500	7
0.18867	3
0.19233	2
0.19600	2
0.19967	6
0.20333	10
0.20700	14
0.21067	18
0.21433	21
0.21800	23
0.22167	24
0.22533	24
0.22900	27
0.23267	29
0.23633	28
0.24000	28
0.24367	33
0.24733	41
0.25100	47
0.25467	52
0.25833	55
0.26200	55
0.26567	56
0.26933	56
0.27300	54
0.27667	52
0.28033	50
0.28400	49
0.28767	46
0.29133	44
0.29500	43
0.29867	41
0.30233	41
0.30600	40
0.30967	39
0.31333	39
0.31700	40
0.32067	41
0.32433	44
0.32800	46
0.33167	48
0.33533	48
0.33900	49
0.34267	50
0.34633	49
0.35000	45
0.35367	43
0.35733	41
0.36100	39
0.36467	35
0.36833	29
0.37200	26
0.37567	27
0.37933	30
0.38300	32
0.38667	31
0.39033	29
0.39400	28
0.39767	25
0.40133	21
0.40500	20
0.40867	20
0.41233	23
0.41600	26
0.41967	30
0.42333	32
0.42700	34
0.43067	35
0.43433	39
0.43800	42
0.44167	38
0.44533	29
0.44900	20
0.45267	17
0.45633	16
0.46000	18
0.46367	20
0.46733	21
0.47100	24
0.47467	29
0.47833	31
0.48200	27
0.48567	18
0.48933	11
0.49300	6
0.49667	3
0.50033	1
0.50400	-2
0.50767	-2
0.51133	-0
0.51500	2
0.51867	4
0.52233	5
0.52600	6
0.52967	10
0.53333	14
0.53700	15
0.54067	16
0.54433	17
0.54800	17
0.55167	18
0.55533	20
0.55900	23
0.56267	26
0.56633	27
0.57000	25
0.57367	22
0.57733	18
0.58100	13
0.58467	10
0.58833	10
0.59200	13
0.59567	17
0.59933	20
0.60300	21
0.60667	22
0.61033	21
0.61400	17
0.61767	13
0.62133	10
0.62500	10
0.62867	12
0.63233	14
0.63600	15
0.63967	14
0.64333	12
0.64700	8
0.65067	9
0.65433	12
0.65800	15
0.66167	16
0.66533	14
0.66900	12
0.67267	13
0.67633	18
0.68000	22
0.68367	23
0.68733	20
0.69100	17
0.69467	15
0.69833	15
0.70200	15
0.70567	14
0.70933	12
0.71300	10
0.71667	11
0.72033	16
0.72400	22
0.72767	28
0.73133	32
0.73500	33
0.73867	34
0.74233	35
0.74600	36
0.74967	32
0.75333	27
0.75700	23
0.76067	19
0.76433	15
0.76800	11
0.77167	9
0.77533	10
0.77900	11
0.78267	10
0.78633	6
0.79000	4
0.79367	4
0.79733	8
0.80100	15
0.80467	18
0.80833	18
0.81200	16
0.81567	15
0.81933	12
0.82300	9
0.82667	9
0.83033	11
0.83400	13
0.83767	13
0.84133	13
0.84500	14
0.84867	17
0.85233	19
0.85600	18
0.85967	16
0.86333	14
0.86700	13
0.87067	13
0.87433	14
0.87800	20
0.88167	27
0.88533	28
0.88900	25
0.89267	21
0.89633	18
0.90000	16
0.90367	14
0.90733	13
0.91100	12
0.91467	11
0.91833	10
0.92200	9
0.92567	9
0.92933	7
0.93300	5
0.93667	6
0.94033	9
0.94400	15
0.94767	19
0.95133	21
0.95500	22
0.95867	23
0.96233	20
0.96600	17
0.96967	16
0.97333	15
0.97700	13
0.98067	12
0.98433	11
0.98800	7
0.99167	2
0.99533	1
0.99900	0
1.00267	-0
1.00633	1
1.01000	3
1.01367	5
1.01733	9
1.02100	13
1.02467	15
1.02833	17
1.03200	21
1.03567	25
1.03933	25
1.04300	24
1.04667	23
1.05033	23
1.05400	25
1.05767	25
1.06133	25
1.06500	22
1.06867	20
1.07233	17
1.07600	15
1.07967	16
1.08333	23
1.08700	27
1.09067	24
1.09433	18
1.09800	18
1.10167	22
1.10533	27
1.10900	30
1.11267	31
1.11633	30
1.12000	29
1.12367	28
1.12733	22
1.13100	16
1.13467	11
1.13833	9
1.14200	9
1.14567	13
1.14933	19
1.15300	23
1.15667	25
1.16033	27
1.16400	29
1.16767	27
1.17133	24
1.17500	22
1.17867	21
1.18233	18
1.18600	15
1.18967	12
1.19333	8
1.19700	1
1.20067	-5
1.20433	-8
1.20800	-6
1.21167	1
1.21533	8
1.21900	12
1.22267	15
1.22633	16
1.23000	18
1.23367	19
1.23733	16
1.24100	12
1.24467	10
1.24833	9
1.25200	9
1.25567	9
1.25933	11
1.26300	14
1.26667	16
1.27033	16
1.27400	13
1.27767	9
1.28133	5
1.28500	3
1.28867	1
1.29233	-2
1.29600	-5
1.29967	-9
1.30333	-8
1.30700	-5
1.31067	-3
1.31433	-3
1.31800	-6
1.32167	-5
1.32533	-2
1.32900	2
1.33267	4
1.33633	4
1.34000	5
1.34367	10
1.34733	17
1.35100	23
1.35467	26
1.35833	27
1.36200	27
1.36567	24
1.36933	19
1.37300	15
1.37667	11
1.38033	7
1.38400	3
1.38767	-1
1.39133	-3
1.39500	-3
1.39867	-4
1.40233	-5
1.40600	-7
1.40967	-10
1.41333	-12
1.41700	-11
1.42067	-11
1.42433	-10
1.42800	-7
1.43167	-0
1.43533	13
1.43900	35
1.44267	78
1.44633	280
1.45000	866
1.45367	1854
1.45733	3000
1.46100	4063
1.46467	4907
1.46833	5457
1.47200	5642
1.47567	5412
1.47933	4810
1.48300	3980
1.48667	3101
1.49033	2309
1.49400	1666
1.49767	1181
1.50133	831
1.50500	586
1.50867	414
1.51233	294
1.51600	212
1.51967	159
1.52333	123
1.52700	97
1.53067	87
1.53433	107
1.53800	205
1.54167	442
1.54533	815
1.54900	1249
1.55267	1653
1.55633	1971
1.56000	2174
1.56367	2233
1.56733	2122
1.57100	1856
1.57467	1504
1.57833	1142
1.58200	825
1.58567	573
1.58933	386
1.59300	257
1.59667	172
1.60033	117
1.60400	80
1.60767	54
1.61133	35
1.61500	23
1.61867	16
1.62233	10
1.62600	5
1.62967	1
1.63333	-1
1.63700	-2
1.64067	1
1.64433	7
1.64800	10
1.65167	6
1.65533	-5
1.65900	-13
1.66267	-14
1.66633	-12
1.67000	-7
1.67367	-3
1.67733	-2
1.68100	3
1.68467	10
1.68833	15
1.69200	14
1.69567	11
1.69933	7
1.70300	1
1.70667	-5
1.71033	-9
1.71400	-10
1.71767	-10
1.72133	-11
1.72500	-9
1.72867	-6
1.73233	-1
1.73600	4
1.73967	6
1.74333	6
1.74700	6
1.75067	8
1.75433	9
1.75800	6
1.76167	2
1.76533	-2
1.76900	-6
1.77267	-11
1.77633	-15
1.78000	-17
1.78367	-17
1.78733	-15
1.79100	-14
1.79467	-13
1.79833	-11
1.80200	-7
1.80567	-1
1.80933	4
1.81300	6
1.81667	7
1.82033	6
1.82400	7
1.82767	9
1.83133	11
1.83500	10
1.83867	8
1.84233	7
1.84600	6
1.84967	7
1.85333	7
1.85700	8
1.86067	10
1.86433	10
1.86800	11
1.87167	10
1.87533	8
1.87900	7
1.88267	7
1.88633	5
1.89000	3
1.89367	2
1.89733	4
1.90100	5
1.90467	4
1.90833	3
1.91200	1
1.91567	-1
1.91933	-3
1.92300	-2
1.92667	-1
1.93033	2
1.93400	7
1.93767	12
1.94133	19
1.94500	38
1.94867	141
1.95233	780
1.95600	3987
1.95967	16047
1.96333	50410
1.96700	125670
1.97067	253751
1.97433	425879
1.97800	613572
1.98167	782782
1.98533	905197
1.98900	962708
1.99267	949372
1.99633	871961
2.00000	749029
2.00367	605497
2.00733	464642
2.01100	342106
2.01467	244465
2.01833	171452
2.02200	119247
2.02567	83029
2.02933	58370
2.03300	41750
2.03667	30584
2.04033	23054
2.04400	17923
2.04767	14371
2.05133	11864
2.05500	10053
2.05867	8714
2.06233	7693
2.06600	6892
2.06967	6248
2.07333	5719
2.07700	5276
2.08067	4900
2.08433	4572
2.08800	4284
2.09167	4029
2.09533	3803
2.09900	3602
2.10267	3422
2.10633	3259
2.11000	3110
2.11367	2976
2.11733	2855
2.12100	2740
2.12467	2632
2.12833	2530
2.13200	2433
2.13567	2345
2.13933	2264
2.14300	2186
2.14667	2113
2.15033	2045
2.15400	1980
2.15767	1918
2.16133	1863
2.16500	1807
2.16867	1750
2.17233	1698
2.17600	1650
2.17967	1602
2.18333	1559
2.18700	1520
2.19067	1483
2.19433	1446
2.19800	1408
2.20167	1370
2.20533	1336
2.20900	1309
2.21267	1287
2.21633	1266
2.22000	1244
2.22367	1218
2.22733	1192
2.23100	1163
2.23467	1135
2.23833	1108
2.24200	1081
2.24567	1057
2.24933	1033
2.25300	1011
2.25667	988
2.26033	967
2.26400	953
2.26767	941
2.27133	928
2.27500	911
2.27867	894
2.28233	878
2.28600	864
2.28967	851
2.29333	838
2.29700	828
2.30067	817
2.30433	808
2.30800	797
2.31167	785
2.31533	771
2.31900	754
2.32267	737
2.32633	721
2.33000	708
2.33367	701
2.33733	694
2.34100	685
2.34467	676
2.34833	666
2.35200	656
2.35567	647
2.35933	643
2.36300	643
2.36667	638
2.37033	627
2.37400	615
2.37767	604
2.38133	594
2.38500	585
2.38867	578
2.39233	572
2.39600	566
2.39967	561
2.40333	557
2.40700	556
2.41067	558
2.41433	558
2.41800	552
2.42167	541
2.42533	532
2.42900	525
2.43267	517
2.43633	512
2.44000	508
2.44367	503
2.44733	498
2.45100	486
2.45467	473
2.45833	464
2.46200	460
2.46567	461
2.46933	464
2.47300	463
2.47667	455
2.48033	444
2.48400	429
2.48767	415
2.49133	408
2.49500	410
2.49867	418
2.50233	427
2.50600	433
2.50967	437
2.51333	439
2.51700	440
2.52067	437
2.52433	428
2.52800	416
2.53167	403
2.53533	394
2.53900	389
2.54267	388
2.54633	383
2.55000	375
2.55367	367
2.55733	360
2.56100	356
2.56467	354
2.56833	352
2.57200	348
2.57567	341
2.57933	333
2.58300	329
2.58667	330
2.59033	330
2.59400	327
2.59767	322
2.60133	320
2.60500	320
2.60867	322
2.61233	324
2.61600	324
2.61967	322
2.62333	317
2.62700	311
2.63067	305
2.63433	302
2.63800	299
2.64167	296
2.64533	292
2.64900	287
2.65267	282
2.65633	278
2.66000	275
2.66367	277
2.66733	278
2.67100	277
2.67467	276
2.67833	276
2.68200	274
2.68567	272
2.68933	269
2.69300	269
2.69667	269
2.70033	270
2.70400	271
2.70767	273
2.71133	277
2.71500	279
2.71867	275
2.72233	267
2.72600	258
2.72967	250
2.73333	245
2.73700	243
2.74067	239
2.74433	232
2.74800	223
2.75167	218
2.75533	219
2.75900	223
2.76267	229
2.76633	235
2.77000	232
2.77367	225
2.77733	217
2.78100	210
2.78467	207
2.78833	208
2.79200	211
2.79567	215
2.79933	218
2.80300	219
2.80667	219
2.81033	219
2.81400	219
2.81767	220
2.82133	220
2.82500	217
2.82867	214
2.83233	211
2.83600	206
2.83967	200
2.84333	196
2.84700	191
2.85067	185
2.85433	180
2.85800	178
2.86167	181
2.86533	185
2.86900	187
2.87267	189
2.87633	188
2.88000	187
2.88367	185
2.88733	182
2.89100	178
2.89467	174
2.89833	169
2.90200	169
2.90567	170
2.90933	172
2.91300	175
2.91667	179
2.92033	183
2.92400	186
2.92767	183
2.93133	177
2.93500	172
2.93867	167
2.94233	162
2.94600	156
2.94967	150
2.95333	144
2.95700	143
2.96067	148
2.96433	155
2.96800	160
2.97167	161
2.97533	162
2.97900	165
2.98267	168
2.98633	172
2.99000	176
2.99367	179
2.99733	180
3.00100	180
3.00467	177
3.00833	170
3.01200	159
3.01567	149
3.01933	141
3.02300	132
3.02667	126
3.03033	123
3.03400	121
3.03767	121
3.04133	124
3.04500	130
3.04867	135
3.05233	134
3.05600	128
3.05967	124
3.06333	124
3.06700	127
3.07067	131
3.07433	131
3.07800	129
3.08167	129
3.08533	134
3.08900	139
3.09267	139
3.09633	135
3.10000	129
3.10367	122
3.10733	117
3.11100	115
3.11467	117
3.11833	121
3.12200	123
3.12567	125
3.12933	124
3.13300	122
3.13667	120
3.14033	119
3.14400	117
3.14767	114
3.15133	112
3.15500	112
3.15867	112
3.16233	110
3.16600	106
3.16967	100
3.17333	98
3.17700	98
3.18067	99
3.18433	100
3.18800	101
3.19167	97
3.19533	92
3.19900	90
3.20267	92
3.20633	94
3.21000	97
3.21367	100
3.21733	103
3.22100	103
3.22467	100
3.22833	94
3.23200	89
3.23567	86
3.23933	88
3.24300	90
3.24667	89
3.25033	88
3.25400	86
3.25767	81
3.26133	73
3.26500	67
3.26867	68
3.27233	71
3.27600	74
3.27967	80
3.28333	84
3.28700	88
3.29067	94
3.29433	98
3.29800	95
3.30167	92
3.30533	90
3.30900	91
3.31267	92
3.31633	93
3.32000	95
3.32367	96
3.32733	93
3.33100	88
3.33467	83
3.33833	78
3.34200	75
3.34567	75
3.34933	77
3.35300	81
3.35667	85
3.36033	87
3.36400	88
3.36767	86
3.37133	85
3.37500	86
3.37867	88
3.38233	89
3.38600	89
3.38967	88
3.39333	90
3.39700	89
3.40067	84
3.40433	78
3.40800	77
3.41167	77
3.41533	78
3.41900	77
3.42267	75
3.42633	75
3.43000	78
3.43367	82
3.43733	88
3.44100	90
3.44467	87
3.44833	84
3.45200	81
3.45567	78
3.45933	76
3.46300	74
3.46667	77
3.47033	77
3.47400	74
3.47767	73
3.48133	72
3.48500	72
3.48867	72
3.49233	71
3.49600	69
3.49967	65
3.50333	62
3.50700	60
3.51067	59
3.51433	59
3.51800	59
3.52167	61
3.52533	61
3.52900	59
3.53267	61
3.53633	62
3.54000	64
3.54367	64
3.54733	59
3.55100	52
3.55467	47
3.55833	48
3.56200	52
3.56567	60
3.56933	69
3.57300	75
3.57667	79
3.58033	77
3.58400	72
3.58767	67
3.59133	64
3.59500	59
3.59867	55
3.60233	53
3.60600	57
3.60967	65
3.61333	74
3.61700	79
3.62067	76
3.62433	67
3.62800	57
3.63167	49
3.63533	44
3.63900	41
3.64267	43
3.64633	47
3.65000	50
3.65367	51
3.65733	52
3.66100	54
3.66467	57
3.66833	58
3.67200	59
3.67567	62
3.67933	66
3.68300	67
3.68667	67
3.69033	67
3.69400	68
3.69767	67
3.70133	63
3.70500	55
3.70867	49
3.71233	46
3.71600	46
3.71967	46
3.72333	46
3.72700	45
3.73067	43
3.73433	37
3.73800	31
3.74167	30
3.74533	34
3.74900	41
3.75267	49
3.75633	57
3.76000	59
3.76367	57
3.76733	53
3.77100	48
3.77467	42
3.77833	38
3.78200	39
3.78567	43
3.78933	48
3.79300	51
3.79667	54
3.80033	56
3.80400	56
3.80767	53
3.81133	51
3.81500	48
3.81867	42
3.82233	34
3.82600	28
3.82967	27
3.83333	26
3.83700	27
3.84067	32
3.84433	36
3.84800	41
3.85167	45
3.85533	43
3.85900	35
3.86267	26
3.86633	19
3.87000	13
3.87367	9
3.87733	7
3.88100	7
3.88467	9
3.88833	14
3.89200	21
3.89567	25
3.89933	28
3.90300	29
3.90667	27
3.91033	23
3.91400	19
3.91767	17
3.92133	15
3.92500	15
3.92867	18
3.93233	19
3.93600	20
3.93967	20
3.94333	23
3.94700	28
3.95067	34
3.95433	32
3.95800	25
3.96167	19
3.96533	14
3.96900	15
3.97267	16
3.97633	14
3.98000	11
3.98367	6
3.98733	5
3.99100	7
3.99467	10
3.99833	13

[Chromatogram (Ch2)]
Interval(msec)	220
# of Points	1091
Start Time(min)	0.002
End Time(min)	3.998
R.Time (min)	Intensity
0.00167	-0
0.00533	-1
0.00900	-1
0.01267	-1
0.01633	-1
0.02000	-1
0.02367	-1
0.02733	-1
0.03100	-0
0.03467	-0
0.03833	0
0.04200	1
0.04567	1
0.04933	1
0.05300	1
0.05667	1
0.06033	1
0.06400	1
0.06767	1
0.07133	1
0.07500	1
0.07867	2
0.08233	2
0.08600	2
0.08967	2
0.09333	2
0.09700	2
0.10067	2
0.10433	2
0.10800	2
0.11167	2
0.11533	2
0.11900	2
0.12267	2
0.12633	2
0.13000	2
0.13367	2
0.13733	2
0.14100	2
0.14467	2
0.14833	2
0.15200	1
0.15567	1
0.15933	1
0.16300	1
0.16667	1
0.17033	1
0.17400	0
0.17767	0
0.18133	0
0.18500	0
0.18867	0
0.19233	0
0.19600	1
0.19967	1
0.20333	1
0.20700	1
0.21067	1
0.21433	1
0.21800	0
0.22167	-0
0.22533	-0
0.22900	-0
0.23267	-0
0.23633	-1
0.24000	-1
0.24367	-0
0.24733	-0
0.25100	-0
0.25467	0
0.25833	0
0.26200	0
0.26567	1
0.26933	1
0.27300	1
0.27667	1
0.28033	1
0.28400	1
0.28767	1
0.29133	1
0.29500	1
0.29867	1
0.30233	1
0.30600	1
0.30967	1
0.31333	1
0.31700	1
0.32067	1
0.32433	1
0.32800	1
0.33167	1
0.33533	1
0.33900	1
0.34267	1
0.34633	1
0.35000	0
0.35367	0
0.35733	-0
0.36100	-0
0.36467	-0
0.36833	-0
0.37200	-0
0.37567	-0
0.37933	-0
0.38300	-0
0.38667	-0
0.39033	-0
0.39400	-0
0.39767	-0
0.40133	-0
0.40500	-0
0.40867	-0
0.41233	-0
0.41600	-0
0.41967	-0
0.42333	0
0.42700	0
0.43067	0
0.43433	0
0.43800	-0
0.44167	-0
0.44533	-0
0.44900	-0
0.45267	-0
0.45633	0
0.46000	0
0.46367	1
0.46733	1
0.47100	1
0.47467	1
0.47833	1
0.48200	1
0.48567	1
0.48933	1
0.49300	1
0.49667	1
0.50033	1
0.50400	1
0.50767	1
0.51133	1
0.51500	1
0.51867	1
0.52233	1
0.52600	0
0.52967	0
0.53333	0
0.53700	0
0.54067	0
0.54433	-0
0.54800	-0
0.55167	-1
0.55533	-1
0.55900	-0
0.56267	-0
0.56633	-0
0.57000	0
0.57367	1
0.57733	1
0.58100	1
0.58467	1
0.58833	1
0.59200	0
0.59567	0
0.59933	0
0.60300	-0
0.60667	-0
0.61033	-0
0.61400	-1
0.61767	-1
0.62133	-1
0.62500	-1
0.62867	-1
0.63233	-1
0.63600	-1
0.63967	-1
0.64333	-1
0.64700	-1
0.65067	-1
0.65433	-1
0.65800	-1
0.66167	-1
0.66533	-1
0.66900	-0
0.67267	-0
0.67633	-0
0.68000	-0
0.68367	0
0.68733	0
0.69100	0
0.69467	0
0.69833	0
0.70200	0
0.70567	0
0.70933	0
0.71300	0
0.71667	1
0.72033	1
0.72400	1
0.72767	1
0.73133	0
0.73500	0
0.73867	0
0.74233	0
0.74600	-0
0.74967	-0
0.75333	-1
0.75700	-1
0.76067	-1
0.76433	-1
0.76800	-1
0.77167	-1
0.77533	-1
0.77900	-1
0.78267	-1
0.78633	-1
0.79000	-1
0.79367	-1
0.79733	-1
0.80100	-1
0.80467	-1
0.80833	-0
0.81200	-0
0.81567	-1
0.81933	-1
0.82300	-1
0.82667	-1
0.83033	-1
0.83400	-1
0.83767	-1
0.84133	-1
0.84500	-1
0.84867	-1
0.85233	-2
0.85600	-2
0.85967	-2
0.86333	-2
0.86700	-1
0.87067	-1
0.87433	-1
0.87800	-1
0.88167	-1
0.88533	-1
0.88900	-1
0.89267	-1
0.89633	-0
0.90000	-0
0.90367	-0
0.90733	-0
0.91100	-0
0.91467	-1
0.91833	-1
0.92200	-0
0.92567	-0
0.92933	-0
0.93300	-1
0.93667	-1
0.94033	-1
0.94400	-1
0.94767	-1
0.95133	-1
0.95500	-0
0.95867	-0
0.96233	-1
0.96600	-1
0.96967	-1
0.97333	-1
0.97700	-1
0.98067	-1
0.98433	-1
0.98800	-1
0.99167	-1
0.99533	-1
0.99900	-1
1.00267	-1
1.00633	-1
1.01000	-1
1.01367	-1
1.01733	-1
1.02100	-1
1.02467	-1
1.02833	-1
1.03200	-1
1.03567	-1
1.03933	-1
1.04300	-1
1.04667	-1
1.05033	-1
1.05400	-1
1.05767	-1
1.06133	-1
1.06500	-0
1.06867	-0
1.07233	-0
1.07600	-0
1.07967	-0
1.08333	-0
1.08700	-0
1.09067	-0
1.09433	-0
1.09800	-1
1.10167	-1
1.10533	-1
1.10900	-1
1.11267	-1
1.11633	-1
1.12000	-1
1.12367	-1
1.12733	-1
1.13100	-1
1.13467	-1
1.13833	-1
1.14200	-1
1.14567	-1
1.14933	-1
1.15300	-1
1.15667	-1
1.16033	-1
1.16400	-0
1.16767	-0
1.17133	-0
1.17500	0
1.17867	0
1.18233	0
1.18600	0
1.18967	0
1.19333	0
1.19700	-0
1.20067	-0
1.20433	-0
1.20800	-0
1.21167	-0
1.21533	-1
1.21900	-1
1.22267	-1
1.22633	-1
1.23000	-1
1.23367	-1
1.23733	-1
1.24100	-1
1.24467	-1
1.24833	-1
1.25200	-1
1.25567	-1
1.25933	-1
1.26300	-1
1.26667	-1
1.27033	-1
1.27400	-2
1.27767	-2
1.28133	-2
1.28500	-2
1.28867	-2
1.29233	-2
1.29600	-2
1.29967	-2
1.30333	-2
1.30700	-2
1.31067	-2
1.31433	-2
1.31800	-2
1.32167	-2
1.32533	-2
1.32900	-2
1.33267	-2
1.33633	-2
1.34000	-2
1.34367	-2
1.34733	-2
1.35100	-2
1.35467	-2
1.35833	-2
1.36200	-2
1.36567	-3
1.36933	-3
1.37300	-3
1.37667	-3
1.38033	-3
1.38400	-3
1.38767	-3
1.39133	-3
1.39500	-3
1.39867	-3
1.40233	-3
1.40600	-3
1.40967	-3
1.41333	-3
1.41700	-4
1.42067	-4
1.42433	-4
1.42800	-4
1.43167	-4
1.43533	-3
1.43900	-3
1.44267	-3
1.44633	-3
1.45000	-3
1.45367	-3
1.45733	-3
1.46100	-3
1.46467	-3
1.46833	-3
1.47200	-3
1.47567	-2
1.47933	-2
1.48300	-2
1.48667	-2
1.49033	-2
1.49400	-2
1.49767	-2
1.50133	-2
1.50500	-1
1.50867	-1
1.51233	-1
1.51600	-1
1.51967	-1
1.52333	-1
1.52700	-1
1.53067	-1
1.53433	-1
1.53800	-1
1.54167	-2
1.54533	-2
1.54900	-2
1.55267	-3
1.55633	-3
1.56000	-3
1.56367	-2
1.56733	-2
1.57100	-3
1.57467	-3
1.57833	-3
1.58200	-3
1.58567	-3
1.58933	-3
1.59300	-4
1.59667	-4
1.60033	-5
1.60400	-6
1.60767	-7
1.61133	-8
1.61500	-10
1.61867	-12
1.62233	-14
1.62600	-17
1.62967	-20
1.63333	-23
1.63700	-26
1.64067	-29
1.64433	-32
1.64800	-35
1.65167	-39
1.65533	-42
1.65900	-45
1.66267	-48
1.66633	-52
1.67000	-56
1.67367	-60
1.67733	-65
1.68100	-69
1.68467	-73
1.68833	-77
1.69200	-81
1.69567	-84
1.69933	-87
1.70300	-89
1.70667	-91
1.71033	-92
1.71400	-93
1.71767	-94
1.72133	-95
1.72500	-95
1.72867	-95
1.73233	-96
1.73600	-96
1.73967	-96
1.74333	-96
1.74700	-95
1.75067	-95
1.75433	-95
1.75800	-95
1.76167	-95
1.76533	-95
1.76900	-95
1.77267	-96
1.77633	-96
1.78000	-96
1.78367	-97
1.78733	-97
1.79100	-98
1.79467	-98
1.79833	-98
1.80200	-99
1.80567	-99
1.80933	-99
1.81300	-98
1.81667	-98
1.82033	-99
1.82400	-99
1.82767	-99
1.83133	-99
1.83500	-99
1.83867	-99
1.84233	-99
1.84600	-99
1.84967	-99
1.85333	-98
1.85700	-98
1.86067	-98
1.86433	-99
1.86800	-99
1.87167	-99
1.87533	-100
1.87900	-100
1.88267	-100
1.88633	-100
1.89000	-100
1.89367	-100
1.89733	-99
1.90100	-99
1.90467	-98
1.90833	-97
1.91200	-97
1.91567	-97
1.91933	-97
1.92300	-97
1.92667	-96
1.93033	-96
1.93400	-96
1.93767	-96
1.94133	-96
1.94500	-96
1.94867	-96
1.95233	-95
1.95600	-95
1.95967	-95
1.96333	-94
1.96700	-94
1.97067	-94
1.97433	-93
1.97800	-93
1.98167	-93
1.98533	-93
1.98900	-92
1.99267	-92
1.99633	-92
2.00000	-91
2.00367	-91
2.00733	-91
2.01100	-91
2.01467	-91
2.01833	-91
2.02200	-91
2.02567	-91
2.02933	-90
2.03300	-90
2.03667	-89
2.04033	-89
2.04400	-88
2.04767	-88
2.05133	-88
2.05500	-88
2.05867	-88
2.06233	-88
2.06600	-87
2.06967	-87
2.07333	-87
2.07700	-87
2.08067	-86
2.08433	-86
2.08800	-85
2.09167	-85
2.09533	-85
2.09900	-84
2.10267	-84
2.10633	-84
2.11000	-83
2.11367	-83
2.11733	-82
2.12100	-81
2.12467	-81
2.12833	-80
2.13200	-81
2.13567	-81
2.13933	-81
2.14300	-81
2.14667	-81
2.15033	-81
2.15400	-81
2.15767	-81
2.16133	-80
2.16500	-80
2.16867	-80
2.17233	-79
2.17600	-79
2.17967	-78
2.18333	-78
2.18700	-78
2.19067	-78
2.19433	-78
2.19800	-77
2.20167	-76
2.20533	-75
2.20900	-75
2.21267	-74
2.21633	-74
2.22000	-75
2.22367	-75
2.22733	-75
2.23100	-75
2.23467	-75
2.23833	-75
2.24200	-74
2.24567	-73
2.24933	-73
2.25300	-72
2.25667	-72
2.26033	-72
2.26400	-72
2.26767	-72
2.27133	-72
2.27500	-72
2.27867	-71
2.28233	-71
2.28600	-71
2.28967	-70
2.29333	-69
2.29700	-69
2.30067	-68
2.30433	-68
2.30800	-68
2.31167	-68
2.31533	-68
2.31900	-69
2.32267	-69
2.32633	-69
2.33000	-69
2.33367	-69
2.33733	-68
2.34100	-67
2.34467	-67
2.34833	-66
2.35200	-65
2.35567	-64
2.35933	-64
2.36300	-63
2.36667	-62
2.37033	-60
2.37400	-58
2.37767	-55
2.38133	-52
2.38500	-48
2.38867	-44
2.39233	-40
2.39600	-36
2.39967	-31
2.40333	-26
2.40700	-21
2.41067	-17
2.41433	-13
2.41800	-10
2.42167	-8
2.42533	-5
2.42900	-3
2.43267	-1
2.43633	1
2.44000	2
2.44367	4
2.44733	5
2.45100	6
2.45467	8
2.45833	9
2.46200	10
2.46567	11
2.46933	12
2.47300	12
2.47667	13
2.48033	13
2.48400	14
2.48767	15
2.49133	15
2.49500	16
2.49867	16
2.50233	16
2.50600	17
2.50967	17
2.51333	17
2.51700	17
2.52067	18
2.52433	18
2.52800	18
2.53167	18
2.53533	18
2.53900	17
2.54267	17
2.54633	17
2.55000	17
2.55367	16
2.55733	16
2.56100	16
2.56467	15
2.56833	15
2.57200	15
2.57567	16
2.57933	16
2.58300	16
2.58667	16
2.59033	16
2.59400	17
2.59767	17
2.60133	17
2.60500	18
2.60867	18
2.61233	19
2.61600	19
2.61967	19
2.62333	19
2.62700	19
2.63067	20
2.63433	20
2.63800	20
2.64167	20
2.64533	20
2.64900	20
2.65267	20
2.65633	21
2.66000	21
2.66367	21
2.66733	22
2.67100	22
2.67467	22
2.67833	22
2.68200	22
2.68567	23
2.68933	23
2.69300	23
2.69667	23
2.70033	23
2.70400	23
2.70767	24
2.71133	24
2.71500	24
2.71867	25
2.72233	25
2.72600	26
2.72967	26
2.73333	27
2.73700	27
2.74067	28
2.74433	28
2.74800	28
2.75167	28
2.75533	28
2.75900	27
2.76267	27
2.76633	27
2.77000	26
2.77367	26
2.77733	26
2.78100	26
2.78467	27
2.78833	27
2.79200	27
2.79567	28
2.79933	28
2.80300	28
2.80667	29
2.81033	29
2.81400	30
2.81767	30
2.82133	30
2.82500	31
2.82867	31
2.83233	31
2.83600	31
2.83967	31
2.84333	31
2.84700	31
2.85067	30
2.85433	30
2.85800	29
2.86167	27
2.86533	22
2.86900	15
2.87267	5
2.87633	-9
2.88000	-29
2.88367	-53
2.88733	-83
2.89100	-118
2.89467	-158
2.89833	-204
2.90200	-255
2.90567	-309
2.90933	-367
2.91300	-428
2.91667	-491
2.92033	-556
2.92400	-621
2.92767	-686
2.93133	-749
2.93500	-810
2.93867	-867
2.94233	-922
2.94600	-977
2.94967	-1032
2.95333	-1081
2.95700	-1113
2.96067	-1123
2.96433	-1107
2.96800	-1068
2.97167	-1010
2.97533	-939
2.97900	-860
2.98267	-779
2.98633	-697
2.99000	-619
2.99367	-545
2.99733	-476
3.00100	-414
3.00467	-358
3.00833	-308
3.01200	-264
3.01567	-225
3.01933	-191
3.02300	-162
3.02667	-136
3.03033	-114
3.03400	-95
3.03767	-79
3.04133	-65
3.04500	-53
3.04867	-43
3.05233	-35
3.05600	-27
3.05967	-21
3.06333	-15
3.06700	-11
3.07067	-7
3.07433	-3
3.07800	-0
3.08167	2
3.08533	5
3.08900	6
3.09267	8
3.09633	10
3.10000	11
3.10367	12
3.10733	13
3.11100	13
3.11467	14
3.11833	15
3.12200	16
3.12567	16
3.12933	17
3.13300	17
3.13667	18
3.14033	18
3.14400	19
3.14767	19
3.15133	19
3.15500	20
3.15867	20
3.16233	20
3.16600	20
3.16967	21
3.17333	21
3.17700	21
3.18067	21
3.18433	21
3.18800	21
3.19167	22
3.19533	22
3.19900	22
3.20267	22
3.20633	23
3.21000	23
3.21367	23
3.21733	23
3.22100	24
3.22467	24
3.22833	24
3.23200	24
3.23567	24
3.23933	24
3.24300	24
3.24667	24
3.25033	24
3.25400	24
3.25767	25
3.26133	25
3.26500	25
3.26867	25
3.27233	25
3.27600	25
3.27967	26
3.28333	26
3.28700	26
3.29067	26
3.29433	27
3.29800	27
3.30167	27
3.30533	27
3.30900	27
3.31267	27
3.31633	26
3.32000	26
3.32367	27
3.32733	27
3.33100	27
3.33467	27
3.33833	27
3.34200	27
3.34567	28
3.34933	28
3.35300	29
3.35667	29
3.36033	29
3.36400	30
3.36767	30
3.37133	30
3.37500	30
3.37867	31
3.38233	31
3.38600	31
3.38967	31
3.39333	31
3.39700	31
3.40067	31
3.40433	31
3.40800	31
3.41167	31
3.41533	31
3.41900	31
3.42267	31
3.42633	30
3.43000	31
3.43367	31
3.43733	31
3.44100	31
3.44467	31
3.44833	31
3.45200	31
3.45567	31
3.45933	31
3.46300	31
3.46667	31
3.47033	30
3.47400	30
3.47767	30
3.48133	30
3.48500	30
3.48867	30
3.49233	30
3.49600	30
3.49967	30
3.50333	30
3.50700	30
3.51067	30
3.51433	30
3.51800	29
3.52167	29
3.52533	30
3.52900	30
3.53267	30
3.53633	30
3.54000	30
3.54367	30
3.54733	30
3.55100	30
3.55467	30
3.55833	30
3.56200	30
3.56567	30
3.56933	30
3.57300	30
3.57667	30
3.58033	30
3.58400	30
3.58767	30
3.59133	30
3.59500	30
3.59867	30
3.60233	30
3.60600	31
3.60967	31
3.61333	31
3.61700	31
3.62067	30
3.62433	30
3.62800	30
3.63167	30
3.63533	30
3.63900	30
3.64267	30
3.64633	30
3.65000	30
3.65367	30
3.65733	30
3.66100	30
3.66467	31
3.66833	31
3.67200	31
3.67567	31
3.67933	31
3.68300	31
3.68667	31
3.69033	31
3.69400	30
3.69767	30
3.70133	30
3.70500	30
3.70867	30
3.71233	30
3.71600	30
3.71967	30
3.72333	30
3.72700	30
3.73067	30
3.73433	30
3.73800	30
3.74167	30
3.74533	30
3.74900	30
3.75267	30
3.75633	30
3.76000	30
3.76367	30
3.76733	30
3.77100	30
3.77467	30
3.77833	30
3.78200	31
3.78567	31
3.78933	30
3.79300	30
3.79667	30
3.80033	30
3.80400	30
3.80767	30
3.81133	30
3.81500	30
3.81867	30
3.82233	30
3.82600	30
3.82967	30
3.83333	30
3.83700	30
3.84067	30
3.84433	30
3.84800	30
3.85167	30
3.85533	29
3.85900	29
3.86267	29
3.86633	29
3.87000	29
3.87367	30
3.87733	30
3.88100	30
3.88467	30
3.88833	30
3.89200	30
3.89567	30
3.89933	30
3.90300	30
3.90667	30
3.91033	30
3.91400	30
3.91767	30
3.92133	30
3.92500	30
3.92867	30
3.93233	30
3.93600	30
3.93967	30
3.94333	30
3.94700	30
3.95067	30
3.95433	30
3.95800	30
3.96167	30
3.96533	30
3.96900	30
3.97267	30
3.97633	30
3.98000	30
3.98367	30
3.98733	30
3.99100	30
3.99467	30
3.99833	30

[Chromatogram (Ch3)]
Interval(msec)	220
# of Points	1091
Start Time(min)	0.002
End Time(min)	3.998
R.Time (min)	Intensity
0.00167	1
0.00533	4
0.00900	6
0.01267	8
0.01633	11
0.02000	10
0.02367	6
0.02733	3
0.03100	1
0.03467	1
0.03833	3
0.04200	4
0.04567	3
0.04933	1
0.05300	1
0.05667	1
0.06033	2
0.06400	4
0.06767	4
0.07133	7
0.07500	11
0.07867	13
0.08233	12
0.08600	10
0.08967	7
0.09333	6
0.09700	5
0.10067	5
0.10433	5
0.10800	7
0.11167	6
0.11533	5
0.11900	4
0.12267	2
0.12633	2
0.13000	3
0.13367	4
0.13733	6
0.14100	7
0.14467	7
0.14833	8
0.15200	11
0.15567	11
0.15933	10
0.16300	10
0.16667	10
0.17033	10
0.17400	10
0.17767	11
0.18133	14
0.18500	13
0.18867	14
0.19233	12
0.19600	9
0.19967	10
0.20333	12
0.20700	10
0.21067	9
0.21433	7
0.21800	6
0.22167	6
0.22533	5
0.22900	1
0.23267	-1
0.23633	-2
0.24000	1
0.24367	4
0.24733	6
0.25100	6
0.25467	9
0.25833	11
0.26200	10
0.26567	10
0.26933	11
0.27300	12
0.27667	12
0.28033	11
0.28400	9
0.28767	9
0.29133	10
0.29500	10
0.29867	11
0.30233	11
0.30600	10
0.30967	8
0.31333	7
0.31700	5
0.32067	4
0.32433	5
0.32800	6
0.33167	11
0.33533	13
0.33900	15
0.34267	17
0.34633	18
0.35000	16
0.35367	13
0.35733	11
0.36100	10
0.36467	8
0.36833	7
0.37200	8
0.37567	8
0.37933	7
0.38300	8
0.38667	11
0.39033	12
0.39400	10
0.39767	9
0.40133	8
0.40500	7
0.40867	5
0.41233	5
0.41600	6
0.41967	8
0.42333	10
0.42700	9
0.43067	7
0.43433	8
0.43800	8
0.44167	7
0.44533	6
0.44900	4
0.45267	4
0.45633	4
0.46000	7
0.46367	8
0.46733	9
0.47100	8
0.47467	5
0.47833	3
0.48200	4
0.48567	6
0.48933	6
0.49300	6
0.49667	4
0.50033	3
0.50400	2
0.50767	1
0.51133	3
0.51500	6
0.51867	6
0.52233	6
0.52600	7
0.52967	10
0.53333	11
0.53700	9
0.54067	9
0.54433	11
0.54800	13
0.55167	13
0.55533	13
0.55900	13
0.56267	11
0.56633	9
0.57000	9
0.57367	9
0.57733	12
0.58100	11
0.58467	9
0.58833	7
0.59200	7
0.59567	6
0.59933	5
0.60300	7
0.60667	7
0.61033	5
0.61400	6
0.61767	8
0.62133	10
0.62500	9
0.62867	8
0.63233	8
0.63600	6
0.63967	6
0.64333	7
0.64700	7
0.65067	9
0.65433	7
0.65800	6
0.66167	6
0.66533	7
0.66900	8
0.67267	9
0.67633	7
0.68000	8
0.68367	9
0.68733	9
0.69100	8
0.69467	8
0.69833	9
0.70200	12
0.70567	15
0.70933	19
0.71300	19
0.71667	19
0.72033	18
0.72400	17
0.72767	16
0.73133	18
0.73500	20
0.73867	19
0.74233	20
0.74600	21
0.74967	20
0.75333	20
0.75700	18
0.76067	17
0.76433	16
0.76800	16
0.77167	17
0.77533	17
0.77900	16
0.78267	16
0.78633	17
0.79000	17
0.79367	17
0.79733	17
0.80100	17
0.80467	16
0.80833	15
0.81200	14
0.81567	12
0.81933	13
0.82300	13
0.82667	12
0.83033	11
0.83400	12
0.83767	12
0.84133	13
0.84500	16
0.84867	15
0.85233	14
0.85600	13
0.85967	11
0.86333	11
0.86700	12
0.87067	13
0.87433	12
0.87800	11
0.88167	9
0.88533	9
0.88900	11
0.89267	12
0.89633	13
0.90000	14
0.90367	14
0.90733	14
0.91100	14
0.91467	15
0.91833	14
0.92200	11
0.92567	8
0.92933	6
0.93300	6
0.93667	9
0.94033	14
0.94400	18
0.94767	20
0.95133	18
0.95500	16
0.95867	17
0.96233	17
0.96600	15
0.96967	13
0.97333	10
0.97700	12
0.98067	13
0.98433	17
0.98800	20
0.99167	18
0.99533	17
0.99900	17
1.00267	16
1.00633	16
1.01000	18
1.01367	18
1.01733	17
1.02100	13
1.02467	11
1.02833	10
1.03200	9
1.03567	10
1.03933	10
1.04300	12
1.04667	14
1.05033	15
1.05400	17
1.05767	19
1.06133	20
1.06500	17
1.06867	14
1.07233	14
1.07600	15
1.07967	19
1.08333	21
1.08700	20
1.09067	18
1.09433	18
1.09800	17
1.10167	16
1.10533	16
1.10900	17
1.11267	14
1.11633	14
1.12000	13
1.12367	14
1.12733	12
1.13100	11
1.13467	11
1.13833	11
1.14200	13
1.14567	16
1.14933	17
1.15300	16
1.15667	16
1.16033	16
1.16400	17
1.16767	18
1.17133	16
1.17500	15
1.17867	15
1.18233	15
1.18600	16
1.18967	15
1.19333	14
1.19700	13
1.20067	14
1.20433	17
1.20800	18
1.21167	17
1.21533	16
1.21900	17
1.22267	19
1.22633	22
1.23000	22
1.23367	22
1.23733	22
1.24100	21
1.24467	18
1.24833	17
1.25200	17
1.25567	16
1.25933	15
1.26300	14
1.26667	13
1.27033	12
1.27400	13
1.27767	16
1.28133	20
1.28500	22
1.28867	20
1.29233	18
1.29600	17
1.29967	16
1.30333	13
1.30700	11
1.31067	13
1.31433	15
1.31800	17
1.32167	20
1.32533	19
1.32900	19
1.33267	19
1.33633	18
1.34000	16
1.34367	15
1.34733	16
1.35100	18
1.35467	19
1.35833	16
1.36200	14
1.36567	12
1.36933	10
1.37300	9
1.37667	9
1.38033	9
1.38400	11
1.38767	11
1.39133	11
1.39500	12
1.39867	14
1.40233	16
1.40600	17
1.40967	16
1.41333	15
1.41700	15
1.42067	15
1.42433	14
1.42800	13
1.43167	13
1.43533	13
1.43900	14
1.44267	16
1.44633	17
1.45000	14
1.45367	10
1.45733	9
1.46100	11
1.46467	13
1.46833	15
1.47200	13
1.47567	9
1.47933	7
1.48300	8
1.48667	10
1.49033	12
1.49400	12
1.49767	13
1.50133	15
1.50500	17
1.50867	17
1.51233	16
1.51600	16
1.51967	16
1.52333	17
1.52700	19
1.53067	18
1.53433	13
1.53800	11
1.54167	11
1.54533	10
1.54900	10
1.55267	12
1.55633	15
1.56000	17
1.56367	18
1.56733	19
1.57100	19
1.57467	17
1.57833	14
1.58200	12
1.58567	11
1.58933	11
1.59300	12
1.59667	13
1.60033	13
1.60400	18
1.60767	20
1.61133	21
1.61500	22
1.61867	22
1.62233	20
1.62600	19
1.62967	20
1.63333	22
1.63700	23
1.64067	22
1.64433	21
1.64800	19
1.65167	16
1.65533	16
1.65900	18
1.66267	19
1.66633	18
1.67000	16
1.67367	20
1.67733	24
1.68100	26
1.68467	26
1.68833	24
1.69200	23
1.69567	21
1.69933	21
1.70300	22
1.70667	23
1.71033	23
1.71400	23
1.71767	24
1.72133	23
1.72500	22
1.72867	21
1.73233	19
1.73600	21
1.73967	22
1.74333	22
1.74700	22
1.75067	23
1.75433	25
1.75800	25
1.76167	23
1.76533	24
1.76900	26
1.77267	26
1.77633	25
1.78000	24
1.78367	24
1.78733	24
1.79100	26
1.79467	30
1.79833	28
1.80200	29
1.80567	30
1.80933	28
1.81300	28
1.81667	28
1.82033	26
1.82400	24
1.82767	24
1.83133	23
1.83500	23
1.83867	25
1.84233	26
1.84600	27
1.84967	28
1.85333	29
1.85700	28
1.86067	30
1.86433	33
1.86800	33
1.87167	34
1.87533	36
1.87900	37
1.88267	40
1.88633	41
1.89000	40
1.89367	38
1.89733	36
1.90100	34
1.90467	34
1.90833	33
1.91200	33
1.91567	34
1.91933	37
1.92300	37
1.92667	37
1.93033	37
1.93400	38
1.93767	40
1.94133	42
1.94500	42
1.94867	41
1.95233	40
1.95600	40
1.95967	43
1.96333	43
1.96700	41
1.97067	42
1.97433	44
1.97800	45
1.98167	45
1.98533	46
1.98900	43
1.99267	44
1.99633	47
2.00000	47
2.00367	49
2.00733	51
2.01100	50
2.01467	50
2.01833	50
2.02200	50
2.02567	48
2.02933	44
2.03300	41
2.03667	41
2.04033	45
2.04400	49
2.04767	50
2.05133	51
2.05500	53
2.05867	53
2.06233	53
2.06600	54
2.06967	56
2.07333	59
2.07700	58
2.08067	56
2.08433	54
2.08800	55
2.09167	58
2.09533	61
2.09900	65
2.10267	66
2.10633	67
2.11000	67
2.11367	63
2.11733	62
2.12100	62
2.12467	62
2.12833	63
2.13200	63
2.13567	64
2.13933	66
2.14300	68
2.14667	69
2.15033	68
2.15400	66
2.15767	63
2.16133	65
2.16500	67
2.16867	65
2.17233	63
2.17600	63
2.17967	68
2.18333	72
2.18700	75
2.19067	76
2.19433	74
2.19800	77
2.20167	81
2.20533	81
2.20900	79
2.21267	77
2.21633	76
2.22000	76
2.22367	79
2.22733	80
2.23100	79
2.23467	79
2.23833	81
2.24200	82
2.24567	82
2.24933	82
2.25300	82
2.25667	85
2.26033	87
2.26400	86
2.26767	87
2.27133	84
2.27500	81
2.27867	80
2.28233	79
2.28600	80
2.28967	82
2.29333	85
2.29700	86
2.30067	88
2.30433	88
2.30800	89
2.31167	88
2.31533	89
2.31900	92
2.32267	94
2.32633	96
2.33000	98
2.33367	98
2.33733	96
2.34100	97
2.34467	101
2.34833	102
2.35200	102
2.35567	103
2.35933	103
2.36300	103
2.36667	102
2.37033	101
2.37400	101
2.37767	100
2.38133	99
2.38500	97
2.38867	93
2.39233	95
2.39600	99
2.39967	106
2.40333	115
2.40700	123
2.41067	127
2.41433	127
2.41800	127
2.42167	126
2.42533	125
2.42900	125
2.43267	124
2.43633	124
2.44000	130
2.44367	169
2.44733	235
2.45100	285
2.45467	312
2.45833	311
2.46200	290
2.46567	270
2.46933	251
2.47300	234
2.47667	217
2.48033	198
2.48400	176
2.48767	154
2.49133	135
2.49500	124
2.49867	116
2.50233	115
2.50600	119
2.50967	124
2.51333	127
2.51700	131
2.52067	131
2.52433	127
2.52800	118
2.53167	107
2.53533	95
2.53900	84
2.54267	74
2.54633	65
2.55000	61
2.55367	61
2.55733	59
2.56100	58
2.56467	59
2.56833	60
2.57200	63
2.57567	66
2.57933	71
2.58300	77
2.58667	82
2.59033	88
2.59400	95
2.59767	103
2.60133	109
2.60500	116
2.60867	122
2.61233	125
2.61600	125
2.61967	123
2.62333	118
2.62700	109
2.63067	101
2.63433	93
2.63800	84
2.64167	75
2.64533	67
2.64900	60
2.65267	52
2.65633	44
2.66000	38
2.66367	34
2.66733	30
2.67100	29
2.67467	29
2.67833	28
2.68200	26
2.68567	23
2.68933	23
2.69300	25
2.69667	26
2.70033	28
2.70400	27
2.70767	27
2.71133	24
2.71500	23
2.71867	25
2.72233	26
2.72600	31
2.72967	34
2.73333	32
2.73700	31
2.74067	34
2.74433	40
2.74800	42
2.75167	45
2.75533	48
2.75900	55
2.76267	59
2.76633	62
2.77000	66
2.77367	70
2.77733	75
2.78100	78
2.78467	81
2.78833	85
2.79200	91
2.79567	95
2.79933	98
2.80300	100
2.80667	99
2.81033	99
2.81400	103
2.81767	104
2.82133	106
2.82500	107
2.82867	108
2.83233	109
2.83600	114
2.83967	129
2.84333	158
2.84700	220
2.85067	335
2.85433	514
2.85800	771
2.86167	1109
2.86533	1520
2.86900	1980
2.87267	2457
2.87633	2905
2.88000	3288
2.88367	3578
2.88733	3757
2.89100	3823
2.89467	3781
2.89833	3648
2.90200	3448
2.90567	3205
2.90933	2939
2.91300	2663
2.91667	2390
2.92033	2129
2.92400	1890
2.92767	1670
2.93133	1470
2.93500	1291
2.93867	1132
2.94233	991
2.94600	863
2.94967	714
2.95333	522
2.95700	369
2.96067	297
2.96433	301
2.96800	357
2.97167	444
2.97533	544
2.97900	644
2.98267	735
2.98633	809
2.99000	871
2.99367	922
2.99733	961
3.00100	990
3.00467	1010
3.00833	1023
3.01200	1028
3.01567	1031
3.01933	1035
3.02300	1037
3.02667	1035
3.03033	1031
3.03400	1029
3.03767	1025
3.04133	1018
3.04500	1011
3.04867	1005
3.05233	999
3.05600	998
3.05967	995
3.06333	989
3.06700	984
3.07067	979
3.07433	974
3.07800	970
3.08167	966
3.08533	962
3.08900	958
3.09267	953
3.09633	948
3.10000	943
3.10367	938
3.10733	933
3.11100	928
3.11467	927
3.11833	927
3.12200	926
3.12567	926
3.12933	926
3.13300	925
3.13667	923
3.14033	920
3.14400	915
3.14767	911
3.15133	911
3.15500	909
3.15867	903
3.16233	900
3.16600	898
3.16967	895
3.17333	891
3.17700	884
3.18067	880
3.18433	877
3.18800	874
3.19167	872
3.19533	867
3.19900	861
3.20267	857
3.20633	853
3.21000	848
3.21367	844
3.21733	840
3.22100	839
3.22467	837
3.22833	833
3.23200	828
3.23567	825
3.23933	822
3.24300	816
3.24667	810
3.25033	806
3.25400	802
3.25767	798
3.26133	795
3.26500	793
3.26867	791
3.27233	788
3.27600	785
3.27967	780
3.28333	781
3.28700	781
3.29067	778
3.29433	778
3.29800	780
3.30167	779
3.30533	776
3.30900	773
3.31267	770
3.31633	767
3.32000	763
3.32367	760
3.32733	756
3.33100	753
3.33467	754
3.33833	754
3.34200	753
3.34567	749
3.34933	746
3.35300	742
3.35667	741
3.36033	740
3.36400	742
3.36767	741
3.37133	740
3.37500	738
3.37867	735
3.38233	731
3.38600	729
3.38967	728
3.39333	728
3.39700	725
3.40067	724
3.40433	724
3.40800	721
3.41167	719
3.41533	717
3.41900	712
3.42267	706
3.42633	704
3.43000	705
3.43367	704
3.43733	701
3.44100	697
3.44467	692
3.44833	687
3.45200	681
3.45567	675
3.45933	670
3.46300	669
3.46667	667
3.47033	665
3.47400	662
3.47767	659
3.48133	656
3.48500	651
3.48867	645
3.49233	640
3.49600	635
3.49967	630
3.50333	625
3.50700	622
3.51067	622
3.51433	621
3.51800	620
3.52167	619
3.52533	616
3.52900	615
3.53267	613
3.53633	611
3.54000	610
3.54367	608
3.54733	607
3.55100	605
3.55467	603
3.55833	600
3.56200	600
3.56567	597
3.56933	593
3.57300	592
3.57667	590
3.58033	588
3.58400	588
3.58767	586
3.59133	582
3.59500	579
3.59867	578
3.60233	577
3.60600	575
3.60967	572
3.61333	569
3.61700	567
3.62067	566
3.62433	566
3.62800	566
3.63167	566
3.63533	569
3.63900	568
3.64267	566
3.64633	561
3.65000	558
3.65367	558
3.65733	560
3.66100	559
3.66467	560
3.66833	557
3.67200	557
3.67567	557
3.67933	553
3.68300	551
3.68667	553
3.69033	552
3.69400	551
3.69767	551
3.70133	550
3.70500	548
3.70867	546
3.71233	546
3.71600	547
3.71967	545
3.72333	543
3.72700	542
3.73067	543
3.73433	543
3.73800	543
3.74167	543
3.74533	545
3.74900	544
3.75267	542
3.75633	541
3.76000	540
3.76367	539
3.76733	538
3.77100	538
3.77467	539
3.77833	537
3.78200	533
3.78567	527
3.78933	523
3.79300	523
3.79667	523
3.80033	523
3.80400	522
3.80767	522
3.81133	522
3.81500	522
3.81867	521
3.82233	521
3.82600	521
3.82967	520
3.83333	519
3.83700	517
3.84067	515
3.84433	513
3.84800	510
3.85167	509
3.85533	507
3.85900	506
3.86267	508
3.86633	508
3.87000	508
3.87367	505
3.87733	503
3.88100	500
3.88467	496
3.88833	496
3.89200	499
3.89567	498
3.89933	499
3.90300	498
3.90667	497
3.91033	496
3.91400	496
3.91767	494
3.92133	492
3.92500	490
3.92867	487
3.93233	485
3.93600	482
3.93967	484
3.94333	486
3.94700	486
3.95067	484
3.95433	480
3.95800	479
3.96167	478
3.96533	477
3.96900	474
3.97267	473
3.97633	473
3.98000	473
3.98367	473
3.98733	471
3.99100	468
3.99467	464
3.99833	458

[Status Trace (Column Oven Temperature)]
Interval(msec)	1000
# of Points	240
Start Time(min)	0.003
End Time(min)	3.986
Intensity Units	
Intensity Multiplier	1
R.Time (min)	Intensity
0.00280	35.04
0.01947	35.03
0.03613	35.03
0.05280	35.03
0.06947	35.03
0.08613	35.03
0.10280	35.04
0.11947	35.04
0.13613	35.04
0.15280	35.03
0.16947	35.04
0.18613	35.04
0.20280	35.03
0.21947	35.02
0.23613	35.02
0.25280	35.02
0.26947	35.02
0.28613	35.02
0.30280	35.01
0.31947	35.01
0.33613	35.01
0.35280	35.01
0.36947	35.01
0.38613	35.01
0.40280	35.02
0.41947	35.02
0.43613	35.01
0.45280	35.00
0.46947	35.01
0.48613	35.00
0.50280	35.00
0.51947	34.99
0.53613	35.00
0.55280	35.00
0.56947	35.01
0.58613	35.01
0.60280	35.01
0.61947	35.00
0.63613	34.99
0.65280	35.00
0.66947	35.01
0.68613	35.00
0.70280	35.00
0.71947	35.00
0.73613	34.99
0.75280	35.00
0.76947	35.00
0.78613	34.99
0.80280	34.99
0.81947	35.00
0.83613	35.00
0.85280	34.99
0.86947	34.99
0.88613	35.00
0.90280	35.00
0.91947	34.99
0.93613	34.99
0.95280	35.00
0.96947	34.99
0.98613	34.99
1.00280	34.99
1.01947	35.00
1.03613	35.00
1.05280	35.00
1.06947	35.00
1.08613	34.99
1.10280	34.99
1.11947	35.00
1.13613	35.00
1.15280	35.00
1.16947	35.00
1.18613	35.00
1.20280	35.00
1.21947	34.99
1.23613	34.99
1.25280	34.99
1.26947	34.98
1.28613	34.99
1.30280	34.99
1.31947	34.99
1.33613	34.99
1.35280	34.99
1.36947	34.99
1.38613	35.00
1.40280	34.99
1.41947	34.98
1.43613	35.00
1.45280	35.00
1.46947	35.00
1.48613	35.00
1.50280	35.00
1.51947	34.99
1.53613	34.99
1.55280	34.99
1.56947	34.99
1.58613	35.00
1.60280	35.04
1.61947	35.13
1.63613	35.30
1.65280	35.51
1.66947	35.82
1.68613	36.19
1.70280	36.55
1.71947	36.89
1.73613	37.23
1.75280	37.55
1.76947	37.88
1.78613	38.21
1.80280	38.54
1.81947	38.88
1.83613	39.22
1.85280	39.54
1.86947	39.87
1.88613	40.22
1.90280	40.54
1.91947	40.86
1.93613	41.19
1.95280	41.52
1.96947	41.85
1.98613	42.18
2.00280	42.50
2.01947	42.83
2.03613	43.16
2.05280	43.48
2.06947	43.80
2.08613	44.12
2.10280	44.46
2.11947	44.77
2.13613	45.10
2.15280	45.43
2.16947	45.75
2.18613	46.10
2.20280	46.40
2.21947	46.73
2.23613	47.06
2.25280	47.37
2.26947	47.71
2.28613	48.04
2.30280	48.36
2.31947	48.73
2.33613	49.04
2.35280	49.34
2.36947	49.61
2.38613	49.72
2.40280	49.71
2.41947	49.70
2.43613	49.71
2.45280	49.72
2.46947	49.73
2.48613	49.73
2.50280	49.75
2.51947	49.77
2.53613	49.79
2.55280	49.80
2.56947	49.80
2.58613	49.82
2.60280	49.82
2.61947	49.81
2.63613	49.82
2.65280	49.83
2.66947	49.83
2.68613	49.84
2.70280	49.86
2.71947	49.86
2.73613	49.85
2.75280	49.87
2.76947	49.89
2.78613	49.89
2.80280	49.88
2.81947	49.88
2.83613	49.88
2.85280	49.87
2.86947	49.88
2.88613	49.89
2.90280	49.90
2.91947	49.92
2.93613	49.94
2.95280	49.95
2.96947	49.97
2.98613	49.98
3.00280	49.99
3.01947	50.00
3.03613	50.00
3.05280	50.00
3.06947	50.01
3.08613	50.02
3.10280	50.03
3.11947	50.04
3.13613	50.05
3.15280	50.05
3.16947	50.06
3.18613	50.07
3.20280	50.07
3.21947	50.08
3.23613	50.08
3.25280	50.09
3.26947	50.09
3.28613	50.10
3.30280	50.10
3.31947	50.11
3.33613	50.10
3.35280	50.10
3.36947	50.08
3.38613	50.07
3.40280	50.06
3.41947	50.05
3.43613	50.05
3.45280	50.05
3.46947	50.04
3.48613	50.03
3.50280	50.04
3.51947	50.05
3.53613	50.04
3.55280	50.04
3.56947	50.04
3.58613	50.04
3.60280	50.04
3.61947	50.05
3.63613	50.05
3.65280	50.05
3.66947	50.05
3.68613	50.05
3.70280	50.05
3.71947	50.06
3.73613	50.06
3.75280	50.06
3.76947	50.06
3.78613	50.06
3.80280	50.07
3.81947	50.07
3.83613	50.06
3.85280	50.06
3.86947	50.06
3.88613	50.06
3.90280	50.06
3.91947	50.06
3.93613	50.06
3.95280	50.06
3.96947	50.07
3.98613	50.07

[Status Trace (Injection Unit Temperature)]
Interval(msec)	1000
# of Points	240
Start Time(min)	0.003
End Time(min)	3.986
Intensity Units	
Intensity Multiplier	1
R.Time (min)	Intensity
0.00280	99.98
0.01947	99.98
0.03613	99.98
0.05280	99.98
0.06947	99.98
0.08613	99.98
0.10280	99.98
0.11947	99.98
0.13613	99.98
0.15280	99.98
0.16947	99.98
0.18613	99.98
0.20280	99.98
0.21947	99.98
0.23613	99.98
0.25280	99.98
0.26947	99.98
0.28613	99.98
0.30280	99.98
0.31947	99.98
0.33613	99.98
0.35280	99.98
0.36947	99.98
0.38613	99.98
0.40280	99.98
0.41947	99.98
0.43613	99.98
0.45280	99.98
0.46947	99.98
0.48613	99.98
0.50280	99.98
0.51947	99.98
0.53613	99.98
0.55280	99.98
0.56947	99.98
0.58613	99.98
0.60280	99.98
0.61947	99.98
0.63613	99.98
0.65280	99.98
0.66947	99.98
0.68613	99.98
0.70280	99.98
0.71947	99.97
0.73613	99.98
0.75280	99.98
0.76947	99.98
0.78613	99.98
0.80280	99.98
0.81947	99.98
0.83613	99.98
0.85280	99.98
0.86947	99.98
0.88613	99.98
0.90280	99.98
0.91947	99.98
0.93613	99.97
0.95280	99.98
0.96947	99.98
0.98613	99.98
1.00280	99.98
1.01947	99.98
1.03613	99.98
1.05280	99.98
1.06947	99.98
1.08613	99.98
1.10280	99.97
1.11947	99.97
1.13613	99.98
1.15280	99.98
1.16947	99.98
1.18613	99.98
1.20280	99.98
1.21947	99.98
1.23613	99.98
1.25280	99.98
1.26947	99.98
1.28613	99.98
1.30280	99.98
1.31947	99.98
1.33613	99.99
1.35280	99.98
1.36947	99.98
1.38613	99.98
1.40280	99.99
1.41947	99.99
1.43613	99.98
1.45280	99.98
1.46947	99.98
1.48613	99.99
1.50280	99.98
1.51947	99.99
1.53613	99.98
1.55280	99.98
1.56947	99.99
1.58613	99.98
1.60280	99.98
1.61947	99.99
1.63613	99.98
1.65280	99.99
1.66947	99.98
1.68613	99.99
1.70280	99.98
1.71947	99.98
1.73613	99.99
1.75280	99.98
1.76947	99.98
1.78613	99.98
1.80280	99.98
1.81947	99.98
1.83613	99.98
1.85280	99.98
1.86947	99.98
1.88613	99.98
1.90280	99.98
1.91947	99.98
1.93613	99.98
1.95280	99.98
1.96947	99.98
1.98613	99.98
2.00280	99.97
2.01947	99.98
2.03613	99.97
2.05280	99.97
2.06947	99.97
2.08613	99.97
2.10280	99.97
2.11947	99.97
2.13613	99.97
2.15280	99.97
2.16947	99.97
2.18613	99.97
2.20280	99.97
2.21947	99.97
2.23613	99.97
2.25280	99.97
2.26947	99.96
2.28613	99.97
2.30280	99.97
2.31947	99.96
2.33613	99.96
2.35280	99.96
2.36947	99.96
2.38613	99.97
2.40280	99.96
2.41947	99.96
2.43613	99.96
2.45280	99.97
2.46947	99.97
2.48613	99.97
2.50280	99.97
2.51947	99.97
2.53613	99.97
2.55280	99.97
2.56947	99.97
2.58613	99.97
2.60280	99.97
2.61947	99.97
2.63613	99.97
2.65280	99.97
2.66947	99.98
2.68613	99.98
2.70280	99.98
2.71947	99.98
2.73613	99.98
2.75280	99.98
2.76947	99.98
2.78613	99.99
2.80280	99.99
2.81947	99.99
2.83613	99.99
2.85280	99.99
2.86947	99.99
2.88613	99.99
2.90280	99.99
2.91947	100.00
2.93613	99.99
2.95280	100.00
2.96947	100.00
2.98613	100.00
3.00280	100.01
3.01947	100.00
3.03613	100.00
3.05280	100.00
3.06947	100.01
3.08613	100.01
3.10280	100.01
3.11947	100.01
3.13613	100.01
3.15280	100.01
3.16947	100.02
3.18613	100.02
3.20280	100.02
3.21947	100.02
3.23613	100.02
3.25280	100.02
3.26947	100.02
3.28613	100.03
3.30280	100.02
3.31947	100.03
3.33613	100.03
3.35280	100.03
3.36947	100.03
3.38613	100.03
3.40280	100.03
3.41947	100.03
3.43613	100.03
3.45280	100.03
3.46947	100.04
3.48613	100.03
3.50280	100.04
3.51947	100.04
3.53613	100.04
3.55280	100.04
3.56947	100.04
3.58613	100.04
3.60280	100.04
3.61947	100.04
3.63613	100.04
3.65280	100.04
3.66947	100.04
3.68613	100.04
3.70280	100.04
3.71947	100.04
3.73613	100.04
3.75280	100.04
3.76947	100.04
3.78613	100.04
3.80280	100.04
3.81947	100.04
3.83613	100.04
3.85280	100.04
3.86947	100.04
3.88613	100.04
3.90280	100.04
3.91947	100.04
3.93613	100.04
3.95280	100.04
3.96947	100.04
3.98613	100.05

[Status Trace (Carrier Gas Pressure)]
Interval(msec)	1000
# of Points	240
Start Time(min)	0.003
End Time(min)	3.986
Intensity Units	
Intensity Multiplier	1
R.Time (min)	Intensity
0.00280	58.00
0.01947	56.15
0.03613	56.27
0.05280	58.56
0.06947	59.88
0.08613	58.34
0.10280	57.97
0.11947	58.00
0.13613	58.01
0.15280	58.01
0.16947	58.00
0.18613	58.00
0.20280	58.00
0.21947	58.00
0.23613	58.00
0.25280	58.00
0.26947	58.00
0.28613	58.00
0.30280	58.00
0.31947	58.00
0.33613	58.00
0.35280	58.00
0.36947	58.00
0.38613	58.00
0.40280	58.00
0.41947	58.00
0.43613	58.00
0.45280	58.00
0.46947	58.00
0.48613	58.00
0.50280	58.00
0.51947	58.00
0.53613	58.00
0.55280	58.00
0.56947	58.00
0.58613	58.00
0.60280	58.00
0.61947	58.00
0.63613	58.00
0.65280	58.00
0.66947	58.00
0.68613	58.00
0.70280	58.00
0.71947	58.00
0.73613	58.00
0.75280	58.00
0.76947	58.00
0.78613	58.00
0.80280	58.00
0.81947	58.00
0.83613	58.00
0.85280	58.00
0.86947	58.00
0.88613	58.00
0.90280	58.00
0.91947	58.00
0.93613	58.00
0.95280	58.00
0.96947	58.00
0.98613	58.00
1.00280	58.00
1.01947	58.00
1.03613	58.00
1.05280	58.00
1.06947	58.00
1.08613	58.00
1.10280	58.00
1.11947	58.00
1.13613	58.00
1.15280	58.00
1.16947	58.00
1.18613	58.00
1.20280	58.00
1.21947	58.00
1.23613	58.00
1.25280	58.00
1.26947	58.00
1.28613	58.00
1.30280	58.00
1.31947	58.00
1.33613	58.00
1.35280	58.00
1.36947	58.00
1.38613	58.00
1.40280	58.00
1.41947	58.00
1.43613	58.00
1.45280	58.00
1.46947	58.00
1.48613	58.00
1.50280	58.00
1.51947	58.00
1.53613	58.00
1.55280	58.00
1.56947	58.00
1.58613	58.00
1.60280	58.00
1.61947	58.00
1.63613	58.00
1.65280	58.00
1.66947	58.01
1.68613	58.01
1.70280	58.00
1.71947	58.00
1.73613	58.00
1.75280	58.00
1.76947	58.00
1.78613	58.00
1.80280	58.00
1.81947	58.00
1.83613	58.00
1.85280	58.00
1.86947	58.00
1.88613	58.00
1.90280	58.00
1.91947	58.00
1.93613	58.00
1.95280	58.00
1.96947	58.00
1.98613	58.00
2.00280	58.00
2.01947	58.00
2.03613	58.00
2.05280	58.00
2.06947	58.00
2.08613	58.00
2.10280	58.00
2.11947	58.00
2.13613	58.00
2.15280	58.00
2.16947	58.00
2.18613	58.00
2.20280	58.00
2.21947	58.00
2.23613	58.00
2.25280	58.00
2.26947	58.00
2.28613	58.00
2.30280	58.00
2.31947	58.00
2.33613	58.00
2.35280	58.00
2.36947	58.00
2.38613	57.99
2.40280	57.99
2.41947	58.00
2.43613	58.00
2.45280	58.00
2.46947	58.00
2.48613	58.00
2.50280	57.97
2.51947	58.01
2.53613	57.99
2.55280	58.00
2.56947	58.00
2.58613	58.00
2.60280	58.00
2.61947	58.00
2.63613	58.00
2.65280	58.00
2.66947	58.00
2.68613	58.00
2.70280	58.00
2.71947	58.00
2.73613	58.00
2.75280	58.00
2.76947	58.00
2.78613	58.00
2.80280	58.00
2.81947	58.00
2.83613	58.00
2.85280	58.00
2.86947	58.00
2.88613	58.00
2.90280	58.00
2.91947	58.00
2.93613	58.00
2.95280	58.00
2.96947	58.00
2.98613	58.00
3.00280	58.00
3.01947	58.00
3.03613	58.00
3.05280	58.00
3.06947	58.00
3.08613	58.00
3.10280	58.00
3.11947	58.00
3.13613	58.00
3.15280	58.00
3.16947	58.00
3.18613	58.00
3.20280	58.00
3.21947	58.00
3.23613	58.00
3.25280	58.00
3.26947	58.00
3.28613	58.00
3.30280	58.00
3.31947	58.00
3.33613	58.00
3.35280	58.00
3.36947	58.00
3.38613	58.00
3.40280	58.00
3.41947	58.00
3.43613	58.00
3.45280	58.00
3.46947	58.00
3.48613	58.00
3.50280	58.00
3.51947	58.00
3.53613	58.00
3.55280	58.00
3.56947	58.00
3.58613	58.00
3.60280	58.00
3.61947	58.00
3.63613	58.00
3.65280	58.00
3.66947	58.00
3.68613	58.00
3.70280	58.00
3.71947	58.00
3.73613	58.00
3.75280	58.00
3.76947	58.00
3.78613	58.00
3.80280	58.00
3.81947	58.00
3.83613	58.00
3.85280	58.00
3.86947	58.00
3.88613	58.00
3.90280	58.00
3.91947	58.00
3.93613	58.00
3.95280	58.00
3.96947	58.00
3.98613	58.00

[Status Trace (Carrier Gas Flow)]
Interval(msec)	1000
# of Points	240
Start Time(min)	0.003
End Time(min)	3.986
Intensity Units	
Intensity Multiplier	1
R.Time (min)	Intensity
0.00280	34.52
0.01947	34.60
0.03613	34.54
0.05280	34.54
0.06947	34.50
0.08613	34.51
0.10280	34.52
0.11947	34.51
0.13613	34.52
0.15280	34.52
0.16947	34.52
0.18613	34.52
0.20280	34.51
0.21947	34.51
0.23613	34.52
0.25280	34.52
0.26947	34.52
0.28613	34.52
0.30280	34.52
0.31947	34.52
0.33613	34.52
0.35280	34.52
0.36947	34.52
0.38613	34.51
0.40280	34.51
0.41947	34.52
0.43613	34.52
0.45280	34.52
0.46947	34.51
0.48613	34.52
0.50280	34.52
0.51947	34.52
0.53613	34.52
0.55280	34.52
0.56947	34.52
0.58613	34.52
0.60280	34.51
0.61947	34.52
0.63613	34.52
0.65280	34.52
0.66947	34.52
0.68613	34.52
0.70280	34.52
0.71947	34.52
0.73613	34.52
0.75280	34.52
0.76947	34.52
0.78613	34.51
0.80280	34.52
0.81947	34.52
0.83613	34.52
0.85280	34.52
0.86947	34.52
0.88613	34.52
0.90280	34.52
0.91947	34.52
0.93613	34.52
0.95280	34.52
0.96947	34.51
0.98613	34.52
1.00280	34.52
1.01947	34.52
1.03613	34.51
1.05280	34.52
1.06947	34.52
1.08613	34.52
1.10280	34.52
1.11947	34.52
1.13613	34.52
1.15280	34.52
1.16947	34.52
1.18613	34.52
1.20280	34.52
1.21947	34.52
1.23613	34.52
1.25280	34.52
1.26947	34.52
1.28613	34.52
1.30280	34.52
1.31947	34.51
1.33613	34.52
1.35280	34.51
1.36947	34.52
1.38613	34.52
1.40280	34.52
1.41947	34.52
1.43613	34.52
1.45280	34.52
1.46947	34.52
1.48613	34.52
1.50280	34.52
1.51947	34.52
1.53613	34.52
1.55280	34.51
1.56947	34.52
1.58613	34.52
1.60280	34.52
1.61947	34.52
1.63613	34.51
1.65280	34.52
1.66947	34.53
1.68613	34.51
1.70280	34.51
1.71947	34.53
1.73613	34.52
1.75280	34.52
1.76947	34.51
1.78613	34.51
1.80280	34.52
1.81947	34.52
1.83613	34.52
1.85280	34.52
1.86947	34.52
1.88613	34.53
1.90280	34.52
1.91947	34.51
1.93613	34.52
1.95280	34.52
1.96947	34.52
1.98613	34.52
2.00280	34.52
2.01947	34.52
2.03613	34.53
2.05280	34.53
2.06947	34.52
2.08613	34.52
2.10280	34.52
2.11947	34.52
2.13613	34.51
2.15280	34.52
2.16947	34.52
2.18613	34.52
2.20280	34.52
2.21947	34.52
2.23613	34.52
2.25280	34.51
2.26947	34.52
2.28613	34.52
2.30280	34.52
2.31947	34.52
2.33613	34.53
2.35280	34.52
2.36947	34.52
2.38613	34.53
2.40280	34.52
2.41947	34.51
2.43613	34.52
2.45280	34.52
2.46947	34.52
2.48613	34.52
2.50280	34.64
2.51947	34.51
2.53613	34.51
2.55280	34.52
2.56947	34.52
2.58613	34.52
2.60280	34.51
2.61947	34.52
2.63613	34.52
2.65280	34.52
2.66947	34.52
2.68613	34.52
2.70280	34.52
2.71947	34.52
2.73613	34.52
2.75280	34.52
2.76947	34.51
2.78613	34.52
2.80280	34.52
2.81947	34.52
2.83613	34.52
2.85280	34.52
2.86947	34.52
2.88613	34.51
2.90280	34.52
2.91947	34.52
2.93613	34.52
2.95280	34.51
2.96947	34.52
2.98613	34.52
3.00280	34.52
3.01947	34.52
3.03613	34.52
3.05280	34.52
3.06947	34.52
3.08613	34.53
3.10280	34.52
3.11947	34.52
3.13613	34.52
3.15280	34.53
3.16947	34.52
3.18613	34.52
3.20280	34.52
3.21947	34.52
3.23613	34.52
3.25280	34.52
3.26947	34.52
3.28613	34.52
3.30280	34.52
3.31947	34.52
3.33613	34.51
3.35280	34.52
3.36947	34.52
3.38613	34.52
3.40280	34.52
3.41947	34.52
3.43613	34.52
3.45280	34.52
3.46947	34.52
3.48613	34.52
3.50280	34.52
3.51947	34.52
3.53613	34.52
3.55280	34.52
3.56947	34.52
3.58613	34.52
3.60280	34.52
3.61947	34.52
3.63613	34.52
3.65280	34.52
3.66947	34.52
3.68613	34.52
3.70280	34.52
3.71947	34.52
3.73613	34.52
3.75280	34.52
3.76947	34.51
3.78613	34.52
3.80280	34.52
3.81947	34.52
3.83613	34.52
3.85280	34.52
3.86947	34.52
3.88613	34.52
3.90280	34.52
3.91947	34.52
3.93613	34.52
3.95280	34.52
3.96947	34.52
3.98613	34.52

[Status Trace (Column Flow)]
Interval(msec)	1000
# of Points	240
Start Time(min)	0.003
End Time(min)	3.986
Intensity Units	
Intensity Multiplier	1
R.Time (min)	Intensity
0.00280	5.51
0.01947	5.29
0.03613	5.30
0.05280	5.57
0.06947	5.72
0.08613	5.55
0.10280	5.50
0.11947	5.51
0.13613	5.51
0.15280	5.51
0.16947	5.51
0.18613	5.51
0.20280	5.51
0.21947	5.51
0.23613	5.51
0.25280	5.51
0.26947	5.51
0.28613	5.51
0.30280	5.51
0.31947	5.51
0.33613	5.51
0.35280	5.51
0.36947	5.51
0.38613	5.51
0.40280	5.51
0.41947	5.51
0.43613	5.51
0.45280	5.51
0.46947	5.51
0.48613	5.51
0.50280	5.51
0.51947	5.51
0.53613	5.51
0.55280	5.51
0.56947	5.51
0.58613	5.51
0.60280	5.51
0.61947	5.51
0.63613	5.51
0.65280	5.51
0.66947	5.51
0.68613	5.51
0.70280	5.51
0.71947	5.51
0.73613	5.51
0.75280	5.51
0.76947	5.51
0.78613	5.51
0.80280	5.51
0.81947	5.51
0.83613	5.51
0.85280	5.51
0.86947	5.51
0.88613	5.51
0.90280	5.51
0.91947	5.51
0.93613	5.51
0.95280	5.51
0.96947	5.51
0.98613	5.51
1.00280	5.51
1.01947	5.51
1.03613	5.51
1.05280	5.51
1.06947	5.51
1.08613	5.51
1.10280	5.51
1.11947	5.51
1.13613	5.51
1.15280	5.51
1.16947	5.51
1.18613	5.51
1.20280	5.51
1.21947	5.51
1.23613	5.51
1.25280	5.51
1.26947	5.51
1.28613	5.51
1.30280	5.51
1.31947	5.51
1.33613	5.51
1.35280	5.51
1.36947	5.51
1.38613	5.51
1.40280	5.51
1.41947	5.51
1.43613	5.51
1.45280	5.51
1.46947	5.51
1.48613	5.51
1.50280	5.51
1.51947	5.51
1.53613	5.51
1.55280	5.51
1.56947	5.51
1.58613	5.51
1.60280	5.51
1.61947	5.50
1.63613	5.50
1.65280	5.49
1.66947	5.48
1.68613	5.47
1.70280	5.46
1.71947	5.45
1.73613	5.44
1.75280	5.43
1.76947	5.42
1.78613	5.41
1.80280	5.40
1.81947	5.39
1.83613	5.38
1.85280	5.37
1.86947	5.36
1.88613	5.35
1.90280	5.34
1.91947	5.33
1.93613	5.32
1.95280	5.31
1.96947	5.30
1.98613	5.29
2.00280	5.28
2.01947	5.27
2.03613	5.26
2.05280	5.25
2.06947	5.24
2.08613	5.23
2.10280	5.22
2.11947	5.21
2.13613	5.20
2.15280	5.19
2.16947	5.18
2.18613	5.17
2.20280	5.17
2.21947	5.16
2.23613	5.15
2.25280	5.14
2.26947	5.13
2.28613	5.12
2.30280	5.11
2.31947	5.10
2.33613	5.09
2.35280	5.08
2.36947	5.07
2.38613	5.07
2.40280	5.07
2.41947	5.07
2.43613	5.07
2.45280	5.07
2.46947	5.07
2.48613	5.07
2.50280	5.07
2.51947	5.07
2.53613	5.07
2.55280	5.07
2.56947	5.07
2.58613	5.07
2.60280	5.07
2.61947	5.07
2.63613	5.07
2.65280	5.07
2.66947	5.07
2.68613	5.07
2.70280	5.07
2.71947	5.07
2.73613	5.07
2.75280	5.07
2.76947	5.07
2.78613	5.07
2.80280	5.07
2.81947	5.07
2.83613	5.07
2.85280	5.07
2.86947	5.07
2.88613	5.07
2.90280	5.07
2.91947	5.07
2.93613	5.07
2.95280	5.07
2.96947	5.07
2.98613	5.06
3.00280	5.06
3.01947	5.06
3.03613	5.06
3.05280	5.06
3.06947	5.06
3.08613	5.06
3.10280	5.06
3.11947	5.06
3.13613	5.06
3.15280	5.06
3.16947	5.06
3.18613	5.06
3.20280	5.06
3.21947	5.06
3.23613	5.06
3.25280	5.06
3.26947	5.06
3.28613	5.06
3.30280	5.06
3.31947	5.06
3.33613	5.06
3.35280	5.06
3.36947	5.06
3.38613	5.06
3.40280	5.06
3.41947	5.06
3.43613	5.06
3.45280	5.06
3.46947	5.06
3.48613	5.06
3.50280	5.06
3.51947	5.06
3.53613	5.06
3.55280	5.06
3.56947	5.06
3.58613	5.06
3.60280	5.06
3.61947	5.06
3.63613	5.06
3.65280	5.06
3.66947	5.06
3.68613	5.06
3.70280	5.06
3.71947	5.06
3.73613	5.06
3.75280	5.06
3.76947	5.06
3.78613	5.06
3.80280	5.06
3.81947	5.06
3.83613	5.06
3.85280	5.06
3.86947	5.06
3.88613	5.06
3.90280	5.06
3.91947	5.06
3.93613	5.06
3.95280	5.06
3.96947	5.06
3.98613	5.06

[Status Trace (Linear Velocity)]
Interval(msec)	1000
# of Points	240
Start Time(min)	0.003
End Time(min)	3.986
Intensity Units	
Intensity Multiplier	1
R.Time (min)	Intensity
0.00280	39.01
0.01947	37.80
0.03613	37.87
0.05280	39.38
0.06947	40.24
0.08613	39.24
0.10280	38.99
0.11947	39.01
0.13613	39.02
0.15280	39.01
0.16947	39.01
0.18613	39.01
0.20280	39.01
0.21947	39.01
0.23613	39.01
0.25280	39.01
0.26947	39.01
0.28613	39.01
0.30280	39.01
0.31947	39.01
0.33613	39.01
0.35280	39.01
0.36947	39.01
0.38613	39.01
0.40280	39.01
0.41947	39.01
0.43613	39.01
0.45280	39.01
0.46947	39.01
0.48613	39.01
0.50280	39.01
0.51947	39.01
0.53613	39.01
0.55280	39.01
0.56947	39.01
0.58613	39.01
0.60280	39.01
0.61947	39.01
0.63613	39.01
0.65280	39.01
0.66947	39.01
0.68613	39.01
0.70280	39.01
0.71947	39.01
0.73613	39.01
0.75280	39.01
0.76947	39.01
0.78613	39.01
0.80280	39.01
0.81947	39.01
0.83613	39.01
0.85280	39.01
0.86947	39.01
0.88613	39.01
0.90280	39.01
0.91947	39.01
0.93613	39.01
0.95280	39.01
0.96947	39.01
0.98613	39.01
1.00280	39.01
1.01947	39.01
1.03613	39.01
1.05280	39.01
1.06947	39.01
1.08613	39.01
1.10280	39.01
1.11947	39.01
1.13613	39.01
1.15280	39.01
1.16947	39.01
1.18613	39.01
1.20280	39.01
1.21947	39.01
1.23613	39.01
1.25280	39.01
1.26947	39.01
1.28613	39.01
1.30280	39.01
1.31947	39.01
1.33613	39.01
1.35280	39.01
1.36947	39.01
1.38613	39.01
1.40280	39.01
1.41947	39.01
1.43613	39.01
1.45280	39.01
1.46947	39.01
1.48613	39.01
1.50280	39.01
1.51947	39.01
1.53613	39.01
1.55280	39.01
1.56947	39.01
1.58613	39.01
1.60280	39.01
1.61947	39.00
1.63613	38.99
1.65280	38.97
1.66947	38.94
1.68613	38.90
1.70280	38.87
1.71947	38.83
1.73613	38.80
1.75280	38.77
1.76947	38.74
1.78613	38.71
1.80280	38.68
1.81947	38.64
1.83613	38.61
1.85280	38.58
1.86947	38.55
1.88613	38.52
1.90280	38.49
1.91947	38.46
1.93613	38.43
1.95280	38.40
1.96947	38.37
1.98613	38.34
2.00280	38.31
2.01947	38.28
2.03613	38.24
2.05280	38.22
2.06947	38.19
2.08613	38.16
2.10280	38.13
2.11947	38.10
2.13613	38.07
2.15280	38.04
2.16947	38.01
2.18613	37.98
2.20280	37.95
2.21947	37.92
2.23613	37.89
2.25280	37.86
2.26947	37.83
2.28613	37.80
2.30280	37.78
2.31947	37.74
2.33613	37.71
2.35280	37.69
2.36947	37.66
2.38613	37.65
2.40280	37.65
2.41947	37.65
2.43613	37.65
2.45280	37.65
2.46947	37.65
2.48613	37.65
2.50280	37.63
2.51947	37.66
2.53613	37.64
2.55280	37.65
2.56947	37.65
2.58613	37.65
2.60280	37.64
2.61947	37.65
2.63613	37.65
2.65280	37.64
2.66947	37.64
2.68613	37.64
2.70280	37.64
2.71947	37.64
2.73613	37.64
2.75280	37.64
2.76947	37.64
2.78613	37.64
2.80280	37.64
2.81947	37.64
2.83613	37.64
2.85280	37.64
2.86947	37.64
2.88613	37.64
2.90280	37.64
2.91947	37.64
2.93613	37.63
2.95280	37.63
2.96947	37.63
2.98613	37.63
3.00280	37.63
3.01947	37.63
3.03613	37.63
3.05280	37.63
3.06947	37.63
3.08613	37.63
3.10280	37.63
3.11947	37.63
3.13613	37.62
3.15280	37.62
3.16947	37.62
3.18613	37.62
3.20280	37.62
3.21947	37.62
3.23613	37.62
3.25280	37.62
3.26947	37.62
3.28613	37.62
3.30280	37.62
3.31947	37.62
3.33613	37.62
3.35280	37.62
3.36947	37.62
3.38613	37.62
3.40280	37.62
3.41947	37.62
3.43613	37.62
3.45280	37.63
3.46947	37.63
3.48613	37.63
3.50280	37.63
3.51947	37.62
3.53613	37.63
3.55280	37.63
3.56947	37.63
3.58613	37.63
3.60280	37.63
3.61947	37.63
3.63613	37.62
3.65280	37.62
3.66947	37.62
3.68613	37.63
3.70280	37.62
3.71947	37.62
3.73613	37.62
3.75280	37.62
3.76947	37.62
3.78613	37.62
3.80280	37.62
3.81947	37.62
3.83613	37.62
3.85280	37.62
3.86947	37.62
3.88613	37.62
3.90280	37.62
3.91947	37.62
3.93613	37.62
3.95280	37.62
3.96947	37.62
3.98613	37.62

