[Header]
Application Name	LabSolutions
Version	5.110
Data File Name	C:\Users\User\Desktop\Junior\UIC Prairie Sampling\7.18.23\071823_041.gcd
Output Date	8/29/2023
Output Time	10:40:22 AM

[File Information]
Type	Data File
Generated	8/28/2023 6:46:16 PM
Generated by	System Administrator
Modified	8/28/2023 6:52:52 PM
Modified by	System Administrator

[Sample Information]
Operator Name	System Administrator
Acquired	8/28/2023 6:48:51 PM
Sample Type	0:Unknown
Level	0
Sample Name	041
Sample ID	041
ISTD Amount1	1
ISTD Amount2	1
ISTD Amount3	1
ISTD Amount4	1
ISTD Amount5	1
ISTD Amount6	1
ISTD Amount7	1
ISTD Amount8	1
ISTD Amount9	1
ISTD Amount10	1
ISTD Amount11	1
ISTD Amount12	1
ISTD Amount13	1
ISTD Amount14	1
ISTD Amount15	1
ISTD Amount16	1
ISTD Amount17	1
ISTD Amount18	1
ISTD Amount19	1
ISTD Amount20	1
ISTD Amount21	1
ISTD Amount22	1
ISTD Amount23	1
ISTD Amount24	1
ISTD Amount25	1
ISTD Amount26	1
ISTD Amount27	1
ISTD Amount28	1
ISTD Amount29	1
ISTD Amount30	1
ISTD Amount31	1
ISTD Amount32	1
Sample Amount	1
Dilution Factor	1
Vial#	40
Injection Volume	1
Injection Count	1
Bar Code	

[Original Files]
Data File	C:\Users\User\Desktop\Junior\UIC Prairie Sampling\7.18.23\071823_041.gcd
Method File	C:\LabSolutions\Data\GHG_4min_2022\ghg3_togas_w_acet_4 min_new_int.gcm
Batch File	C:\LabSolutions\Data\BATCH FILES\071823.gcb
Report Format File	c:\LabSolutions\System\DEFAULT.lsr

[File Description]


[Configuration]
Instrument Name	C0B7VH3-Instrument1
Instrument #	1
Line #	1
# of Detectors	3
Detector ID	DET#1	DET#2	DET#3
Detector Name	FID	PTCD	ECD
# of Channels	1	1	1

[Peak Table(Ch1)]
# of Peaks	3
Peak#	R.Time	I.Time	F.Time	Area	Height	A/H	Conc.	Mark	ID#	Name	k'	Plate #	Plate Ht.	Tailing	Resolution	Sep.Factor	Area Ratio	Height Ratio	Conc. %	Norm Conc.
1	1.472	1.435	1.531	10735	5339	2.010	0.000	   	1	CO	0.000	9920	15.121	1.297	0.000	0.000	0	0	0.000	0.000
2	1.564	1.531	1.615	4447	2275	1.955	21.678	 V 	2	CH4	0.062	11516	13.025	1.124	1.562	0.000	0	0	7.121	7.121
3	1.989	1.938	2.513	1467193	703423	2.086	282.755	   	3	CO2	0.351	17661	8.493	1.332	7.200	5.640	0	0	92.879	92.879

[Peak Table(Ch2)]
# of Peaks	0

[Peak Table(Ch3)]
# of Peaks	5
Peak#	R.Time	I.Time	F.Time	Area	Height	A/H	Conc.	Mark	ID#	Name	k'	Plate #	Plate Ht.	Tailing	Resolution	Sep.Factor	Area Ratio	Height Ratio	Conc. %	Norm Conc.
1	2.455	2.389	2.502	558	211	2.649	0.000	   			0.000	19360	7.748	0.000	0.000	0.000	0	0	0.000	0.000
2	2.517	2.502	2.546	119	70	1.702	0.000	 V 			0.025	20805	7.210	0.000	0.888	0.000	0	0	0.000	0.000
3	2.612	2.576	2.645	135	55	2.429	0.000	   			0.064	23556	6.368	0.953	1.383	2.529	0	0	0.000	0.000
4	2.891	2.825	2.994	12962	3667	3.535	0.192	   	1	N2O	0.178	14247	10.529	1.495	3.378	2.767	0	0	100.000	100.000
5	3.071	2.994	3.995	20743	811	25.591	0.000	 V 	2	SF6	0.251	340	441.148	6.134	0.471	1.412	0	0	0.000	0.000

[Compound Results(Ch1)]
# of IDs	6
ID#	Name	R.Time	Area	Height	Conc.	Curve	3rd	2nd	1st	Constant	Area Ratio	Height Ratio	Conc. %	Norm Conc.
1	CO	1.472	10735	5339	0.000	Linear	0.000000e+00	0.000000e+00	0.000000e+00	0.000000e+00	0	0	0.000	0.000
2	CH4	1.564	4447	2275	21.678	Linear	0.000000e+00	0.000000e+00	2.051179e+002	0.000000e+00	0	0	7.121	7.121
3	CO2	1.989	1467193	703423	282.755	Linear	0.000000e+00	0.000000e+00	5.188919e+003	0.000000e+00	0	0	92.879	92.879
4	Ethylene	0.000	0	0	0.000	Linear	0.000000e+00	0.000000e+00	0.000000e+00	0.000000e+00	0	0	0.000	0.000
5	Acetylene	0.000	0	0	0.000	Linear	0.000000e+00	0.000000e+00	0.000000e+00	0.000000e+00	0	0	0.000	0.000
6	Ethane	0.000	0	0	0.000	Linear	0.000000e+00	0.000000e+00	0.000000e+00	0.000000e+00	0	0	0.000	0.000

[Compound Results(Ch2)]
# of IDs	5
ID#	Name	R.Time	Area	Height	Conc.	Curve	3rd	2nd	1st	Constant	Area Ratio	Height Ratio	Conc. %	Norm Conc.
1	Hydrogen	0.000	0	0	0.000	Linear	0.000000e+00	0.000000e+00	0.000000e+00	0.000000e+00	0	0	0.000	0.000
2	Oxygen	0.000	0	0	0.000	Linear	0.000000e+00	0.000000e+00	0.000000e+00	0.000000e+00	0	0	0.000	0.000
3	Nitrogen	0.000	0	0	0.000	Linear	0.000000e+00	0.000000e+00	0.000000e+00	0.000000e+00	0	0	0.000	0.000
4	Methane	0.000	0	0	0.000	Linear	0.000000e+00	0.000000e+00	0.000000e+00	0.000000e+00	0	0	0.000	0.000
5	Carbon Monoxide	0.000	0	0	0.000	Linear	0.000000e+00	0.000000e+00	0.000000e+00	0.000000e+00	0	0	0.000	0.000

[Compound Results(Ch3)]
# of IDs	2
ID#	Name	R.Time	Area	Height	Conc.	Curve	3rd	2nd	1st	Constant	Area Ratio	Height Ratio	Conc. %	Norm Conc.
1	N2O	2.891	12962	3667	0.192	Linear	0.000000e+00	0.000000e+00	6.759880e+004	0.000000e+00	0	0	100.000	100.000
2	SF6	3.071	20743	811	0.000	Linear	0.000000e+00	0.000000e+00	0.000000e+00	0.000000e+00	0	0	0.000	0.000

[Group Results(Ch1)]
# of Groups	0

[Group Results(Ch2)]
# of Groups	0

[Group Results(Ch3)]
# of Groups	0

[Chromatogram (Ch1)]
Interval(msec)	220
# of Points	1091
Start Time(min)	0.002
End Time(min)	3.998
R.Time (min)	Intensity
0.00167	6
0.00533	8
0.00900	13
0.01267	18
0.01633	22
0.02000	24
0.02367	26
0.02733	27
0.03100	28
0.03467	29
0.03833	29
0.04200	29
0.04567	28
0.04933	28
0.05300	30
0.05667	33
0.06033	33
0.06400	30
0.06767	28
0.07133	25
0.07500	21
0.07867	19
0.08233	20
0.08600	24
0.08967	29
0.09333	32
0.09700	34
0.10067	31
0.10433	22
0.10800	10
0.11167	2
0.11533	2
0.11900	4
0.12267	8
0.12633	9
0.13000	9
0.13367	12
0.13733	17
0.14100	22
0.14467	26
0.14833	26
0.15200	28
0.15567	34
0.15933	36
0.16300	33
0.16667	26
0.17033	17
0.17400	12
0.17767	10
0.18133	10
0.18500	13
0.18867	16
0.19233	18
0.19600	16
0.19967	15
0.20333	15
0.20700	16
0.21067	14
0.21433	11
0.21800	9
0.22167	10
0.22533	15
0.22900	23
0.23267	28
0.23633	29
0.24000	30
0.24367	29
0.24733	30
0.25100	31
0.25467	29
0.25833	28
0.26200	29
0.26567	30
0.26933	32
0.27300	34
0.27667	38
0.28033	40
0.28400	38
0.28767	35
0.29133	35
0.29500	38
0.29867	43
0.30233	47
0.30600	51
0.30967	55
0.31333	57
0.31700	58
0.32067	57
0.32433	54
0.32800	51
0.33167	47
0.33533	45
0.33900	43
0.34267	42
0.34633	41
0.35000	41
0.35367	44
0.35733	47
0.36100	49
0.36467	50
0.36833	49
0.37200	51
0.37567	60
0.37933	67
0.38300	67
0.38667	62
0.39033	56
0.39400	48
0.39767	46
0.40133	47
0.40500	51
0.40867	57
0.41233	63
0.41600	66
0.41967	67
0.42333	65
0.42700	60
0.43067	54
0.43433	45
0.43800	38
0.44167	35
0.44533	32
0.44900	29
0.45267	26
0.45633	26
0.46000	28
0.46367	30
0.46733	34
0.47100	37
0.47467	36
0.47833	32
0.48200	26
0.48567	21
0.48933	17
0.49300	11
0.49667	7
0.50033	3
0.50400	3
0.50767	7
0.51133	16
0.51500	26
0.51867	35
0.52233	41
0.52600	45
0.52967	45
0.53333	47
0.53700	51
0.54067	55
0.54433	55
0.54800	50
0.55167	42
0.55533	35
0.55900	35
0.56267	39
0.56633	45
0.57000	50
0.57367	53
0.57733	54
0.58100	53
0.58467	52
0.58833	51
0.59200	50
0.59567	47
0.59933	45
0.60300	42
0.60667	38
0.61033	34
0.61400	31
0.61767	29
0.62133	29
0.62500	30
0.62867	32
0.63233	31
0.63600	31
0.63967	30
0.64333	31
0.64700	35
0.65067	39
0.65433	41
0.65800	39
0.66167	38
0.66533	39
0.66900	38
0.67267	38
0.67633	42
0.68000	49
0.68367	54
0.68733	53
0.69100	46
0.69467	37
0.69833	30
0.70200	25
0.70567	24
0.70933	25
0.71300	28
0.71667	29
0.72033	27
0.72400	24
0.72767	26
0.73133	33
0.73500	41
0.73867	46
0.74233	48
0.74600	48
0.74967	45
0.75333	37
0.75700	30
0.76067	26
0.76433	28
0.76800	33
0.77167	35
0.77533	34
0.77900	32
0.78267	28
0.78633	26
0.79000	29
0.79367	32
0.79733	36
0.80100	38
0.80467	41
0.80833	44
0.81200	45
0.81567	45
0.81933	43
0.82300	37
0.82667	34
0.83033	32
0.83400	31
0.83767	34
0.84133	38
0.84500	43
0.84867	47
0.85233	49
0.85600	51
0.85967	52
0.86333	53
0.86700	52
0.87067	49
0.87433	45
0.87800	43
0.88167	44
0.88533	46
0.88900	48
0.89267	48
0.89633	49
0.90000	52
0.90367	54
0.90733	52
0.91100	47
0.91467	40
0.91833	34
0.92200	33
0.92567	33
0.92933	36
0.93300	41
0.93667	45
0.94033	47
0.94400	47
0.94767	45
0.95133	41
0.95500	37
0.95867	35
0.96233	37
0.96600	43
0.96967	47
0.97333	52
0.97700	58
0.98067	63
0.98433	66
0.98800	69
0.99167	67
0.99533	58
0.99900	50
1.00267	46
1.00633	44
1.01000	44
1.01367	42
1.01733	39
1.02100	38
1.02467	38
1.02833	39
1.03200	37
1.03567	33
1.03933	29
1.04300	26
1.04667	27
1.05033	29
1.05400	34
1.05767	40
1.06133	46
1.06500	49
1.06867	46
1.07233	41
1.07600	37
1.07967	33
1.08333	30
1.08700	27
1.09067	26
1.09433	30
1.09800	35
1.10167	38
1.10533	37
1.10900	33
1.11267	28
1.11633	26
1.12000	28
1.12367	30
1.12733	28
1.13100	25
1.13467	24
1.13833	28
1.14200	31
1.14567	33
1.14933	32
1.15300	32
1.15667	33
1.16033	34
1.16400	34
1.16767	33
1.17133	34
1.17500	36
1.17867	40
1.18233	41
1.18600	41
1.18967	42
1.19333	41
1.19700	40
1.20067	41
1.20433	40
1.20800	38
1.21167	37
1.21533	36
1.21900	34
1.22267	30
1.22633	25
1.23000	24
1.23367	23
1.23733	25
1.24100	28
1.24467	30
1.24833	30
1.25200	29
1.25567	31
1.25933	34
1.26300	34
1.26667	31
1.27033	28
1.27400	28
1.27767	27
1.28133	24
1.28500	21
1.28867	20
1.29233	20
1.29600	19
1.29967	17
1.30333	15
1.30700	16
1.31067	19
1.31433	25
1.31800	30
1.32167	36
1.32533	40
1.32900	40
1.33267	39
1.33633	37
1.34000	31
1.34367	25
1.34733	21
1.35100	19
1.35467	15
1.35833	12
1.36200	10
1.36567	9
1.36933	9
1.37300	9
1.37667	12
1.38033	18
1.38400	20
1.38767	19
1.39133	17
1.39500	16
1.39867	17
1.40233	16
1.40600	14
1.40967	13
1.41333	14
1.41700	15
1.42067	14
1.42433	11
1.42800	7
1.43167	9
1.43533	20
1.43900	45
1.44267	91
1.44633	289
1.45000	855
1.45367	1791
1.45733	2873
1.46100	3874
1.46467	4669
1.46833	5186
1.47200	5360
1.47567	5146
1.47933	4584
1.48300	3799
1.48667	2965
1.49033	2214
1.49400	1607
1.49767	1146
1.50133	812
1.50500	576
1.50867	412
1.51233	300
1.51600	227
1.51967	181
1.52333	146
1.52700	119
1.53067	102
1.53433	117
1.53800	220
1.54167	467
1.54533	852
1.54900	1298
1.55267	1713
1.55633	2038
1.56000	2241
1.56367	2295
1.56733	2177
1.57100	1904
1.57467	1543
1.57833	1175
1.58200	852
1.58567	595
1.58933	404
1.59300	271
1.59667	181
1.60033	120
1.60400	79
1.60767	50
1.61133	31
1.61500	21
1.61867	18
1.62233	18
1.62600	19
1.62967	16
1.63333	13
1.63700	11
1.64067	9
1.64433	6
1.64800	3
1.65167	1
1.65533	-0
1.65900	-1
1.66267	-2
1.66633	-2
1.67000	-2
1.67367	-1
1.67733	-3
1.68100	-7
1.68467	-9
1.68833	-6
1.69200	-5
1.69567	-1
1.69933	3
1.70300	5
1.70667	5
1.71033	4
1.71400	3
1.71767	0
1.72133	-1
1.72500	-1
1.72867	1
1.73233	6
1.73600	10
1.73967	10
1.74333	8
1.74700	5
1.75067	3
1.75433	3
1.75800	0
1.76167	-2
1.76533	-1
1.76900	3
1.77267	8
1.77633	12
1.78000	14
1.78367	12
1.78733	8
1.79100	4
1.79467	-1
1.79833	-5
1.80200	-8
1.80567	-7
1.80933	-4
1.81300	-0
1.81667	4
1.82033	6
1.82400	7
1.82767	7
1.83133	9
1.83500	12
1.83867	13
1.84233	15
1.84600	16
1.84967	16
1.85333	15
1.85700	13
1.86067	9
1.86433	5
1.86800	2
1.87167	5
1.87533	10
1.87900	16
1.88267	21
1.88633	22
1.89000	22
1.89367	24
1.89733	27
1.90100	29
1.90467	27
1.90833	22
1.91200	16
1.91567	10
1.91933	6
1.92300	4
1.92667	2
1.93033	3
1.93400	5
1.93767	9
1.94133	15
1.94500	31
1.94867	107
1.95233	565
1.95600	2859
1.95967	11450
1.96333	35764
1.96700	88842
1.97067	179347
1.97433	302376
1.97800	438726
1.98167	563775
1.98533	656585
1.98900	703457
1.99267	698431
1.99633	644985
2.00000	556280
2.00367	450976
2.00733	346765
2.01100	255668
2.01467	182859
2.01833	128307
2.02200	89255
2.02567	62146
2.02933	43692
2.03300	31259
2.03667	22906
2.04033	17270
2.04400	13427
2.04767	10768
2.05133	8888
2.05500	7525
2.05867	6510
2.06233	5736
2.06600	5133
2.06967	4648
2.07333	4246
2.07700	3909
2.08067	3625
2.08433	3385
2.08800	3181
2.09167	3004
2.09533	2843
2.09900	2697
2.10267	2564
2.10633	2441
2.11000	2329
2.11367	2229
2.11733	2137
2.12100	2047
2.12467	1960
2.12833	1881
2.13200	1810
2.13567	1746
2.13933	1686
2.14300	1632
2.14667	1578
2.15033	1523
2.15400	1469
2.15767	1419
2.16133	1373
2.16500	1332
2.16867	1293
2.17233	1257
2.17600	1224
2.17967	1188
2.18333	1151
2.18700	1114
2.19067	1079
2.19433	1047
2.19800	1019
2.20167	996
2.20533	977
2.20900	962
2.21267	948
2.21633	932
2.22000	914
2.22367	895
2.22733	877
2.23100	859
2.23467	840
2.23833	820
2.24200	802
2.24567	788
2.24933	775
2.25300	762
2.25667	745
2.26033	725
2.26400	709
2.26767	697
2.27133	686
2.27500	673
2.27867	658
2.28233	643
2.28600	628
2.28967	614
2.29333	603
2.29700	594
2.30067	587
2.30433	582
2.30800	577
2.31167	573
2.31533	564
2.31900	551
2.32267	539
2.32633	532
2.33000	522
2.33367	511
2.33733	500
2.34100	491
2.34467	480
2.34833	470
2.35200	464
2.35567	463
2.35933	464
2.36300	461
2.36667	457
2.37033	453
2.37400	450
2.37767	450
2.38133	447
2.38500	440
2.38867	432
2.39233	424
2.39600	417
2.39967	411
2.40333	404
2.40700	397
2.41067	394
2.41433	394
2.41800	393
2.42167	389
2.42533	382
2.42900	375
2.43267	370
2.43633	365
2.44000	358
2.44367	354
2.44733	352
2.45100	352
2.45467	351
2.45833	350
2.46200	348
2.46567	343
2.46933	334
2.47300	326
2.47667	319
2.48033	312
2.48400	307
2.48767	305
2.49133	304
2.49500	303
2.49867	301
2.50233	301
2.50600	300
2.50967	299
2.51333	298
2.51700	298
2.52067	300
2.52433	303
2.52800	306
2.53167	310
2.53533	308
2.53900	299
2.54267	287
2.54633	278
2.55000	272
2.55367	269
2.55733	266
2.56100	262
2.56467	260
2.56833	257
2.57200	253
2.57567	250
2.57933	250
2.58300	249
2.58667	245
2.59033	242
2.59400	240
2.59767	238
2.60133	232
2.60500	222
2.60867	213
2.61233	207
2.61600	206
2.61967	205
2.62333	203
2.62700	200
2.63067	196
2.63433	191
2.63800	192
2.64167	195
2.64533	198
2.64900	199
2.65267	197
2.65633	197
2.66000	201
2.66367	207
2.66733	212
2.67100	211
2.67467	207
2.67833	204
2.68200	205
2.68567	207
2.68933	207
2.69300	204
2.69667	196
2.70033	189
2.70400	185
2.70767	184
2.71133	183
2.71500	185
2.71867	187
2.72233	187
2.72600	186
2.72967	183
2.73333	178
2.73700	172
2.74067	165
2.74433	159
2.74800	155
2.75167	153
2.75533	150
2.75900	146
2.76267	141
2.76633	139
2.77000	138
2.77367	138
2.77733	138
2.78100	140
2.78467	142
2.78833	143
2.79200	142
2.79567	140
2.79933	142
2.80300	145
2.80667	149
2.81033	152
2.81400	153
2.81767	149
2.82133	144
2.82500	140
2.82867	134
2.83233	130
2.83600	129
2.83967	130
2.84333	130
2.84700	130
2.85067	128
2.85433	127
2.85800	126
2.86167	127
2.86533	131
2.86900	130
2.87267	122
2.87633	113
2.88000	110
2.88367	112
2.88733	116
2.89100	121
2.89467	123
2.89833	122
2.90200	120
2.90567	122
2.90933	124
2.91300	124
2.91667	125
2.92033	124
2.92400	123
2.92767	124
2.93133	124
2.93500	119
2.93867	112
2.94233	105
2.94600	100
2.94967	101
2.95333	109
2.95700	119
2.96067	123
2.96433	122
2.96800	119
2.97167	115
2.97533	109
2.97900	106
2.98267	106
2.98633	107
2.99000	108
2.99367	107
2.99733	106
3.00100	108
3.00467	108
3.00833	107
3.01200	102
3.01567	97
3.01933	92
3.02300	89
3.02667	87
3.03033	83
3.03400	80
3.03767	77
3.04133	76
3.04500	76
3.04867	76
3.05233	73
3.05600	70
3.05967	69
3.06333	68
3.06700	69
3.07067	73
3.07433	81
3.07800	88
3.08167	88
3.08533	81
3.08900	74
3.09267	69
3.09633	66
3.10000	63
3.10367	60
3.10733	59
3.11100	58
3.11467	57
3.11833	55
3.12200	53
3.12567	51
3.12933	50
3.13300	51
3.13667	49
3.14033	49
3.14400	54
3.14767	64
3.15133	68
3.15500	67
3.15867	66
3.16233	65
3.16600	67
3.16967	70
3.17333	71
3.17700	70
3.18067	67
3.18433	64
3.18800	62
3.19167	61
3.19533	58
3.19900	57
3.20267	57
3.20633	56
3.21000	55
3.21367	55
3.21733	53
3.22100	48
3.22467	41
3.22833	38
3.23200	36
3.23567	32
3.23933	29
3.24300	27
3.24667	27
3.25033	28
3.25400	30
3.25767	33
3.26133	36
3.26500	38
3.26867	41
3.27233	42
3.27600	43
3.27967	44
3.28333	44
3.28700	42
3.29067	39
3.29433	39
3.29800	38
3.30167	37
3.30533	35
3.30900	32
3.31267	30
3.31633	27
3.32000	25
3.32367	22
3.32733	20
3.33100	20
3.33467	25
3.33833	29
3.34200	29
3.34567	29
3.34933	29
3.35300	29
3.35667	27
3.36033	26
3.36400	28
3.36767	29
3.37133	30
3.37500	29
3.37867	25
3.38233	20
3.38600	16
3.38967	13
3.39333	9
3.39700	4
3.40067	0
3.40433	-1
3.40800	4
3.41167	9
3.41533	16
3.41900	22
3.42267	27
3.42633	30
3.43000	27
3.43367	24
3.43733	21
3.44100	18
3.44467	15
3.44833	13
3.45200	12
3.45567	13
3.45933	13
3.46300	13
3.46667	12
3.47033	10
3.47400	8
3.47767	7
3.48133	7
3.48500	7
3.48867	5
3.49233	3
3.49600	2
3.49967	1
3.50333	3
3.50700	8
3.51067	10
3.51433	9
3.51800	6
3.52167	3
3.52533	-0
3.52900	-2
3.53267	-1
3.53633	5
3.54000	10
3.54367	10
3.54733	8
3.55100	4
3.55467	2
3.55833	2
3.56200	0
3.56567	-2
3.56933	-3
3.57300	0
3.57667	4
3.58033	8
3.58400	12
3.58767	13
3.59133	10
3.59500	8
3.59867	3
3.60233	-4
3.60600	-10
3.60967	-15
3.61333	-23
3.61700	-29
3.62067	-28
3.62433	-24
3.62800	-18
3.63167	-11
3.63533	-8
3.63900	-7
3.64267	-9
3.64633	-11
3.65000	-14
3.65367	-15
3.65733	-14
3.66100	-14
3.66467	-13
3.66833	-11
3.67200	-10
3.67567	-10
3.67933	-11
3.68300	-11
3.68667	-12
3.69033	-11
3.69400	-9
3.69767	-9
3.70133	-10
3.70500	-14
3.70867	-20
3.71233	-23
3.71600	-21
3.71967	-16
3.72333	-13
3.72700	-12
3.73067	-13
3.73433	-14
3.73800	-15
3.74167	-16
3.74533	-17
3.74900	-19
3.75267	-19
3.75633	-18
3.76000	-16
3.76367	-12
3.76733	-7
3.77100	-5
3.77467	-8
3.77833	-14
3.78200	-18
3.78567	-21
3.78933	-23
3.79300	-24
3.79667	-24
3.80033	-22
3.80400	-19
3.80767	-17
3.81133	-16
3.81500	-14
3.81867	-12
3.82233	-12
3.82600	-13
3.82967	-13
3.83333	-12
3.83700	-11
3.84067	-13
3.84433	-14
3.84800	-13
3.85167	-9
3.85533	-5
3.85900	-0
3.86267	-1
3.86633	-6
3.87000	-10
3.87367	-16
3.87733	-23
3.88100	-29
3.88467	-30
3.88833	-27
3.89200	-22
3.89567	-20
3.89933	-19
3.90300	-19
3.90667	-21
3.91033	-21
3.91400	-20
3.91767	-22
3.92133	-27
3.92500	-35
3.92867	-43
3.93233	-48
3.93600	-53
3.93967	-56
3.94333	-55
3.94700	-52
3.95067	-48
3.95433	-43
3.95800	-40
3.96167	-40
3.96533	-39
3.96900	-40
3.97267	-43
3.97633	-47
3.98000	-51
3.98367	-52
3.98733	-53
3.99100	-54
3.99467	-52
3.99833	-48

[Chromatogram (Ch2)]
Interval(msec)	220
# of Points	1091
Start Time(min)	0.002
End Time(min)	3.998
R.Time (min)	Intensity
0.00167	-0
0.00533	-0
0.00900	-0
0.01267	0
0.01633	0
0.02000	0
0.02367	0
0.02733	0
0.03100	0
0.03467	0
0.03833	0
0.04200	0
0.04567	0
0.04933	0
0.05300	0
0.05667	0
0.06033	0
0.06400	0
0.06767	0
0.07133	0
0.07500	0
0.07867	0
0.08233	0
0.08600	0
0.08967	0
0.09333	1
0.09700	1
0.10067	1
0.10433	1
0.10800	1
0.11167	1
0.11533	1
0.11900	1
0.12267	1
0.12633	1
0.13000	1
0.13367	1
0.13733	1
0.14100	1
0.14467	1
0.14833	1
0.15200	1
0.15567	1
0.15933	1
0.16300	1
0.16667	1
0.17033	1
0.17400	1
0.17767	1
0.18133	1
0.18500	1
0.18867	1
0.19233	1
0.19600	1
0.19967	1
0.20333	1
0.20700	1
0.21067	1
0.21433	1
0.21800	1
0.22167	1
0.22533	1
0.22900	1
0.23267	1
0.23633	1
0.24000	1
0.24367	1
0.24733	1
0.25100	1
0.25467	1
0.25833	1
0.26200	1
0.26567	1
0.26933	1
0.27300	1
0.27667	1
0.28033	1
0.28400	1
0.28767	1
0.29133	0
0.29500	0
0.29867	0
0.30233	0
0.30600	0
0.30967	0
0.31333	0
0.31700	0
0.32067	0
0.32433	0
0.32800	1
0.33167	0
0.33533	0
0.33900	0
0.34267	0
0.34633	0
0.35000	0
0.35367	-0
0.35733	-0
0.36100	-0
0.36467	0
0.36833	0
0.37200	0
0.37567	0
0.37933	0
0.38300	-0
0.38667	-0
0.39033	-0
0.39400	-0
0.39767	-0
0.40133	-1
0.40500	-1
0.40867	-1
0.41233	-1
0.41600	-1
0.41967	-1
0.42333	-1
0.42700	-1
0.43067	-1
0.43433	-1
0.43800	-0
0.44167	-0
0.44533	-0
0.44900	-0
0.45267	-1
0.45633	-1
0.46000	-0
0.46367	-0
0.46733	-0
0.47100	-0
0.47467	-0
0.47833	-0
0.48200	0
0.48567	0
0.48933	0
0.49300	0
0.49667	0
0.50033	0
0.50400	0
0.50767	0
0.51133	1
0.51500	1
0.51867	1
0.52233	1
0.52600	1
0.52967	1
0.53333	1
0.53700	1
0.54067	1
0.54433	1
0.54800	1
0.55167	1
0.55533	1
0.55900	1
0.56267	1
0.56633	1
0.57000	1
0.57367	1
0.57733	0
0.58100	0
0.58467	0
0.58833	0
0.59200	0
0.59567	0
0.59933	0
0.60300	1
0.60667	1
0.61033	1
0.61400	1
0.61767	1
0.62133	1
0.62500	1
0.62867	1
0.63233	1
0.63600	1
0.63967	0
0.64333	0
0.64700	-0
0.65067	0
0.65433	0
0.65800	0
0.66167	0
0.66533	0
0.66900	0
0.67267	0
0.67633	0
0.68000	0
0.68367	0
0.68733	0
0.69100	0
0.69467	0
0.69833	0
0.70200	0
0.70567	0
0.70933	0
0.71300	0
0.71667	0
0.72033	-0
0.72400	-0
0.72767	-0
0.73133	0
0.73500	-0
0.73867	-0
0.74233	-0
0.74600	-1
0.74967	-1
0.75333	-1
0.75700	-0
0.76067	-0
0.76433	-0
0.76800	0
0.77167	0
0.77533	0
0.77900	0
0.78267	0
0.78633	0
0.79000	-0
0.79367	-0
0.79733	-0
0.80100	-0
0.80467	-0
0.80833	0
0.81200	0
0.81567	1
0.81933	1
0.82300	1
0.82667	0
0.83033	0
0.83400	0
0.83767	0
0.84133	0
0.84500	0
0.84867	0
0.85233	0
0.85600	1
0.85967	0
0.86333	0
0.86700	-0
0.87067	-0
0.87433	-0
0.87800	-0
0.88167	-0
0.88533	-0
0.88900	-0
0.89267	-0
0.89633	-0
0.90000	-0
0.90367	-0
0.90733	-0
0.91100	-0
0.91467	-0
0.91833	-0
0.92200	-0
0.92567	-0
0.92933	-0
0.93300	0
0.93667	0
0.94033	0
0.94400	0
0.94767	0
0.95133	0
0.95500	0
0.95867	0
0.96233	0
0.96600	-0
0.96967	-0
0.97333	-0
0.97700	-0
0.98067	-0
0.98433	-0
0.98800	-0
0.99167	-0
0.99533	-0
0.99900	-0
1.00267	-0
1.00633	-0
1.01000	-0
1.01367	-0
1.01733	-0
1.02100	-0
1.02467	-0
1.02833	-0
1.03200	-0
1.03567	-0
1.03933	-0
1.04300	-0
1.04667	-0
1.05033	-0
1.05400	-1
1.05767	-1
1.06133	-1
1.06500	-1
1.06867	-1
1.07233	-1
1.07600	-1
1.07967	-1
1.08333	-1
1.08700	-1
1.09067	-1
1.09433	-1
1.09800	-1
1.10167	-1
1.10533	-1
1.10900	-1
1.11267	-1
1.11633	-1
1.12000	-1
1.12367	-1
1.12733	-1
1.13100	-1
1.13467	-1
1.13833	-1
1.14200	-1
1.14567	-1
1.14933	-1
1.15300	-2
1.15667	-2
1.16033	-2
1.16400	-1
1.16767	-1
1.17133	-1
1.17500	-1
1.17867	-1
1.18233	-1
1.18600	-1
1.18967	-1
1.19333	-1
1.19700	-1
1.20067	-1
1.20433	-1
1.20800	-1
1.21167	-2
1.21533	-2
1.21900	-2
1.22267	-2
1.22633	-2
1.23000	-1
1.23367	-1
1.23733	-1
1.24100	-1
1.24467	-1
1.24833	-1
1.25200	-1
1.25567	-1
1.25933	-1
1.26300	-1
1.26667	-1
1.27033	-1
1.27400	-1
1.27767	-1
1.28133	-1
1.28500	-1
1.28867	-1
1.29233	-1
1.29600	-1
1.29967	-1
1.30333	-1
1.30700	-1
1.31067	-1
1.31433	-1
1.31800	-1
1.32167	-1
1.32533	-1
1.32900	-1
1.33267	-2
1.33633	-2
1.34000	-2
1.34367	-2
1.34733	-2
1.35100	-2
1.35467	-2
1.35833	-1
1.36200	-1
1.36567	-1
1.36933	-1
1.37300	-1
1.37667	-1
1.38033	-1
1.38400	-1
1.38767	-1
1.39133	-1
1.39500	-1
1.39867	-1
1.40233	-1
1.40600	-1
1.40967	-1
1.41333	-1
1.41700	-2
1.42067	-2
1.42433	-1
1.42800	-1
1.43167	-1
1.43533	-1
1.43900	-1
1.44267	-1
1.44633	-1
1.45000	-1
1.45367	-1
1.45733	-1
1.46100	-1
1.46467	-1
1.46833	-1
1.47200	-1
1.47567	-1
1.47933	-1
1.48300	-0
1.48667	-0
1.49033	-0
1.49400	-0
1.49767	-1
1.50133	-1
1.50500	-1
1.50867	-1
1.51233	-2
1.51600	-2
1.51967	-2
1.52333	-2
1.52700	-2
1.53067	-2
1.53433	-2
1.53800	-2
1.54167	-2
1.54533	-2
1.54900	-2
1.55267	-2
1.55633	-2
1.56000	-2
1.56367	-2
1.56733	-2
1.57100	-2
1.57467	-2
1.57833	-2
1.58200	-3
1.58567	-3
1.58933	-3
1.59300	-4
1.59667	-4
1.60033	-5
1.60400	-6
1.60767	-7
1.61133	-8
1.61500	-10
1.61867	-12
1.62233	-14
1.62600	-17
1.62967	-20
1.63333	-23
1.63700	-26
1.64067	-29
1.64433	-33
1.64800	-36
1.65167	-39
1.65533	-42
1.65900	-46
1.66267	-49
1.66633	-53
1.67000	-57
1.67367	-61
1.67733	-65
1.68100	-70
1.68467	-74
1.68833	-78
1.69200	-81
1.69567	-84
1.69933	-87
1.70300	-89
1.70667	-90
1.71033	-91
1.71400	-92
1.71767	-93
1.72133	-94
1.72500	-95
1.72867	-95
1.73233	-96
1.73600	-96
1.73967	-97
1.74333	-97
1.74700	-97
1.75067	-97
1.75433	-97
1.75800	-96
1.76167	-96
1.76533	-96
1.76900	-96
1.77267	-97
1.77633	-97
1.78000	-98
1.78367	-99
1.78733	-99
1.79100	-100
1.79467	-100
1.79833	-100
1.80200	-100
1.80567	-100
1.80933	-100
1.81300	-100
1.81667	-100
1.82033	-100
1.82400	-101
1.82767	-101
1.83133	-101
1.83500	-100
1.83867	-100
1.84233	-100
1.84600	-100
1.84967	-100
1.85333	-101
1.85700	-101
1.86067	-101
1.86433	-101
1.86800	-101
1.87167	-101
1.87533	-100
1.87900	-100
1.88267	-99
1.88633	-98
1.89000	-98
1.89367	-98
1.89733	-98
1.90100	-98
1.90467	-98
1.90833	-98
1.91200	-98
1.91567	-99
1.91933	-99
1.92300	-99
1.92667	-99
1.93033	-98
1.93400	-97
1.93767	-96
1.94133	-96
1.94500	-95
1.94867	-95
1.95233	-94
1.95600	-94
1.95967	-94
1.96333	-93
1.96700	-93
1.97067	-92
1.97433	-92
1.97800	-92
1.98167	-91
1.98533	-90
1.98900	-90
1.99267	-89
1.99633	-89
2.00000	-89
2.00367	-89
2.00733	-89
2.01100	-90
2.01467	-90
2.01833	-91
2.02200	-91
2.02567	-91
2.02933	-91
2.03300	-91
2.03667	-91
2.04033	-90
2.04400	-90
2.04767	-89
2.05133	-89
2.05500	-88
2.05867	-88
2.06233	-87
2.06600	-87
2.06967	-86
2.07333	-86
2.07700	-85
2.08067	-85
2.08433	-84
2.08800	-83
2.09167	-83
2.09533	-83
2.09900	-83
2.10267	-83
2.10633	-83
2.11000	-83
2.11367	-82
2.11733	-82
2.12100	-81
2.12467	-81
2.12833	-80
2.13200	-80
2.13567	-81
2.13933	-81
2.14300	-81
2.14667	-80
2.15033	-80
2.15400	-79
2.15767	-79
2.16133	-79
2.16500	-78
2.16867	-78
2.17233	-78
2.17600	-78
2.17967	-78
2.18333	-78
2.18700	-78
2.19067	-78
2.19433	-78
2.19800	-78
2.20167	-78
2.20533	-77
2.20900	-76
2.21267	-75
2.21633	-75
2.22000	-74
2.22367	-73
2.22733	-73
2.23100	-73
2.23467	-74
2.23833	-74
2.24200	-74
2.24567	-74
2.24933	-74
2.25300	-73
2.25667	-73
2.26033	-73
2.26400	-73
2.26767	-74
2.27133	-74
2.27500	-74
2.27867	-74
2.28233	-74
2.28600	-73
2.28967	-72
2.29333	-71
2.29700	-70
2.30067	-70
2.30433	-69
2.30800	-68
2.31167	-68
2.31533	-68
2.31900	-68
2.32267	-68
2.32633	-68
2.33000	-68
2.33367	-67
2.33733	-67
2.34100	-66
2.34467	-65
2.34833	-64
2.35200	-64
2.35567	-64
2.35933	-64
2.36300	-63
2.36667	-62
2.37033	-61
2.37400	-59
2.37767	-56
2.38133	-53
2.38500	-50
2.38867	-46
2.39233	-42
2.39600	-38
2.39967	-34
2.40333	-29
2.40700	-25
2.41067	-20
2.41433	-16
2.41800	-12
2.42167	-9
2.42533	-7
2.42900	-5
2.43267	-3
2.43633	-1
2.44000	1
2.44367	3
2.44733	5
2.45100	6
2.45467	8
2.45833	9
2.46200	10
2.46567	10
2.46933	10
2.47300	11
2.47667	11
2.48033	12
2.48400	13
2.48767	14
2.49133	14
2.49500	15
2.49867	16
2.50233	16
2.50600	17
2.50967	17
2.51333	18
2.51700	18
2.52067	19
2.52433	19
2.52800	19
2.53167	19
2.53533	19
2.53900	18
2.54267	18
2.54633	17
2.55000	17
2.55367	16
2.55733	16
2.56100	15
2.56467	15
2.56833	15
2.57200	14
2.57567	14
2.57933	14
2.58300	14
2.58667	15
2.59033	15
2.59400	16
2.59767	16
2.60133	17
2.60500	17
2.60867	18
2.61233	18
2.61600	19
2.61967	19
2.62333	19
2.62700	20
2.63067	20
2.63433	20
2.63800	20
2.64167	20
2.64533	20
2.64900	20
2.65267	20
2.65633	21
2.66000	21
2.66367	22
2.66733	23
2.67100	23
2.67467	24
2.67833	25
2.68200	25
2.68567	26
2.68933	26
2.69300	26
2.69667	26
2.70033	26
2.70400	26
2.70767	27
2.71133	27
2.71500	27
2.71867	28
2.72233	28
2.72600	29
2.72967	29
2.73333	29
2.73700	29
2.74067	29
2.74433	29
2.74800	29
2.75167	29
2.75533	29
2.75900	29
2.76267	29
2.76633	28
2.77000	29
2.77367	29
2.77733	29
2.78100	29
2.78467	29
2.78833	29
2.79200	29
2.79567	29
2.79933	28
2.80300	28
2.80667	28
2.81033	28
2.81400	28
2.81767	28
2.82133	28
2.82500	28
2.82867	28
2.83233	28
2.83600	28
2.83967	28
2.84333	28
2.84700	28
2.85067	28
2.85433	27
2.85800	26
2.86167	24
2.86533	20
2.86900	13
2.87267	3
2.87633	-12
2.88000	-31
2.88367	-56
2.88733	-86
2.89100	-121
2.89467	-162
2.89833	-209
2.90200	-259
2.90567	-314
2.90933	-372
2.91300	-433
2.91667	-496
2.92033	-561
2.92400	-626
2.92767	-691
2.93133	-754
2.93500	-815
2.93867	-872
2.94233	-927
2.94600	-982
2.94967	-1037
2.95333	-1085
2.95700	-1116
2.96067	-1124
2.96433	-1106
2.96800	-1065
2.97167	-1006
2.97533	-934
2.97900	-854
2.98267	-772
2.98633	-690
2.99000	-612
2.99367	-538
2.99733	-470
3.00100	-408
3.00467	-353
3.00833	-303
3.01200	-259
3.01567	-221
3.01933	-187
3.02300	-158
3.02667	-133
3.03033	-112
3.03400	-93
3.03767	-77
3.04133	-64
3.04500	-52
3.04867	-42
3.05233	-33
3.05600	-26
3.05967	-20
3.06333	-14
3.06700	-10
3.07067	-6
3.07433	-3
3.07800	0
3.08167	2
3.08533	5
3.08900	6
3.09267	8
3.09633	9
3.10000	11
3.10367	12
3.10733	13
3.11100	13
3.11467	14
3.11833	15
3.12200	16
3.12567	17
3.12933	17
3.13300	18
3.13667	18
3.14033	18
3.14400	19
3.14767	19
3.15133	19
3.15500	19
3.15867	19
3.16233	20
3.16600	20
3.16967	20
3.17333	21
3.17700	21
3.18067	22
3.18433	22
3.18800	23
3.19167	23
3.19533	24
3.19900	25
3.20267	25
3.20633	26
3.21000	26
3.21367	27
3.21733	27
3.22100	28
3.22467	28
3.22833	28
3.23200	29
3.23567	29
3.23933	29
3.24300	29
3.24667	29
3.25033	29
3.25400	29
3.25767	29
3.26133	29
3.26500	29
3.26867	29
3.27233	29
3.27600	29
3.27967	29
3.28333	29
3.28700	29
3.29067	29
3.29433	29
3.29800	29
3.30167	29
3.30533	29
3.30900	29
3.31267	29
3.31633	29
3.32000	29
3.32367	29
3.32733	29
3.33100	29
3.33467	28
3.33833	28
3.34200	29
3.34567	29
3.34933	29
3.35300	29
3.35667	29
3.36033	29
3.36400	29
3.36767	29
3.37133	29
3.37500	29
3.37867	29
3.38233	29
3.38600	29
3.38967	29
3.39333	29
3.39700	28
3.40067	28
3.40433	29
3.40800	29
3.41167	29
3.41533	29
3.41900	29
3.42267	29
3.42633	29
3.43000	29
3.43367	29
3.43733	29
3.44100	29
3.44467	29
3.44833	29
3.45200	29
3.45567	29
3.45933	29
3.46300	29
3.46667	29
3.47033	29
3.47400	29
3.47767	29
3.48133	29
3.48500	29
3.48867	29
3.49233	29
3.49600	29
3.49967	29
3.50333	29
3.50700	29
3.51067	29
3.51433	29
3.51800	29
3.52167	29
3.52533	29
3.52900	29
3.53267	29
3.53633	29
3.54000	29
3.54367	28
3.54733	28
3.55100	28
3.55467	28
3.55833	28
3.56200	28
3.56567	28
3.56933	29
3.57300	29
3.57667	29
3.58033	29
3.58400	29
3.58767	29
3.59133	29
3.59500	29
3.59867	29
3.60233	29
3.60600	29
3.60967	29
3.61333	29
3.61700	29
3.62067	29
3.62433	29
3.62800	29
3.63167	29
3.63533	29
3.63900	30
3.64267	30
3.64633	30
3.65000	30
3.65367	29
3.65733	29
3.66100	29
3.66467	29
3.66833	30
3.67200	30
3.67567	30
3.67933	30
3.68300	30
3.68667	30
3.69033	30
3.69400	30
3.69767	30
3.70133	30
3.70500	30
3.70867	30
3.71233	30
3.71600	30
3.71967	30
3.72333	30
3.72700	30
3.73067	30
3.73433	30
3.73800	30
3.74167	30
3.74533	30
3.74900	30
3.75267	30
3.75633	30
3.76000	30
3.76367	30
3.76733	30
3.77100	30
3.77467	30
3.77833	30
3.78200	30
3.78567	30
3.78933	30
3.79300	30
3.79667	30
3.80033	30
3.80400	30
3.80767	29
3.81133	29
3.81500	30
3.81867	30
3.82233	30
3.82600	30
3.82967	30
3.83333	30
3.83700	30
3.84067	29
3.84433	29
3.84800	30
3.85167	30
3.85533	30
3.85900	30
3.86267	30
3.86633	30
3.87000	30
3.87367	30
3.87733	30
3.88100	30
3.88467	30
3.88833	30
3.89200	30
3.89567	30
3.89933	30
3.90300	29
3.90667	29
3.91033	29
3.91400	30
3.91767	30
3.92133	30
3.92500	30
3.92867	30
3.93233	31
3.93600	31
3.93967	31
3.94333	31
3.94700	31
3.95067	31
3.95433	31
3.95800	31
3.96167	31
3.96533	31
3.96900	30
3.97267	30
3.97633	30
3.98000	30
3.98367	31
3.98733	31
3.99100	31
3.99467	31
3.99833	31

[Chromatogram (Ch3)]
Interval(msec)	220
# of Points	1091
Start Time(min)	0.002
End Time(min)	3.998
R.Time (min)	Intensity
0.00167	1
0.00533	-0
0.00900	-2
0.01267	-2
0.01633	-2
0.02000	-2
0.02367	-0
0.02733	3
0.03100	3
0.03467	3
0.03833	4
0.04200	6
0.04567	8
0.04933	7
0.05300	6
0.05667	4
0.06033	4
0.06400	4
0.06767	3
0.07133	0
0.07500	1
0.07867	1
0.08233	2
0.08600	3
0.08967	2
0.09333	0
0.09700	-2
0.10067	-2
0.10433	1
0.10800	4
0.11167	5
0.11533	6
0.11900	5
0.12267	5
0.12633	5
0.13000	9
0.13367	9
0.13733	8
0.14100	9
0.14467	10
0.14833	8
0.15200	5
0.15567	4
0.15933	5
0.16300	6
0.16667	5
0.17033	7
0.17400	8
0.17767	7
0.18133	7
0.18500	7
0.18867	5
0.19233	1
0.19600	-2
0.19967	-5
0.20333	-3
0.20700	0
0.21067	3
0.21433	7
0.21800	10
0.22167	9
0.22533	5
0.22900	4
0.23267	5
0.23633	7
0.24000	8
0.24367	7
0.24733	8
0.25100	6
0.25467	5
0.25833	4
0.26200	3
0.26567	4
0.26933	4
0.27300	1
0.27667	-2
0.28033	-5
0.28400	-6
0.28767	-7
0.29133	-7
0.29500	-6
0.29867	-5
0.30233	-4
0.30600	-5
0.30967	-7
0.31333	-7
0.31700	-9
0.32067	-9
0.32433	-7
0.32800	-5
0.33167	-3
0.33533	-3
0.33900	0
0.34267	5
0.34633	6
0.35000	5
0.35367	5
0.35733	4
0.36100	3
0.36467	0
0.36833	-4
0.37200	-6
0.37567	-3
0.37933	1
0.38300	5
0.38667	5
0.39033	4
0.39400	4
0.39767	5
0.40133	4
0.40500	3
0.40867	3
0.41233	4
0.41600	5
0.41967	7
0.42333	9
0.42700	10
0.43067	8
0.43433	6
0.43800	6
0.44167	6
0.44533	7
0.44900	6
0.45267	5
0.45633	7
0.46000	8
0.46367	6
0.46733	4
0.47100	2
0.47467	2
0.47833	-0
0.48200	0
0.48567	2
0.48933	3
0.49300	4
0.49667	5
0.50033	5
0.50400	5
0.50767	4
0.51133	3
0.51500	2
0.51867	3
0.52233	5
0.52600	4
0.52967	5
0.53333	4
0.53700	4
0.54067	6
0.54433	7
0.54800	6
0.55167	4
0.55533	2
0.55900	1
0.56267	1
0.56633	3
0.57000	6
0.57367	7
0.57733	9
0.58100	10
0.58467	12
0.58833	13
0.59200	14
0.59567	17
0.59933	15
0.60300	13
0.60667	11
0.61033	10
0.61400	9
0.61767	9
0.62133	10
0.62500	11
0.62867	10
0.63233	8
0.63600	6
0.63967	6
0.64333	7
0.64700	9
0.65067	11
0.65433	13
0.65800	17
0.66167	17
0.66533	15
0.66900	14
0.67267	10
0.67633	8
0.68000	5
0.68367	6
0.68733	8
0.69100	9
0.69467	11
0.69833	13
0.70200	15
0.70567	14
0.70933	13
0.71300	14
0.71667	14
0.72033	17
0.72400	16
0.72767	13
0.73133	11
0.73500	10
0.73867	7
0.74233	6
0.74600	6
0.74967	5
0.75333	3
0.75700	2
0.76067	4
0.76433	9
0.76800	10
0.77167	6
0.77533	4
0.77900	5
0.78267	3
0.78633	0
0.79000	-0
0.79367	3
0.79733	6
0.80100	7
0.80467	10
0.80833	9
0.81200	10
0.81567	12
0.81933	11
0.82300	7
0.82667	5
0.83033	3
0.83400	0
0.83767	0
0.84133	2
0.84500	4
0.84867	8
0.85233	11
0.85600	12
0.85967	11
0.86333	11
0.86700	11
0.87067	12
0.87433	11
0.87800	10
0.88167	9
0.88533	9
0.88900	11
0.89267	9
0.89633	5
0.90000	5
0.90367	5
0.90733	4
0.91100	8
0.91467	10
0.91833	10
0.92200	9
0.92567	10
0.92933	10
0.93300	10
0.93667	8
0.94033	9
0.94400	11
0.94767	12
0.95133	11
0.95500	9
0.95867	9
0.96233	9
0.96600	10
0.96967	10
0.97333	10
0.97700	12
0.98067	13
0.98433	13
0.98800	12
0.99167	14
0.99533	16
0.99900	15
1.00267	14
1.00633	14
1.01000	10
1.01367	7
1.01733	6
1.02100	8
1.02467	7
1.02833	4
1.03200	4
1.03567	5
1.03933	6
1.04300	7
1.04667	7
1.05033	8
1.05400	9
1.05767	9
1.06133	10
1.06500	11
1.06867	10
1.07233	10
1.07600	10
1.07967	13
1.08333	14
1.08700	15
1.09067	16
1.09433	13
1.09800	9
1.10167	8
1.10533	9
1.10900	11
1.11267	11
1.11633	9
1.12000	10
1.12367	12
1.12733	13
1.13100	13
1.13467	16
1.13833	16
1.14200	12
1.14567	10
1.14933	9
1.15300	10
1.15667	12
1.16033	11
1.16400	10
1.16767	10
1.17133	11
1.17500	12
1.17867	15
1.18233	18
1.18600	19
1.18967	19
1.19333	16
1.19700	12
1.20067	9
1.20433	11
1.20800	15
1.21167	18
1.21533	15
1.21900	15
1.22267	13
1.22633	14
1.23000	15
1.23367	17
1.23733	18
1.24100	18
1.24467	17
1.24833	16
1.25200	14
1.25567	12
1.25933	11
1.26300	12
1.26667	14
1.27033	16
1.27400	15
1.27767	12
1.28133	8
1.28500	9
1.28867	11
1.29233	11
1.29600	11
1.29967	14
1.30333	15
1.30700	14
1.31067	13
1.31433	14
1.31800	15
1.32167	15
1.32533	12
1.32900	8
1.33267	6
1.33633	7
1.34000	10
1.34367	14
1.34733	16
1.35100	16
1.35467	15
1.35833	17
1.36200	19
1.36567	20
1.36933	18
1.37300	18
1.37667	18
1.38033	17
1.38400	17
1.38767	16
1.39133	16
1.39500	18
1.39867	16
1.40233	17
1.40600	16
1.40967	16
1.41333	17
1.41700	19
1.42067	22
1.42433	25
1.42800	26
1.43167	25
1.43533	22
1.43900	18
1.44267	14
1.44633	13
1.45000	13
1.45367	16
1.45733	18
1.46100	17
1.46467	16
1.46833	16
1.47200	14
1.47567	12
1.47933	12
1.48300	12
1.48667	11
1.49033	14
1.49400	18
1.49767	19
1.50133	20
1.50500	20
1.50867	20
1.51233	18
1.51600	16
1.51967	15
1.52333	15
1.52700	15
1.53067	12
1.53433	9
1.53800	6
1.54167	3
1.54533	4
1.54900	7
1.55267	9
1.55633	10
1.56000	13
1.56367	16
1.56733	16
1.57100	18
1.57467	22
1.57833	23
1.58200	23
1.58567	21
1.58933	19
1.59300	19
1.59667	17
1.60033	18
1.60400	20
1.60767	18
1.61133	18
1.61500	16
1.61867	13
1.62233	13
1.62600	15
1.62967	17
1.63333	15
1.63700	13
1.64067	13
1.64433	13
1.64800	16
1.65167	18
1.65533	19
1.65900	20
1.66267	22
1.66633	23
1.67000	21
1.67367	21
1.67733	23
1.68100	23
1.68467	23
1.68833	22
1.69200	23
1.69567	23
1.69933	24
1.70300	25
1.70667	24
1.71033	24
1.71400	24
1.71767	23
1.72133	22
1.72500	22
1.72867	23
1.73233	24
1.73600	28
1.73967	29
1.74333	29
1.74700	28
1.75067	25
1.75433	22
1.75800	19
1.76167	17
1.76533	15
1.76900	19
1.77267	23
1.77633	25
1.78000	26
1.78367	27
1.78733	29
1.79100	29
1.79467	28
1.79833	27
1.80200	27
1.80567	26
1.80933	24
1.81300	23
1.81667	22
1.82033	23
1.82400	25
1.82767	26
1.83133	27
1.83500	26
1.83867	24
1.84233	24
1.84600	26
1.84967	28
1.85333	28
1.85700	30
1.86067	32
1.86433	33
1.86800	31
1.87167	31
1.87533	31
1.87900	31
1.88267	32
1.88633	34
1.89000	33
1.89367	34
1.89733	36
1.90100	36
1.90467	36
1.90833	37
1.91200	37
1.91567	41
1.91933	46
1.92300	47
1.92667	45
1.93033	41
1.93400	42
1.93767	45
1.94133	45
1.94500	43
1.94867	41
1.95233	42
1.95600	42
1.95967	41
1.96333	38
1.96700	36
1.97067	37
1.97433	37
1.97800	39
1.98167	44
1.98533	48
1.98900	49
1.99267	49
1.99633	51
2.00000	51
2.00367	49
2.00733	46
2.01100	45
2.01467	43
2.01833	41
2.02200	40
2.02567	41
2.02933	43
2.03300	45
2.03667	47
2.04033	51
2.04400	54
2.04767	55
2.05133	54
2.05500	52
2.05867	51
2.06233	52
2.06600	55
2.06967	54
2.07333	54
2.07700	56
2.08067	55
2.08433	56
2.08800	56
2.09167	55
2.09533	55
2.09900	56
2.10267	57
2.10633	58
2.11000	59
2.11367	59
2.11733	58
2.12100	57
2.12467	55
2.12833	53
2.13200	53
2.13567	55
2.13933	62
2.14300	65
2.14667	64
2.15033	62
2.15400	62
2.15767	61
2.16133	61
2.16500	62
2.16867	65
2.17233	66
2.17600	67
2.17967	67
2.18333	72
2.18700	75
2.19067	75
2.19433	74
2.19800	74
2.20167	74
2.20533	75
2.20900	74
2.21267	73
2.21633	73
2.22000	74
2.22367	75
2.22733	74
2.23100	73
2.23467	74
2.23833	77
2.24200	81
2.24567	82
2.24933	83
2.25300	84
2.25667	85
2.26033	85
2.26400	85
2.26767	86
2.27133	87
2.27500	88
2.27867	86
2.28233	86
2.28600	87
2.28967	91
2.29333	97
2.29700	98
2.30067	96
2.30433	95
2.30800	95
2.31167	95
2.31533	96
2.31900	94
2.32267	92
2.32633	93
2.33000	93
2.33367	92
2.33733	91
2.34100	95
2.34467	97
2.34833	95
2.35200	94
2.35567	93
2.35933	94
2.36300	95
2.36667	96
2.37033	97
2.37400	95
2.37767	92
2.38133	95
2.38500	95
2.38867	91
2.39233	93
2.39600	99
2.39967	105
2.40333	111
2.40700	116
2.41067	122
2.41433	127
2.41800	130
2.42167	128
2.42533	125
2.42900	124
2.43267	123
2.43633	120
2.44000	123
2.44367	161
2.44733	224
2.45100	274
2.45467	297
2.45833	296
2.46200	279
2.46567	263
2.46933	253
2.47300	241
2.47667	226
2.48033	207
2.48400	185
2.48767	163
2.49133	148
2.49500	138
2.49867	132
2.50233	132
2.50600	138
2.50967	145
2.51333	151
2.51700	153
2.52067	152
2.52433	143
2.52800	130
2.53167	119
2.53533	111
2.53900	100
2.54267	90
2.54633	82
2.55000	77
2.55367	74
2.55733	74
2.56100	76
2.56467	77
2.56833	76
2.57200	78
2.57567	85
2.57933	91
2.58300	96
2.58667	105
2.59033	114
2.59400	121
2.59767	127
2.60133	135
2.60500	139
2.60867	142
2.61233	143
2.61600	142
2.61967	138
2.62333	135
2.62700	128
2.63067	120
2.63433	112
2.63800	104
2.64167	97
2.64533	90
2.64900	85
2.65267	79
2.65633	74
2.66000	70
2.66367	67
2.66733	63
2.67100	59
2.67467	57
2.67833	58
2.68200	60
2.68567	60
2.68933	57
2.69300	54
2.69667	53
2.70033	54
2.70400	56
2.70767	57
2.71133	57
2.71500	57
2.71867	57
2.72233	60
2.72600	63
2.72967	66
2.73333	69
2.73700	71
2.74067	73
2.74433	76
2.74800	80
2.75167	85
2.75533	90
2.75900	93
2.76267	97
2.76633	99
2.77000	103
2.77367	105
2.77733	109
2.78100	114
2.78467	118
2.78833	123
2.79200	128
2.79567	135
2.79933	135
2.80300	131
2.80667	131
2.81033	132
2.81400	133
2.81767	135
2.82133	137
2.82500	138
2.82867	140
2.83233	142
2.83600	148
2.83967	163
2.84333	196
2.84700	256
2.85067	368
2.85433	547
2.85800	801
2.86167	1137
2.86533	1544
2.86900	2002
2.87267	2471
2.87633	2913
2.88000	3291
2.88367	3581
2.88733	3761
2.89100	3823
2.89467	3780
2.89833	3647
2.90200	3446
2.90567	3203
2.90933	2935
2.91300	2660
2.91667	2391
2.92033	2132
2.92400	1893
2.92767	1676
2.93133	1479
2.93500	1303
2.93867	1146
2.94233	1008
2.94600	885
2.94967	779
2.95333	688
2.95700	606
2.96067	534
2.96433	476
2.96800	426
2.97167	385
2.97533	348
2.97900	313
2.98267	280
2.98633	246
2.99000	222
2.99367	220
2.99733	247
3.00100	303
3.00467	377
3.00833	462
3.01200	547
3.01567	628
3.01933	699
3.02300	760
3.02667	815
3.03033	864
3.03400	901
3.03767	930
3.04133	952
3.04500	970
3.04867	985
3.05233	999
3.05600	1006
3.05967	1011
3.06333	1014
3.06700	1016
3.07067	1017
3.07433	1016
3.07800	1011
3.08167	1008
3.08533	1007
3.08900	1007
3.09267	1007
3.09633	1005
3.10000	1003
3.10367	1001
3.10733	995
3.11100	989
3.11467	988
3.11833	984
3.12200	981
3.12567	976
3.12933	970
3.13300	966
3.13667	965
3.14033	963
3.14400	960
3.14767	955
3.15133	952
3.15500	948
3.15867	944
3.16233	940
3.16600	933
3.16967	925
3.17333	919
3.17700	915
3.18067	913
3.18433	910
3.18800	905
3.19167	897
3.19533	890
3.19900	887
3.20267	883
3.20633	874
3.21000	866
3.21367	863
3.21733	862
3.22100	860
3.22467	855
3.22833	850
3.23200	845
3.23567	841
3.23933	837
3.24300	834
3.24667	828
3.25033	824
3.25400	822
3.25767	820
3.26133	816
3.26500	811
3.26867	805
3.27233	800
3.27600	798
3.27967	794
3.28333	790
3.28700	788
3.29067	786
3.29433	785
3.29800	782
3.30167	780
3.30533	777
3.30900	773
3.31267	769
3.31633	764
3.32000	757
3.32367	753
3.32733	751
3.33100	750
3.33467	749
3.33833	749
3.34200	747
3.34567	744
3.34933	742
3.35300	739
3.35667	737
3.36033	733
3.36400	727
3.36767	725
3.37133	726
3.37500	727
3.37867	724
3.38233	719
3.38600	717
3.38967	717
3.39333	716
3.39700	715
3.40067	715
3.40433	712
3.40800	711
3.41167	708
3.41533	705
3.41900	702
3.42267	699
3.42633	694
3.43000	691
3.43367	689
3.43733	684
3.44100	679
3.44467	678
3.44833	676
3.45200	671
3.45567	663
3.45933	657
3.46300	654
3.46667	651
3.47033	648
3.47400	645
3.47767	642
3.48133	640
3.48500	640
3.48867	637
3.49233	632
3.49600	629
3.49967	628
3.50333	628
3.50700	625
3.51067	622
3.51433	620
3.51800	617
3.52167	612
3.52533	609
3.52900	608
3.53267	605
3.53633	604
3.54000	603
3.54367	602
3.54733	601
3.55100	600
3.55467	598
3.55833	593
3.56200	590
3.56567	589
3.56933	587
3.57300	585
3.57667	585
3.58033	583
3.58400	582
3.58767	580
3.59133	580
3.59500	579
3.59867	577
3.60233	572
3.60600	566
3.60967	562
3.61333	560
3.61700	564
3.62067	567
3.62433	567
3.62800	563
3.63167	556
3.63533	553
3.63900	552
3.64267	551
3.64633	548
3.65000	548
3.65367	548
3.65733	549
3.66100	550
3.66467	549
3.66833	547
3.67200	543
3.67567	543
3.67933	543
3.68300	543
3.68667	542
3.69033	541
3.69400	540
3.69767	540
3.70133	539
3.70500	538
3.70867	537
3.71233	541
3.71600	544
3.71967	543
3.72333	538
3.72700	532
3.73067	529
3.73433	530
3.73800	533
3.74167	534
3.74533	535
3.74900	534
3.75267	532
3.75633	529
3.76000	528
3.76367	526
3.76733	526
3.77100	527
3.77467	527
3.77833	525
3.78200	523
3.78567	522
3.78933	523
3.79300	525
3.79667	525
3.80033	523
3.80400	521
3.80767	521
3.81133	519
3.81500	516
3.81867	513
3.82233	511
3.82600	509
3.82967	508
3.83333	507
3.83700	507
3.84067	509
3.84433	510
3.84800	512
3.85167	509
3.85533	505
3.85900	503
3.86267	504
3.86633	501
3.87000	497
3.87367	494
3.87733	495
3.88100	496
3.88467	496
3.88833	496
3.89200	496
3.89567	495
3.89933	494
3.90300	495
3.90667	494
3.91033	489
3.91400	487
3.91767	491
3.92133	493
3.92500	490
3.92867	488
3.93233	489
3.93600	489
3.93967	488
3.94333	487
3.94700	484
3.95067	480
3.95433	479
3.95800	475
3.96167	471
3.96533	467
3.96900	466
3.97267	468
3.97633	469
3.98000	470
3.98367	472
3.98733	471
3.99100	469
3.99467	466
3.99833	461

[Status Trace (Column Oven Temperature)]
Interval(msec)	1000
# of Points	240
Start Time(min)	0.013
End Time(min)	3.996
Intensity Units	
Intensity Multiplier	1
R.Time (min)	Intensity
0.01297	35.05
0.02963	35.05
0.04630	35.04
0.06297	35.04
0.07963	35.04
0.09630	35.04
0.11297	35.04
0.12963	35.04
0.14630	35.04
0.16297	35.04
0.17963	35.04
0.19630	35.04
0.21297	35.03
0.22963	35.03
0.24630	35.02
0.26297	35.02
0.27963	35.02
0.29630	35.01
0.31297	35.01
0.32963	35.01
0.34630	35.01
0.36297	35.00
0.37963	35.00
0.39630	35.01
0.41297	35.01
0.42963	35.02
0.44630	35.01
0.46297	35.00
0.47963	35.00
0.49630	35.01
0.51297	35.01
0.52963	35.01
0.54630	35.01
0.56297	35.01
0.57963	35.00
0.59630	35.00
0.61297	35.01
0.62963	35.00
0.64630	35.00
0.66297	35.00
0.67963	35.00
0.69630	35.00
0.71297	35.01
0.72963	35.01
0.74630	35.00
0.76297	34.99
0.77963	34.99
0.79630	35.00
0.81297	35.00
0.82963	35.00
0.84630	35.00
0.86297	34.99
0.87963	34.99
0.89630	34.99
0.91297	35.00
0.92963	34.99
0.94630	34.99
0.96297	34.99
0.97963	35.00
0.99630	34.99
1.01297	35.00
1.02963	34.99
1.04630	34.99
1.06297	34.99
1.07963	34.99
1.09630	34.99
1.11297	35.00
1.12963	34.99
1.14630	34.99
1.16297	34.99
1.17963	35.00
1.19630	35.00
1.21297	34.99
1.22963	35.00
1.24630	35.00
1.26297	34.99
1.27963	34.98
1.29630	34.99
1.31297	34.99
1.32963	34.99
1.34630	34.99
1.36297	34.99
1.37963	34.99
1.39630	35.00
1.41297	35.00
1.42963	35.00
1.44630	35.00
1.46297	34.99
1.47963	35.00
1.49630	35.00
1.51297	34.99
1.52963	34.99
1.54630	34.99
1.56297	34.99
1.57963	34.99
1.59630	35.01
1.61297	35.08
1.62963	35.22
1.64630	35.43
1.66297	35.69
1.67963	36.04
1.69630	36.41
1.71297	36.76
1.72963	37.10
1.74630	37.43
1.76297	37.74
1.77963	38.09
1.79630	38.42
1.81297	38.74
1.82963	39.07
1.84630	39.42
1.86297	39.76
1.87963	40.08
1.89630	40.40
1.91297	40.75
1.92963	41.08
1.94630	41.40
1.96297	41.73
1.97963	42.05
1.99630	42.36
2.01297	42.69
2.02963	43.02
2.04630	43.34
2.06297	43.67
2.07963	43.98
2.09630	44.31
2.11297	44.63
2.12963	44.96
2.14630	45.29
2.16297	45.61
2.17963	45.93
2.19630	46.27
2.21297	46.57
2.22963	46.90
2.24630	47.23
2.26297	47.59
2.27963	47.93
2.29630	48.25
2.31297	48.57
2.32963	48.91
2.34630	49.22
2.36297	49.53
2.37963	49.72
2.39630	49.78
2.41297	49.76
2.42963	49.77
2.44630	49.77
2.46297	49.78
2.47963	49.78
2.49630	49.80
2.51297	49.79
2.52963	49.81
2.54630	49.82
2.56297	49.81
2.57963	49.83
2.59630	49.83
2.61297	49.83
2.62963	49.84
2.64630	49.85
2.66297	49.85
2.67963	49.85
2.69630	49.86
2.71297	49.85
2.72963	49.85
2.74630	49.86
2.76297	49.86
2.77963	49.87
2.79630	49.88
2.81297	49.89
2.82963	49.92
2.84630	49.92
2.86297	49.93
2.87963	49.94
2.89630	49.95
2.91297	49.96
2.92963	49.98
2.94630	49.99
2.96297	50.00
2.97963	50.00
2.99630	50.01
3.01297	50.02
3.02963	50.03
3.04630	50.03
3.06297	50.04
3.07963	50.05
3.09630	50.06
3.11297	50.08
3.12963	50.08
3.14630	50.10
3.16297	50.10
3.17963	50.10
3.19630	50.10
3.21297	50.08
3.22963	50.06
3.24630	50.06
3.26297	50.05
3.27963	50.04
3.29630	50.04
3.31297	50.04
3.32963	50.04
3.34630	50.04
3.36297	50.04
3.37963	50.03
3.39630	50.04
3.41297	50.04
3.42963	50.05
3.44630	50.05
3.46297	50.05
3.47963	50.05
3.49630	50.05
3.51297	50.06
3.52963	50.06
3.54630	50.07
3.56297	50.08
3.57963	50.08
3.59630	50.08
3.61297	50.08
3.62963	50.08
3.64630	50.08
3.66297	50.07
3.67963	50.08
3.69630	50.07
3.71297	50.08
3.72963	50.08
3.74630	50.07
3.76297	50.08
3.77963	50.08
3.79630	50.08
3.81297	50.09
3.82963	50.08
3.84630	50.08
3.86297	50.08
3.87963	50.08
3.89630	50.09
3.91297	50.08
3.92963	50.08
3.94630	50.07
3.96297	50.07
3.97963	50.07
3.99630	50.06

[Status Trace (Injection Unit Temperature)]
Interval(msec)	1000
# of Points	240
Start Time(min)	0.013
End Time(min)	3.996
Intensity Units	
Intensity Multiplier	1
R.Time (min)	Intensity
0.01297	99.97
0.02963	99.98
0.04630	99.98
0.06297	99.98
0.07963	99.98
0.09630	99.98
0.11297	99.98
0.12963	99.98
0.14630	99.98
0.16297	99.98
0.17963	99.98
0.19630	99.98
0.21297	99.98
0.22963	99.98
0.24630	99.98
0.26297	99.98
0.27963	99.98
0.29630	99.98
0.31297	99.98
0.32963	99.98
0.34630	99.98
0.36297	99.98
0.37963	99.98
0.39630	99.98
0.41297	99.98
0.42963	99.98
0.44630	99.98
0.46297	99.98
0.47963	99.98
0.49630	99.98
0.51297	99.98
0.52963	99.98
0.54630	99.98
0.56297	99.98
0.57963	99.98
0.59630	99.98
0.61297	99.98
0.62963	99.98
0.64630	99.98
0.66297	99.98
0.67963	99.98
0.69630	99.98
0.71297	99.98
0.72963	99.98
0.74630	99.98
0.76297	99.98
0.77963	99.98
0.79630	99.98
0.81297	99.98
0.82963	99.98
0.84630	99.98
0.86297	99.98
0.87963	99.98
0.89630	99.97
0.91297	99.98
0.92963	99.98
0.94630	99.98
0.96297	99.98
0.97963	99.98
0.99630	99.98
1.01297	99.97
1.02963	99.98
1.04630	99.98
1.06297	99.98
1.07963	99.98
1.09630	99.98
1.11297	99.98
1.12963	99.98
1.14630	99.98
1.16297	99.98
1.17963	99.98
1.19630	99.98
1.21297	99.98
1.22963	99.98
1.24630	99.98
1.26297	99.98
1.27963	99.98
1.29630	99.98
1.31297	99.98
1.32963	99.98
1.34630	99.98
1.36297	99.98
1.37963	99.98
1.39630	99.98
1.41297	99.98
1.42963	99.98
1.44630	99.98
1.46297	99.98
1.47963	99.98
1.49630	99.98
1.51297	99.98
1.52963	99.98
1.54630	99.98
1.56297	99.98
1.57963	99.99
1.59630	99.99
1.61297	99.98
1.62963	99.99
1.64630	99.98
1.66297	99.98
1.67963	99.98
1.69630	99.98
1.71297	99.99
1.72963	99.98
1.74630	99.98
1.76297	99.98
1.77963	99.98
1.79630	99.98
1.81297	99.98
1.82963	99.98
1.84630	99.98
1.86297	99.98
1.87963	99.97
1.89630	99.98
1.91297	99.97
1.92963	99.97
1.94630	99.97
1.96297	99.97
1.97963	99.97
1.99630	99.97
2.01297	99.97
2.02963	99.97
2.04630	99.96
2.06297	99.96
2.07963	99.96
2.09630	99.96
2.11297	99.96
2.12963	99.96
2.14630	99.96
2.16297	99.96
2.17963	99.96
2.19630	99.95
2.21297	99.96
2.22963	99.96
2.24630	99.96
2.26297	99.96
2.27963	99.96
2.29630	99.96
2.31297	99.96
2.32963	99.96
2.34630	99.96
2.36297	99.96
2.37963	99.96
2.39630	99.96
2.41297	99.96
2.42963	99.96
2.44630	99.96
2.46297	99.96
2.47963	99.96
2.49630	99.96
2.51297	99.96
2.52963	99.97
2.54630	99.97
2.56297	99.97
2.57963	99.97
2.59630	99.97
2.61297	99.97
2.62963	99.97
2.64630	99.98
2.66297	99.98
2.67963	99.98
2.69630	99.98
2.71297	99.98
2.72963	99.98
2.74630	99.99
2.76297	99.99
2.77963	99.99
2.79630	99.99
2.81297	99.99
2.82963	99.99
2.84630	100.00
2.86297	100.00
2.87963	100.00
2.89630	100.00
2.91297	100.00
2.92963	100.00
2.94630	100.00
2.96297	100.01
2.97963	100.01
2.99630	100.01
3.01297	100.01
3.02963	100.00
3.04630	100.01
3.06297	100.01
3.07963	100.01
3.09630	100.01
3.11297	100.01
3.12963	100.01
3.14630	100.02
3.16297	100.02
3.17963	100.02
3.19630	100.02
3.21297	100.01
3.22963	100.02
3.24630	100.02
3.26297	100.02
3.27963	100.02
3.29630	100.02
3.31297	100.02
3.32963	100.02
3.34630	100.03
3.36297	100.02
3.37963	100.03
3.39630	100.03
3.41297	100.03
3.42963	100.03
3.44630	100.03
3.46297	100.03
3.47963	100.03
3.49630	100.03
3.51297	100.03
3.52963	100.03
3.54630	100.04
3.56297	100.03
3.57963	100.03
3.59630	100.03
3.61297	100.03
3.62963	100.04
3.64630	100.04
3.66297	100.04
3.67963	100.04
3.69630	100.04
3.71297	100.04
3.72963	100.04
3.74630	100.04
3.76297	100.04
3.77963	100.04
3.79630	100.04
3.81297	100.04
3.82963	100.04
3.84630	100.04
3.86297	100.05
3.87963	100.04
3.89630	100.04
3.91297	100.05
3.92963	100.05
3.94630	100.05
3.96297	100.05
3.97963	100.05
3.99630	100.05

[Status Trace (Carrier Gas Pressure)]
Interval(msec)	1000
# of Points	240
Start Time(min)	0.013
End Time(min)	3.996
Intensity Units	
Intensity Multiplier	1
R.Time (min)	Intensity
0.01297	57.90
0.02963	54.93
0.04630	57.73
0.06297	59.76
0.07963	58.95
0.09630	58.00
0.11297	57.99
0.12963	58.01
0.14630	58.01
0.16297	58.00
0.17963	58.00
0.19630	58.00
0.21297	58.00
0.22963	58.00
0.24630	58.00
0.26297	58.00
0.27963	58.00
0.29630	58.00
0.31297	58.00
0.32963	58.00
0.34630	58.00
0.36297	58.00
0.37963	58.00
0.39630	58.00
0.41297	58.00
0.42963	58.00
0.44630	58.00
0.46297	58.00
0.47963	58.00
0.49630	58.00
0.51297	58.00
0.52963	58.00
0.54630	58.00
0.56297	58.00
0.57963	58.00
0.59630	58.00
0.61297	58.00
0.62963	58.00
0.64630	58.00
0.66297	58.00
0.67963	58.00
0.69630	58.00
0.71297	58.00
0.72963	58.00
0.74630	58.00
0.76297	58.00
0.77963	58.00
0.79630	58.00
0.81297	58.00
0.82963	58.00
0.84630	58.00
0.86297	58.00
0.87963	58.00
0.89630	58.00
0.91297	58.00
0.92963	58.00
0.94630	58.00
0.96297	58.00
0.97963	58.00
0.99630	58.00
1.01297	58.00
1.02963	58.00
1.04630	58.00
1.06297	58.00
1.07963	58.00
1.09630	58.00
1.11297	58.00
1.12963	58.00
1.14630	58.00
1.16297	58.00
1.17963	58.00
1.19630	58.00
1.21297	58.00
1.22963	58.00
1.24630	58.00
1.26297	58.00
1.27963	58.00
1.29630	58.00
1.31297	58.00
1.32963	58.00
1.34630	58.00
1.36297	58.00
1.37963	58.00
1.39630	58.00
1.41297	58.00
1.42963	58.00
1.44630	58.00
1.46297	58.00
1.47963	58.00
1.49630	58.00
1.51297	58.00
1.52963	58.00
1.54630	58.00
1.56297	58.00
1.57963	58.00
1.59630	58.00
1.61297	58.00
1.62963	58.00
1.64630	58.00
1.66297	58.00
1.67963	58.01
1.69630	58.00
1.71297	58.00
1.72963	58.00
1.74630	58.00
1.76297	58.00
1.77963	58.00
1.79630	58.00
1.81297	58.00
1.82963	58.00
1.84630	58.00
1.86297	58.00
1.87963	58.00
1.89630	58.00
1.91297	58.00
1.92963	58.00
1.94630	58.00
1.96297	58.00
1.97963	58.00
1.99630	58.00
2.01297	58.00
2.02963	58.00
2.04630	58.00
2.06297	58.00
2.07963	58.00
2.09630	58.00
2.11297	58.00
2.12963	58.00
2.14630	58.00
2.16297	58.00
2.17963	58.00
2.19630	58.00
2.21297	58.00
2.22963	58.00
2.24630	58.00
2.26297	58.00
2.27963	58.00
2.29630	58.00
2.31297	58.00
2.32963	58.00
2.34630	58.00
2.36297	58.00
2.37963	57.99
2.39630	57.99
2.41297	58.00
2.42963	58.00
2.44630	58.00
2.46297	58.00
2.47963	58.00
2.49630	58.00
2.51297	57.99
2.52963	57.99
2.54630	58.00
2.56297	58.00
2.57963	58.00
2.59630	58.00
2.61297	58.00
2.62963	58.00
2.64630	58.00
2.66297	58.00
2.67963	58.00
2.69630	58.00
2.71297	58.00
2.72963	58.00
2.74630	58.00
2.76297	58.00
2.77963	58.00
2.79630	58.00
2.81297	58.00
2.82963	58.00
2.84630	58.00
2.86297	58.00
2.87963	58.00
2.89630	58.00
2.91297	58.00
2.92963	58.00
2.94630	58.00
2.96297	58.00
2.97963	58.00
2.99630	58.00
3.01297	58.00
3.02963	58.00
3.04630	58.00
3.06297	58.00
3.07963	58.00
3.09630	58.00
3.11297	58.00
3.12963	58.00
3.14630	58.00
3.16297	58.00
3.17963	58.00
3.19630	58.00
3.21297	58.00
3.22963	58.00
3.24630	58.00
3.26297	58.00
3.27963	58.00
3.29630	58.00
3.31297	58.00
3.32963	58.00
3.34630	58.00
3.36297	58.00
3.37963	58.00
3.39630	58.00
3.41297	58.00
3.42963	58.00
3.44630	58.00
3.46297	58.00
3.47963	58.00
3.49630	58.00
3.51297	58.00
3.52963	58.00
3.54630	58.00
3.56297	58.00
3.57963	58.00
3.59630	58.00
3.61297	58.00
3.62963	58.00
3.64630	58.00
3.66297	58.00
3.67963	58.00
3.69630	58.00
3.71297	58.00
3.72963	58.00
3.74630	58.00
3.76297	58.00
3.77963	58.00
3.79630	58.00
3.81297	58.00
3.82963	58.00
3.84630	58.00
3.86297	58.00
3.87963	58.00
3.89630	58.00
3.91297	58.00
3.92963	58.00
3.94630	58.00
3.96297	58.00
3.97963	58.00
3.99630	58.00

[Status Trace (Carrier Gas Flow)]
Interval(msec)	1000
# of Points	240
Start Time(min)	0.013
End Time(min)	3.996
Intensity Units	
Intensity Multiplier	1
R.Time (min)	Intensity
0.01297	34.67
0.02963	34.54
0.04630	34.55
0.06297	34.53
0.07963	34.51
0.09630	34.52
0.11297	34.52
0.12963	34.52
0.14630	34.52
0.16297	34.52
0.17963	34.52
0.19630	34.52
0.21297	34.52
0.22963	34.53
0.24630	34.52
0.26297	34.52
0.27963	34.51
0.29630	34.52
0.31297	34.52
0.32963	34.52
0.34630	34.52
0.36297	34.52
0.37963	34.52
0.39630	34.52
0.41297	34.52
0.42963	34.51
0.44630	34.52
0.46297	34.53
0.47963	34.52
0.49630	34.52
0.51297	34.52
0.52963	34.52
0.54630	34.52
0.56297	34.52
0.57963	34.52
0.59630	34.52
0.61297	34.51
0.62963	34.53
0.64630	34.52
0.66297	34.52
0.67963	34.52
0.69630	34.52
0.71297	34.52
0.72963	34.51
0.74630	34.52
0.76297	34.52
0.77963	34.52
0.79630	34.52
0.81297	34.52
0.82963	34.51
0.84630	34.52
0.86297	34.52
0.87963	34.52
0.89630	34.52
0.91297	34.52
0.92963	34.52
0.94630	34.51
0.96297	34.52
0.97963	34.52
0.99630	34.52
1.01297	34.52
1.02963	34.52
1.04630	34.52
1.06297	34.52
1.07963	34.52
1.09630	34.52
1.11297	34.52
1.12963	34.52
1.14630	34.52
1.16297	34.52
1.17963	34.52
1.19630	34.51
1.21297	34.52
1.22963	34.52
1.24630	34.52
1.26297	34.52
1.27963	34.52
1.29630	34.52
1.31297	34.52
1.32963	34.52
1.34630	34.52
1.36297	34.51
1.37963	34.52
1.39630	34.52
1.41297	34.52
1.42963	34.52
1.44630	34.52
1.46297	34.52
1.47963	34.52
1.49630	34.52
1.51297	34.52
1.52963	34.52
1.54630	34.52
1.56297	34.52
1.57963	34.52
1.59630	34.53
1.61297	34.51
1.62963	34.52
1.64630	34.52
1.66297	34.51
1.67963	34.52
1.69630	34.52
1.71297	34.52
1.72963	34.52
1.74630	34.52
1.76297	34.52
1.77963	34.52
1.79630	34.51
1.81297	34.52
1.82963	34.52
1.84630	34.52
1.86297	34.52
1.87963	34.52
1.89630	34.52
1.91297	34.52
1.92963	34.52
1.94630	34.52
1.96297	34.52
1.97963	34.52
1.99630	34.52
2.01297	34.52
2.02963	34.52
2.04630	34.52
2.06297	34.53
2.07963	34.52
2.09630	34.51
2.11297	34.52
2.12963	34.52
2.14630	34.52
2.16297	34.52
2.17963	34.51
2.19630	34.52
2.21297	34.52
2.22963	34.52
2.24630	34.52
2.26297	34.52
2.27963	34.51
2.29630	34.53
2.31297	34.52
2.32963	34.52
2.34630	34.52
2.36297	34.52
2.37963	34.51
2.39630	34.52
2.41297	34.52
2.42963	34.52
2.44630	34.52
2.46297	34.52
2.47963	34.52
2.49630	34.52
2.51297	34.51
2.52963	34.52
2.54630	34.51
2.56297	34.52
2.57963	34.52
2.59630	34.52
2.61297	34.52
2.62963	34.52
2.64630	34.52
2.66297	34.52
2.67963	34.52
2.69630	34.51
2.71297	34.51
2.72963	34.52
2.74630	34.52
2.76297	34.52
2.77963	34.52
2.79630	34.52
2.81297	34.52
2.82963	34.52
2.84630	34.52
2.86297	34.52
2.87963	34.52
2.89630	34.52
2.91297	34.51
2.92963	34.52
2.94630	34.52
2.96297	34.52
2.97963	34.52
2.99630	34.51
3.01297	34.52
3.02963	34.52
3.04630	34.52
3.06297	34.51
3.07963	34.52
3.09630	34.52
3.11297	34.52
3.12963	34.52
3.14630	34.53
3.16297	34.52
3.17963	34.51
3.19630	34.52
3.21297	34.51
3.22963	34.52
3.24630	34.52
3.26297	34.52
3.27963	34.51
3.29630	34.51
3.31297	34.53
3.32963	34.52
3.34630	34.52
3.36297	34.52
3.37963	34.52
3.39630	34.53
3.41297	34.52
3.42963	34.52
3.44630	34.52
3.46297	34.52
3.47963	34.51
3.49630	34.52
3.51297	34.52
3.52963	34.52
3.54630	34.52
3.56297	34.52
3.57963	34.52
3.59630	34.52
3.61297	34.51
3.62963	34.52
3.64630	34.51
3.66297	34.52
3.67963	34.53
3.69630	34.52
3.71297	34.52
3.72963	34.52
3.74630	34.52
3.76297	34.52
3.77963	34.52
3.79630	34.52
3.81297	34.52
3.82963	34.52
3.84630	34.52
3.86297	34.52
3.87963	34.51
3.89630	34.52
3.91297	34.52
3.92963	34.52
3.94630	34.52
3.96297	34.52
3.97963	34.52
3.99630	34.51

[Status Trace (Column Flow)]
Interval(msec)	1000
# of Points	240
Start Time(min)	0.013
End Time(min)	3.996
Intensity Units	
Intensity Multiplier	1
R.Time (min)	Intensity
0.01297	5.49
0.02963	5.15
0.04630	5.47
0.06297	5.71
0.07963	5.61
0.09630	5.50
0.11297	5.50
0.12963	5.51
0.14630	5.50
0.16297	5.50
0.17963	5.50
0.19630	5.50
0.21297	5.50
0.22963	5.50
0.24630	5.50
0.26297	5.50
0.27963	5.50
0.29630	5.50
0.31297	5.50
0.32963	5.50
0.34630	5.50
0.36297	5.50
0.37963	5.50
0.39630	5.50
0.41297	5.50
0.42963	5.50
0.44630	5.51
0.46297	5.51
0.47963	5.51
0.49630	5.50
0.51297	5.50
0.52963	5.50
0.54630	5.50
0.56297	5.50
0.57963	5.51
0.59630	5.50
0.61297	5.50
0.62963	5.50
0.64630	5.51
0.66297	5.51
0.67963	5.51
0.69630	5.51
0.71297	5.50
0.72963	5.50
0.74630	5.51
0.76297	5.51
0.77963	5.51
0.79630	5.51
0.81297	5.50
0.82963	5.51
0.84630	5.50
0.86297	5.51
0.87963	5.51
0.89630	5.51
0.91297	5.50
0.92963	5.51
0.94630	5.51
0.96297	5.51
0.97963	5.50
0.99630	5.51
1.01297	5.51
1.02963	5.51
1.04630	5.51
1.06297	5.51
1.07963	5.51
1.09630	5.51
1.11297	5.51
1.12963	5.51
1.14630	5.51
1.16297	5.51
1.17963	5.51
1.19630	5.51
1.21297	5.51
1.22963	5.51
1.24630	5.51
1.26297	5.51
1.27963	5.51
1.29630	5.51
1.31297	5.51
1.32963	5.51
1.34630	5.51
1.36297	5.51
1.37963	5.51
1.39630	5.51
1.41297	5.51
1.42963	5.51
1.44630	5.51
1.46297	5.51
1.47963	5.51
1.49630	5.51
1.51297	5.51
1.52963	5.51
1.54630	5.51
1.56297	5.51
1.57963	5.51
1.59630	5.50
1.61297	5.50
1.62963	5.50
1.64630	5.49
1.66297	5.48
1.67963	5.47
1.69630	5.46
1.71297	5.45
1.72963	5.44
1.74630	5.43
1.76297	5.42
1.77963	5.41
1.79630	5.40
1.81297	5.39
1.82963	5.38
1.84630	5.37
1.86297	5.36
1.87963	5.35
1.89630	5.34
1.91297	5.33
1.92963	5.32
1.94630	5.31
1.96297	5.30
1.97963	5.29
1.99630	5.28
2.01297	5.27
2.02963	5.26
2.04630	5.25
2.06297	5.24
2.07963	5.23
2.09630	5.22
2.11297	5.21
2.12963	5.21
2.14630	5.20
2.16297	5.19
2.17963	5.18
2.19630	5.17
2.21297	5.16
2.22963	5.15
2.24630	5.14
2.26297	5.13
2.27963	5.12
2.29630	5.11
2.31297	5.10
2.32963	5.09
2.34630	5.08
2.36297	5.08
2.37963	5.07
2.39630	5.07
2.41297	5.07
2.42963	5.07
2.44630	5.07
2.46297	5.07
2.47963	5.07
2.49630	5.07
2.51297	5.07
2.52963	5.07
2.54630	5.07
2.56297	5.07
2.57963	5.07
2.59630	5.07
2.61297	5.07
2.62963	5.07
2.64630	5.07
2.66297	5.07
2.67963	5.07
2.69630	5.07
2.71297	5.07
2.72963	5.07
2.74630	5.07
2.76297	5.07
2.77963	5.07
2.79630	5.07
2.81297	5.07
2.82963	5.07
2.84630	5.07
2.86297	5.07
2.87963	5.06
2.89630	5.06
2.91297	5.06
2.92963	5.06
2.94630	5.06
2.96297	5.06
2.97963	5.06
2.99630	5.06
3.01297	5.06
3.02963	5.06
3.04630	5.06
3.06297	5.06
3.07963	5.06
3.09630	5.06
3.11297	5.06
3.12963	5.06
3.14630	5.06
3.16297	5.06
3.17963	5.06
3.19630	5.06
3.21297	5.06
3.22963	5.06
3.24630	5.06
3.26297	5.06
3.27963	5.06
3.29630	5.06
3.31297	5.06
3.32963	5.06
3.34630	5.06
3.36297	5.06
3.37963	5.06
3.39630	5.06
3.41297	5.06
3.42963	5.06
3.44630	5.06
3.46297	5.06
3.47963	5.06
3.49630	5.06
3.51297	5.06
3.52963	5.06
3.54630	5.06
3.56297	5.06
3.57963	5.06
3.59630	5.06
3.61297	5.06
3.62963	5.06
3.64630	5.06
3.66297	5.06
3.67963	5.06
3.69630	5.06
3.71297	5.06
3.72963	5.06
3.74630	5.06
3.76297	5.06
3.77963	5.06
3.79630	5.06
3.81297	5.06
3.82963	5.06
3.84630	5.06
3.86297	5.06
3.87963	5.06
3.89630	5.06
3.91297	5.06
3.92963	5.06
3.94630	5.06
3.96297	5.06
3.97963	5.06
3.99630	5.06

[Status Trace (Linear Velocity)]
Interval(msec)	1000
# of Points	240
Start Time(min)	0.013
End Time(min)	3.996
Intensity Units	
Intensity Multiplier	1
R.Time (min)	Intensity
0.01297	38.94
0.02963	37.00
0.04630	38.83
0.06297	40.16
0.07963	39.63
0.09630	39.01
0.11297	39.00
0.12963	39.02
0.14630	39.01
0.16297	39.01
0.17963	39.01
0.19630	39.01
0.21297	39.01
0.22963	39.01
0.24630	39.01
0.26297	39.01
0.27963	39.01
0.29630	39.01
0.31297	39.01
0.32963	39.01
0.34630	39.01
0.36297	39.01
0.37963	39.01
0.39630	39.01
0.41297	39.01
0.42963	39.01
0.44630	39.01
0.46297	39.01
0.47963	39.01
0.49630	39.01
0.51297	39.01
0.52963	39.01
0.54630	39.01
0.56297	39.01
0.57963	39.01
0.59630	39.01
0.61297	39.01
0.62963	39.01
0.64630	39.01
0.66297	39.01
0.67963	39.01
0.69630	39.01
0.71297	39.01
0.72963	39.01
0.74630	39.01
0.76297	39.01
0.77963	39.01
0.79630	39.01
0.81297	39.01
0.82963	39.01
0.84630	39.01
0.86297	39.01
0.87963	39.01
0.89630	39.01
0.91297	39.01
0.92963	39.01
0.94630	39.01
0.96297	39.01
0.97963	39.01
0.99630	39.01
1.01297	39.01
1.02963	39.01
1.04630	39.01
1.06297	39.01
1.07963	39.01
1.09630	39.01
1.11297	39.01
1.12963	39.01
1.14630	39.01
1.16297	39.01
1.17963	39.01
1.19630	39.01
1.21297	39.01
1.22963	39.01
1.24630	39.01
1.26297	39.01
1.27963	39.01
1.29630	39.01
1.31297	39.01
1.32963	39.01
1.34630	39.01
1.36297	39.01
1.37963	39.01
1.39630	39.01
1.41297	39.01
1.42963	39.01
1.44630	39.01
1.46297	39.01
1.47963	39.01
1.49630	39.01
1.51297	39.01
1.52963	39.01
1.54630	39.01
1.56297	39.01
1.57963	39.01
1.59630	39.01
1.61297	39.01
1.62963	38.99
1.64630	38.97
1.66297	38.95
1.67963	38.92
1.69630	38.88
1.71297	38.84
1.72963	38.81
1.74630	38.78
1.76297	38.75
1.77963	38.72
1.79630	38.69
1.81297	38.66
1.82963	38.63
1.84630	38.59
1.86297	38.56
1.87963	38.53
1.89630	38.50
1.91297	38.47
1.92963	38.44
1.94630	38.41
1.96297	38.38
1.97963	38.35
1.99630	38.32
2.01297	38.29
2.02963	38.26
2.04630	38.23
2.06297	38.20
2.07963	38.17
2.09630	38.14
2.11297	38.11
2.12963	38.08
2.14630	38.05
2.16297	38.02
2.17963	37.99
2.19630	37.96
2.21297	37.93
2.22963	37.91
2.24630	37.88
2.26297	37.84
2.27963	37.81
2.29630	37.79
2.31297	37.76
2.32963	37.73
2.34630	37.70
2.36297	37.67
2.37963	37.65
2.39630	37.64
2.41297	37.65
2.42963	37.65
2.44630	37.65
2.46297	37.65
2.47963	37.65
2.49630	37.65
2.51297	37.64
2.52963	37.64
2.54630	37.65
2.56297	37.65
2.57963	37.64
2.59630	37.64
2.61297	37.64
2.62963	37.64
2.64630	37.64
2.66297	37.64
2.67963	37.64
2.69630	37.64
2.71297	37.64
2.72963	37.64
2.74630	37.64
2.76297	37.64
2.77963	37.64
2.79630	37.64
2.81297	37.64
2.82963	37.64
2.84630	37.64
2.86297	37.64
2.87963	37.63
2.89630	37.63
2.91297	37.63
2.92963	37.63
2.94630	37.63
2.96297	37.63
2.97963	37.63
2.99630	37.63
3.01297	37.63
3.02963	37.63
3.04630	37.63
3.06297	37.63
3.07963	37.62
3.09630	37.62
3.11297	37.62
3.12963	37.62
3.14630	37.62
3.16297	37.62
3.17963	37.62
3.19630	37.62
3.21297	37.62
3.22963	37.62
3.24630	37.62
3.26297	37.62
3.27963	37.63
3.29630	37.63
3.31297	37.63
3.32963	37.62
3.34630	37.63
3.36297	37.63
3.37963	37.63
3.39630	37.63
3.41297	37.63
3.42963	37.62
3.44630	37.62
3.46297	37.62
3.47963	37.62
3.49630	37.62
3.51297	37.62
3.52963	37.62
3.54630	37.62
3.56297	37.62
3.57963	37.62
3.59630	37.62
3.61297	37.62
3.62963	37.62
3.64630	37.62
3.66297	37.62
3.67963	37.62
3.69630	37.62
3.71297	37.62
3.72963	37.62
3.74630	37.62
3.76297	37.62
3.77963	37.62
3.79630	37.62
3.81297	37.62
3.82963	37.62
3.84630	37.62
3.86297	37.62
3.87963	37.62
3.89630	37.62
3.91297	37.62
3.92963	37.62
3.94630	37.62
3.96297	37.62
3.97963	37.62
3.99630	37.62

