[Header]
Application Name	LabSolutions
Version	5.110
Data File Name	C:\Users\User\Desktop\Junior\UIC Prairie Sampling\7.18.23\071823_015.gcd
Output Date	8/29/2023
Output Time	10:40:20 AM

[File Information]
Type	Data File
Generated	8/28/2023 3:51:51 PM
Generated by	System Administrator
Modified	8/28/2023 3:58:29 PM
Modified by	System Administrator

[Sample Information]
Operator Name	System Administrator
Acquired	8/28/2023 3:54:28 PM
Sample Type	0:Unknown
Level	0
Sample Name	015
Sample ID	015
ISTD Amount1	1
ISTD Amount2	1
ISTD Amount3	1
ISTD Amount4	1
ISTD Amount5	1
ISTD Amount6	1
ISTD Amount7	1
ISTD Amount8	1
ISTD Amount9	1
ISTD Amount10	1
ISTD Amount11	1
ISTD Amount12	1
ISTD Amount13	1
ISTD Amount14	1
ISTD Amount15	1
ISTD Amount16	1
ISTD Amount17	1
ISTD Amount18	1
ISTD Amount19	1
ISTD Amount20	1
ISTD Amount21	1
ISTD Amount22	1
ISTD Amount23	1
ISTD Amount24	1
ISTD Amount25	1
ISTD Amount26	1
ISTD Amount27	1
ISTD Amount28	1
ISTD Amount29	1
ISTD Amount30	1
ISTD Amount31	1
ISTD Amount32	1
Sample Amount	1
Dilution Factor	1
Vial#	14
Injection Volume	1
Injection Count	1
Bar Code	

[Original Files]
Data File	C:\Users\User\Desktop\Junior\UIC Prairie Sampling\7.18.23\071823_015.gcd
Method File	C:\LabSolutions\Data\GHG_4min_2022\ghg3_togas_w_acet_4 min_new_int.gcm
Batch File	C:\LabSolutions\Data\BATCH FILES\071823.gcb
Report Format File	c:\LabSolutions\System\DEFAULT.lsr

[File Description]


[Configuration]
Instrument Name	C0B7VH3-Instrument1
Instrument #	1
Line #	1
# of Detectors	3
Detector ID	DET#1	DET#2	DET#3
Detector Name	FID	PTCD	ECD
# of Channels	1	1	1

[Peak Table(Ch1)]
# of Peaks	3
Peak#	R.Time	I.Time	F.Time	Area	Height	A/H	Conc.	Mark	ID#	Name	k'	Plate #	Plate Ht.	Tailing	Resolution	Sep.Factor	Area Ratio	Height Ratio	Conc. %	Norm Conc.
1	1.479	1.461	1.527	581	301	1.932	0.000	   	1	CO	0.000	12135	12.361	0.000	0.000	0.000	0	0	0.000	0.000
2	1.564	1.527	1.685	20471	10399	1.968	99.800	 V 	2	CH4	0.057	11623	12.906	1.172	1.510	0.000	0	0	20.296	20.296
3	1.989	1.934	2.638	2033596	975097	2.086	391.911	   	3	CO2	0.345	17505	8.569	1.312	7.200	6.043	0	0	79.704	79.704

[Peak Table(Ch2)]
# of Peaks	0

[Peak Table(Ch3)]
# of Peaks	4
Peak#	R.Time	I.Time	F.Time	Area	Height	A/H	Conc.	Mark	ID#	Name	k'	Plate #	Plate Ht.	Tailing	Resolution	Sep.Factor	Area Ratio	Height Ratio	Conc. %	Norm Conc.
1	2.458	2.389	2.561	1086	232	4.677	0.000	   			0.000	10277	14.596	0.000	0.000	0.000	0	0	0.000	0.000
2	2.605	2.561	2.675	428	110	3.875	0.000	 V 			0.060	6528	22.978	0.000	1.298	0.000	0	0	0.000	0.000
3	2.891	2.829	3.001	44044	11846	3.718	0.652	   	1	N2O	0.176	13126	11.427	1.572	2.488	2.950	0	0	100.000	100.000
4	3.063	3.005	3.742	16458	813	20.253	0.000	   	2	SF6	0.246	447	335.594	5.986	0.506	1.398	0	0	0.000	0.000

[Compound Results(Ch1)]
# of IDs	6
ID#	Name	R.Time	Area	Height	Conc.	Curve	3rd	2nd	1st	Constant	Area Ratio	Height Ratio	Conc. %	Norm Conc.
1	CO	1.479	581	301	0.000	Linear	0.000000e+00	0.000000e+00	0.000000e+00	0.000000e+00	0	0	0.000	0.000
2	CH4	1.564	20471	10399	99.800	Linear	0.000000e+00	0.000000e+00	2.051179e+002	0.000000e+00	0	0	20.296	20.296
3	CO2	1.989	2033596	975097	391.911	Linear	0.000000e+00	0.000000e+00	5.188919e+003	0.000000e+00	0	0	79.704	79.704
4	Ethylene	0.000	0	0	0.000	Linear	0.000000e+00	0.000000e+00	0.000000e+00	0.000000e+00	0	0	0.000	0.000
5	Acetylene	0.000	0	0	0.000	Linear	0.000000e+00	0.000000e+00	0.000000e+00	0.000000e+00	0	0	0.000	0.000
6	Ethane	0.000	0	0	0.000	Linear	0.000000e+00	0.000000e+00	0.000000e+00	0.000000e+00	0	0	0.000	0.000

[Compound Results(Ch2)]
# of IDs	5
ID#	Name	R.Time	Area	Height	Conc.	Curve	3rd	2nd	1st	Constant	Area Ratio	Height Ratio	Conc. %	Norm Conc.
1	Hydrogen	0.000	0	0	0.000	Linear	0.000000e+00	0.000000e+00	0.000000e+00	0.000000e+00	0	0	0.000	0.000
2	Oxygen	0.000	0	0	0.000	Linear	0.000000e+00	0.000000e+00	0.000000e+00	0.000000e+00	0	0	0.000	0.000
3	Nitrogen	0.000	0	0	0.000	Linear	0.000000e+00	0.000000e+00	0.000000e+00	0.000000e+00	0	0	0.000	0.000
4	Methane	0.000	0	0	0.000	Linear	0.000000e+00	0.000000e+00	0.000000e+00	0.000000e+00	0	0	0.000	0.000
5	Carbon Monoxide	0.000	0	0	0.000	Linear	0.000000e+00	0.000000e+00	0.000000e+00	0.000000e+00	0	0	0.000	0.000

[Compound Results(Ch3)]
# of IDs	2
ID#	Name	R.Time	Area	Height	Conc.	Curve	3rd	2nd	1st	Constant	Area Ratio	Height Ratio	Conc. %	Norm Conc.
1	N2O	2.891	44044	11846	0.652	Linear	0.000000e+00	0.000000e+00	6.759880e+004	0.000000e+00	0	0	100.000	100.000
2	SF6	3.063	16458	813	0.000	Linear	0.000000e+00	0.000000e+00	0.000000e+00	0.000000e+00	0	0	0.000	0.000

[Group Results(Ch1)]
# of Groups	0

[Group Results(Ch2)]
# of Groups	0

[Group Results(Ch3)]
# of Groups	0

[Chromatogram (Ch1)]
Interval(msec)	220
# of Points	1091
Start Time(min)	0.002
End Time(min)	3.998
R.Time (min)	Intensity
0.00167	17
0.00533	12
0.00900	8
0.01267	7
0.01633	8
0.02000	11
0.02367	14
0.02733	13
0.03100	9
0.03467	6
0.03833	2
0.04200	-2
0.04567	-1
0.04933	5
0.05300	13
0.05667	19
0.06033	21
0.06400	20
0.06767	19
0.07133	18
0.07500	18
0.07867	18
0.08233	19
0.08600	22
0.08967	26
0.09333	26
0.09700	24
0.10067	22
0.10433	20
0.10800	20
0.11167	21
0.11533	24
0.11900	23
0.12267	15
0.12633	8
0.13000	5
0.13367	4
0.13733	3
0.14100	2
0.14467	1
0.14833	1
0.15200	1
0.15567	1
0.15933	3
0.16300	7
0.16667	10
0.17033	15
0.17400	20
0.17767	26
0.18133	29
0.18500	31
0.18867	31
0.19233	32
0.19600	37
0.19967	39
0.20333	37
0.20700	36
0.21067	35
0.21433	38
0.21800	43
0.22167	46
0.22533	46
0.22900	42
0.23267	36
0.23633	33
0.24000	35
0.24367	41
0.24733	48
0.25100	54
0.25467	56
0.25833	56
0.26200	58
0.26567	65
0.26933	70
0.27300	75
0.27667	81
0.28033	88
0.28400	94
0.28767	97
0.29133	97
0.29500	93
0.29867	86
0.30233	79
0.30600	73
0.30967	69
0.31333	70
0.31700	71
0.32067	72
0.32433	73
0.32800	75
0.33167	81
0.33533	85
0.33900	86
0.34267	82
0.34633	74
0.35000	67
0.35367	62
0.35733	58
0.36100	56
0.36467	51
0.36833	48
0.37200	45
0.37567	41
0.37933	34
0.38300	28
0.38667	26
0.39033	25
0.39400	21
0.39767	19
0.40133	20
0.40500	19
0.40867	17
0.41233	14
0.41600	13
0.41967	11
0.42333	10
0.42700	13
0.43067	15
0.43433	18
0.43800	19
0.44167	19
0.44533	17
0.44900	14
0.45267	12
0.45633	8
0.46000	1
0.46367	-4
0.46733	-6
0.47100	-7
0.47467	-6
0.47833	-4
0.48200	-2
0.48567	2
0.48933	3
0.49300	4
0.49667	4
0.50033	1
0.50400	0
0.50767	-0
0.51133	-1
0.51500	-2
0.51867	-4
0.52233	-3
0.52600	2
0.52967	8
0.53333	12
0.53700	17
0.54067	23
0.54433	26
0.54800	26
0.55167	23
0.55533	17
0.55900	9
0.56267	-2
0.56633	-12
0.57000	-19
0.57367	-26
0.57733	-29
0.58100	-29
0.58467	-28
0.58833	-26
0.59200	-24
0.59567	-21
0.59933	-18
0.60300	-16
0.60667	-13
0.61033	-8
0.61400	-1
0.61767	4
0.62133	5
0.62500	5
0.62867	3
0.63233	0
0.63600	-4
0.63967	-9
0.64333	-9
0.64700	-8
0.65067	-10
0.65433	-10
0.65800	-8
0.66167	-3
0.66533	1
0.66900	5
0.67267	7
0.67633	7
0.68000	7
0.68367	8
0.68733	8
0.69100	6
0.69467	3
0.69833	-1
0.70200	-7
0.70567	-12
0.70933	-16
0.71300	-17
0.71667	-13
0.72033	-6
0.72400	1
0.72767	6
0.73133	7
0.73500	7
0.73867	4
0.74233	-3
0.74600	-10
0.74967	-14
0.75333	-14
0.75700	-11
0.76067	-9
0.76433	-9
0.76800	-10
0.77167	-11
0.77533	-14
0.77900	-19
0.78267	-23
0.78633	-24
0.79000	-21
0.79367	-15
0.79733	-12
0.80100	-9
0.80467	-5
0.80833	-2
0.81200	1
0.81567	4
0.81933	2
0.82300	-5
0.82667	-13
0.83033	-21
0.83400	-26
0.83767	-29
0.84133	-32
0.84500	-32
0.84867	-29
0.85233	-24
0.85600	-17
0.85967	-11
0.86333	-8
0.86700	-5
0.87067	-2
0.87433	2
0.87800	5
0.88167	5
0.88533	6
0.88900	5
0.89267	1
0.89633	-4
0.90000	-10
0.90367	-16
0.90733	-19
0.91100	-21
0.91467	-24
0.91833	-27
0.92200	-26
0.92567	-25
0.92933	-26
0.93300	-25
0.93667	-23
0.94033	-21
0.94400	-21
0.94767	-23
0.95133	-26
0.95500	-26
0.95867	-23
0.96233	-21
0.96600	-20
0.96967	-17
0.97333	-12
0.97700	-6
0.98067	-2
0.98433	-2
0.98800	-4
0.99167	-9
0.99533	-11
0.99900	-12
1.00267	-12
1.00633	-14
1.01000	-18
1.01367	-21
1.01733	-25
1.02100	-30
1.02467	-34
1.02833	-35
1.03200	-33
1.03567	-31
1.03933	-30
1.04300	-28
1.04667	-27
1.05033	-28
1.05400	-34
1.05767	-42
1.06133	-45
1.06500	-42
1.06867	-38
1.07233	-33
1.07600	-29
1.07967	-25
1.08333	-24
1.08700	-26
1.09067	-27
1.09433	-26
1.09800	-24
1.10167	-22
1.10533	-20
1.10900	-17
1.11267	-12
1.11633	-10
1.12000	-10
1.12367	-15
1.12733	-21
1.13100	-27
1.13467	-29
1.13833	-29
1.14200	-26
1.14567	-24
1.14933	-24
1.15300	-26
1.15667	-30
1.16033	-34
1.16400	-37
1.16767	-38
1.17133	-36
1.17500	-33
1.17867	-27
1.18233	-20
1.18600	-15
1.18967	-15
1.19333	-19
1.19700	-22
1.20067	-24
1.20433	-23
1.20800	-23
1.21167	-26
1.21533	-32
1.21900	-37
1.22267	-42
1.22633	-48
1.23000	-50
1.23367	-45
1.23733	-35
1.24100	-25
1.24467	-18
1.24833	-17
1.25200	-20
1.25567	-23
1.25933	-24
1.26300	-23
1.26667	-23
1.27033	-23
1.27400	-23
1.27767	-24
1.28133	-27
1.28500	-31
1.28867	-36
1.29233	-42
1.29600	-47
1.29967	-53
1.30333	-56
1.30700	-56
1.31067	-55
1.31433	-55
1.31800	-56
1.32167	-54
1.32533	-50
1.32900	-45
1.33267	-44
1.33633	-46
1.34000	-48
1.34367	-48
1.34733	-45
1.35100	-42
1.35467	-41
1.35833	-40
1.36200	-42
1.36567	-43
1.36933	-42
1.37300	-40
1.37667	-39
1.38033	-43
1.38400	-48
1.38767	-55
1.39133	-59
1.39500	-60
1.39867	-59
1.40233	-56
1.40600	-55
1.40967	-52
1.41333	-47
1.41700	-40
1.42067	-35
1.42433	-35
1.42800	-35
1.43167	-33
1.43533	-23
1.43900	-8
1.44267	-16
1.44633	-62
1.45000	-112
1.45367	-128
1.45733	-114
1.46100	-79
1.46467	-26
1.46833	46
1.47200	125
1.47567	189
1.47933	221
1.48300	216
1.48667	182
1.49033	136
1.49400	94
1.49767	62
1.50133	40
1.50500	22
1.50867	10
1.51233	-0
1.51600	-9
1.51967	-17
1.52333	-25
1.52700	-30
1.53067	-4
1.53433	153
1.53800	695
1.54167	1896
1.54533	3717
1.54900	5780
1.55267	7671
1.55633	9145
1.56000	10074
1.56367	10319
1.56733	9771
1.57100	8519
1.57467	6868
1.57833	5181
1.58200	3709
1.58567	2552
1.58933	1706
1.59300	1116
1.59667	715
1.60033	446
1.60400	267
1.60767	148
1.61133	72
1.61500	25
1.61867	-4
1.62233	-21
1.62600	-30
1.62967	-36
1.63333	-39
1.63700	-40
1.64067	-42
1.64433	-45
1.64800	-48
1.65167	-50
1.65533	-54
1.65900	-57
1.66267	-60
1.66633	-65
1.67000	-68
1.67367	-69
1.67733	-72
1.68100	-76
1.68467	-80
1.68833	-86
1.69200	-88
1.69567	-86
1.69933	-84
1.70300	-81
1.70667	-77
1.71033	-75
1.71400	-72
1.71767	-70
1.72133	-69
1.72500	-69
1.72867	-68
1.73233	-67
1.73600	-66
1.73967	-66
1.74333	-69
1.74700	-72
1.75067	-72
1.75433	-71
1.75800	-75
1.76167	-82
1.76533	-88
1.76900	-85
1.77267	-74
1.77633	-63
1.78000	-57
1.78367	-54
1.78733	-49
1.79100	-45
1.79467	-43
1.79833	-46
1.80200	-50
1.80567	-56
1.80933	-59
1.81300	-61
1.81667	-61
1.82033	-62
1.82400	-63
1.82767	-65
1.83133	-69
1.83500	-73
1.83867	-75
1.84233	-76
1.84600	-77
1.84967	-76
1.85333	-75
1.85700	-74
1.86067	-70
1.86433	-63
1.86800	-56
1.87167	-53
1.87533	-56
1.87900	-62
1.88267	-74
1.88633	-86
1.89000	-97
1.89367	-104
1.89733	-106
1.90100	-101
1.90467	-93
1.90833	-86
1.91200	-81
1.91567	-78
1.91933	-78
1.92300	-79
1.92667	-83
1.93033	-84
1.93400	-81
1.93767	-75
1.94133	-67
1.94500	-52
1.94867	53
1.95233	751
1.95600	4216
1.95967	17039
1.96333	53166
1.96700	131392
1.97067	262786
1.97433	437749
1.97800	627202
1.98167	796631
1.98533	918336
1.98900	975033
1.99267	960708
1.99633	882262
2.00000	758110
2.00367	613060
2.00733	470500
2.01100	346286
2.01467	247191
2.01833	173035
2.02200	120009
2.02567	83248
2.02933	58260
2.03300	41461
2.03667	30201
2.04033	22622
2.04400	17464
2.04767	13900
2.05133	11388
2.05500	9577
2.05867	8236
2.06233	7218
2.06600	6427
2.06967	5798
2.07333	5284
2.07700	4852
2.08067	4485
2.08433	4176
2.08800	3910
2.09167	3672
2.09533	3457
2.09900	3264
2.10267	3090
2.10633	2934
2.11000	2792
2.11367	2662
2.11733	2541
2.12100	2428
2.12467	2322
2.12833	2225
2.13200	2138
2.13567	2057
2.13933	1983
2.14300	1913
2.14667	1846
2.15033	1782
2.15400	1721
2.15767	1665
2.16133	1614
2.16500	1562
2.16867	1509
2.17233	1460
2.17600	1416
2.17967	1374
2.18333	1334
2.18700	1295
2.19067	1259
2.19433	1226
2.19800	1194
2.20167	1159
2.20533	1124
2.20900	1090
2.21267	1060
2.21633	1035
2.22000	1014
2.22367	998
2.22733	982
2.23100	965
2.23467	948
2.23833	928
2.24200	907
2.24567	885
2.24933	862
2.25300	838
2.25667	814
2.26033	794
2.26400	775
2.26767	757
2.27133	738
2.27500	719
2.27867	701
2.28233	685
2.28600	671
2.28967	662
2.29333	653
2.29700	643
2.30067	633
2.30433	622
2.30800	608
2.31167	594
2.31533	583
2.31900	573
2.32267	563
2.32633	555
2.33000	544
2.33367	530
2.33733	513
2.34100	496
2.34467	480
2.34833	465
2.35200	451
2.35567	439
2.35933	428
2.36300	418
2.36667	413
2.37033	414
2.37400	416
2.37767	418
2.38133	416
2.38500	413
2.38867	409
2.39233	406
2.39600	402
2.39967	397
2.40333	393
2.40700	391
2.41067	387
2.41433	379
2.41800	373
2.42167	370
2.42533	365
2.42900	358
2.43267	349
2.43633	339
2.44000	328
2.44367	319
2.44733	317
2.45100	317
2.45467	316
2.45833	312
2.46200	306
2.46567	298
2.46933	293
2.47300	288
2.47667	285
2.48033	285
2.48400	286
2.48767	283
2.49133	279
2.49500	274
2.49867	271
2.50233	268
2.50600	265
2.50967	264
2.51333	263
2.51700	256
2.52067	245
2.52433	237
2.52800	232
2.53167	229
2.53533	225
2.53900	222
2.54267	218
2.54633	214
2.55000	212
2.55367	209
2.55733	207
2.56100	205
2.56467	204
2.56833	204
2.57200	202
2.57567	197
2.57933	190
2.58300	183
2.58667	179
2.59033	180
2.59400	181
2.59767	180
2.60133	179
2.60500	178
2.60867	176
2.61233	171
2.61600	166
2.61967	161
2.62333	155
2.62700	149
2.63067	142
2.63433	138
2.63800	136
2.64167	134
2.64533	135
2.64900	138
2.65267	142
2.65633	141
2.66000	139
2.66367	136
2.66733	133
2.67100	132
2.67467	130
2.67833	127
2.68200	124
2.68567	123
2.68933	123
2.69300	125
2.69667	130
2.70033	134
2.70400	135
2.70767	135
2.71133	130
2.71500	124
2.71867	120
2.72233	117
2.72600	111
2.72967	104
2.73333	97
2.73700	93
2.74067	91
2.74433	91
2.74800	92
2.75167	93
2.75533	94
2.75900	95
2.76267	92
2.76633	87
2.77000	81
2.77367	77
2.77733	76
2.78100	78
2.78467	79
2.78833	78
2.79200	76
2.79567	75
2.79933	77
2.80300	78
2.80667	76
2.81033	73
2.81400	70
2.81767	68
2.82133	66
2.82500	66
2.82867	68
2.83233	70
2.83600	69
2.83967	66
2.84333	64
2.84700	63
2.85067	62
2.85433	61
2.85800	59
2.86167	57
2.86533	57
2.86900	54
2.87267	54
2.87633	53
2.88000	51
2.88367	48
2.88733	46
2.89100	43
2.89467	40
2.89833	40
2.90200	43
2.90567	44
2.90933	46
2.91300	44
2.91667	39
2.92033	33
2.92400	29
2.92767	30
2.93133	32
2.93500	33
2.93867	32
2.94233	30
2.94600	27
2.94967	26
2.95333	29
2.95700	32
2.96067	31
2.96433	25
2.96800	21
2.97167	18
2.97533	19
2.97900	21
2.98267	25
2.98633	27
2.99000	27
2.99367	26
2.99733	24
3.00100	22
3.00467	21
3.00833	22
3.01200	25
3.01567	28
3.01933	25
3.02300	17
3.02667	13
3.03033	12
3.03400	14
3.03767	18
3.04133	22
3.04500	25
3.04867	26
3.05233	24
3.05600	23
3.05967	22
3.06333	18
3.06700	11
3.07067	3
3.07433	-1
3.07800	0
3.08167	4
3.08533	7
3.08900	9
3.09267	11
3.09633	13
3.10000	13
3.10367	10
3.10733	8
3.11100	6
3.11467	5
3.11833	4
3.12200	2
3.12567	-1
3.12933	-4
3.13300	-8
3.13667	-12
3.14033	-12
3.14400	-10
3.14767	-7
3.15133	-4
3.15500	-4
3.15867	-4
3.16233	-6
3.16600	-10
3.16967	-16
3.17333	-22
3.17700	-22
3.18067	-20
3.18433	-21
3.18800	-26
3.19167	-32
3.19533	-36
3.19900	-35
3.20267	-34
3.20633	-34
3.21000	-35
3.21367	-36
3.21733	-35
3.22100	-31
3.22467	-26
3.22833	-22
3.23200	-18
3.23567	-18
3.23933	-20
3.24300	-23
3.24667	-28
3.25033	-33
3.25400	-32
3.25767	-33
3.26133	-39
3.26500	-43
3.26867	-44
3.27233	-41
3.27600	-40
3.27967	-38
3.28333	-38
3.28700	-41
3.29067	-40
3.29433	-36
3.29800	-32
3.30167	-32
3.30533	-33
3.30900	-35
3.31267	-39
3.31633	-42
3.32000	-43
3.32367	-44
3.32733	-45
3.33100	-46
3.33467	-46
3.33833	-43
3.34200	-39
3.34567	-39
3.34933	-40
3.35300	-45
3.35667	-49
3.36033	-49
3.36400	-48
3.36767	-47
3.37133	-47
3.37500	-47
3.37867	-48
3.38233	-48
3.38600	-47
3.38967	-48
3.39333	-49
3.39700	-50
3.40067	-52
3.40433	-56
3.40800	-59
3.41167	-59
3.41533	-58
3.41900	-57
3.42267	-58
3.42633	-62
3.43000	-64
3.43367	-65
3.43733	-63
3.44100	-61
3.44467	-59
3.44833	-56
3.45200	-55
3.45567	-54
3.45933	-52
3.46300	-51
3.46667	-54
3.47033	-58
3.47400	-64
3.47767	-67
3.48133	-71
3.48500	-74
3.48867	-75
3.49233	-74
3.49600	-69
3.49967	-67
3.50333	-71
3.50700	-76
3.51067	-77
3.51433	-77
3.51800	-75
3.52167	-69
3.52533	-66
3.52900	-65
3.53267	-66
3.53633	-66
3.54000	-66
3.54367	-67
3.54733	-69
3.55100	-73
3.55467	-78
3.55833	-84
3.56200	-91
3.56567	-95
3.56933	-95
3.57300	-94
3.57667	-91
3.58033	-87
3.58400	-80
3.58767	-76
3.59133	-77
3.59500	-79
3.59867	-78
3.60233	-75
3.60600	-71
3.60967	-70
3.61333	-73
3.61700	-76
3.62067	-78
3.62433	-77
3.62800	-76
3.63167	-75
3.63533	-77
3.63900	-79
3.64267	-81
3.64633	-84
3.65000	-89
3.65367	-93
3.65733	-97
3.66100	-101
3.66467	-103
3.66833	-104
3.67200	-105
3.67567	-103
3.67933	-98
3.68300	-94
3.68667	-92
3.69033	-90
3.69400	-89
3.69767	-91
3.70133	-95
3.70500	-99
3.70867	-101
3.71233	-100
3.71600	-98
3.71967	-96
3.72333	-93
3.72700	-92
3.73067	-91
3.73433	-90
3.73800	-89
3.74167	-89
3.74533	-91
3.74900	-94
3.75267	-96
3.75633	-96
3.76000	-96
3.76367	-95
3.76733	-93
3.77100	-89
3.77467	-89
3.77833	-93
3.78200	-98
3.78567	-98
3.78933	-96
3.79300	-95
3.79667	-94
3.80033	-93
3.80400	-92
3.80767	-93
3.81133	-94
3.81500	-94
3.81867	-97
3.82233	-100
3.82600	-103
3.82967	-105
3.83333	-104
3.83700	-99
3.84067	-92
3.84433	-86
3.84800	-83
3.85167	-86
3.85533	-92
3.85900	-95
3.86267	-96
3.86633	-93
3.87000	-91
3.87367	-90
3.87733	-91
3.88100	-92
3.88467	-92
3.88833	-92
3.89200	-95
3.89567	-100
3.89933	-105
3.90300	-108
3.90667	-112
3.91033	-116
3.91400	-119
3.91767	-121
3.92133	-121
3.92500	-120
3.92867	-119
3.93233	-117
3.93600	-114
3.93967	-111
3.94333	-107
3.94700	-101
3.95067	-95
3.95433	-94
3.95800	-94
3.96167	-97
3.96533	-98
3.96900	-98
3.97267	-99
3.97633	-102
3.98000	-103
3.98367	-104
3.98733	-106
3.99100	-108
3.99467	-110
3.99833	-114

[Chromatogram (Ch2)]
Interval(msec)	220
# of Points	1091
Start Time(min)	0.002
End Time(min)	3.998
R.Time (min)	Intensity
0.00167	-0
0.00533	-0
0.00900	0
0.01267	-0
0.01633	-0
0.02000	-0
0.02367	-1
0.02733	-1
0.03100	-1
0.03467	-2
0.03833	-2
0.04200	-2
0.04567	-3
0.04933	-3
0.05300	-3
0.05667	-3
0.06033	-3
0.06400	-3
0.06767	-3
0.07133	-3
0.07500	-2
0.07867	-2
0.08233	-2
0.08600	-2
0.08967	-1
0.09333	-1
0.09700	-1
0.10067	-1
0.10433	-1
0.10800	-1
0.11167	-1
0.11533	-1
0.11900	-0
0.12267	-0
0.12633	-0
0.13000	-0
0.13367	-0
0.13733	-0
0.14100	-0
0.14467	-0
0.14833	-0
0.15200	-0
0.15567	-0
0.15933	-0
0.16300	-1
0.16667	-1
0.17033	-1
0.17400	-1
0.17767	-2
0.18133	-2
0.18500	-2
0.18867	-2
0.19233	-2
0.19600	-2
0.19967	-2
0.20333	-2
0.20700	-2
0.21067	-2
0.21433	-2
0.21800	-2
0.22167	-2
0.22533	-2
0.22900	-2
0.23267	-2
0.23633	-2
0.24000	-2
0.24367	-2
0.24733	-2
0.25100	-1
0.25467	-1
0.25833	-1
0.26200	-1
0.26567	-1
0.26933	-1
0.27300	-1
0.27667	-1
0.28033	-1
0.28400	-1
0.28767	-1
0.29133	-1
0.29500	-1
0.29867	-1
0.30233	-1
0.30600	-1
0.30967	-1
0.31333	-1
0.31700	-2
0.32067	-2
0.32433	-2
0.32800	-2
0.33167	-2
0.33533	-2
0.33900	-2
0.34267	-2
0.34633	-2
0.35000	-2
0.35367	-2
0.35733	-1
0.36100	-1
0.36467	-1
0.36833	-1
0.37200	-2
0.37567	-2
0.37933	-2
0.38300	-2
0.38667	-2
0.39033	-2
0.39400	-2
0.39767	-2
0.40133	-2
0.40500	-2
0.40867	-2
0.41233	-2
0.41600	-2
0.41967	-2
0.42333	-2
0.42700	-2
0.43067	-2
0.43433	-1
0.43800	-1
0.44167	-1
0.44533	-1
0.44900	-1
0.45267	-1
0.45633	-1
0.46000	-1
0.46367	-1
0.46733	-1
0.47100	-2
0.47467	-2
0.47833	-2
0.48200	-2
0.48567	-3
0.48933	-3
0.49300	-3
0.49667	-3
0.50033	-2
0.50400	-2
0.50767	-2
0.51133	-2
0.51500	-2
0.51867	-2
0.52233	-2
0.52600	-2
0.52967	-2
0.53333	-2
0.53700	-2
0.54067	-2
0.54433	-2
0.54800	-2
0.55167	-2
0.55533	-2
0.55900	-2
0.56267	-2
0.56633	-2
0.57000	-2
0.57367	-2
0.57733	-2
0.58100	-2
0.58467	-2
0.58833	-2
0.59200	-2
0.59567	-2
0.59933	-2
0.60300	-2
0.60667	-2
0.61033	-2
0.61400	-1
0.61767	-1
0.62133	-1
0.62500	-1
0.62867	-1
0.63233	-1
0.63600	-1
0.63967	-2
0.64333	-2
0.64700	-2
0.65067	-2
0.65433	-2
0.65800	-1
0.66167	-1
0.66533	-1
0.66900	-2
0.67267	-2
0.67633	-2
0.68000	-2
0.68367	-2
0.68733	-2
0.69100	-2
0.69467	-2
0.69833	-2
0.70200	-2
0.70567	-2
0.70933	-2
0.71300	-2
0.71667	-3
0.72033	-3
0.72400	-3
0.72767	-3
0.73133	-3
0.73500	-3
0.73867	-3
0.74233	-2
0.74600	-2
0.74967	-2
0.75333	-3
0.75700	-3
0.76067	-3
0.76433	-2
0.76800	-2
0.77167	-2
0.77533	-2
0.77900	-2
0.78267	-2
0.78633	-2
0.79000	-2
0.79367	-2
0.79733	-2
0.80100	-2
0.80467	-2
0.80833	-2
0.81200	-2
0.81567	-2
0.81933	-2
0.82300	-3
0.82667	-3
0.83033	-3
0.83400	-4
0.83767	-4
0.84133	-4
0.84500	-4
0.84867	-4
0.85233	-4
0.85600	-5
0.85967	-5
0.86333	-5
0.86700	-5
0.87067	-4
0.87433	-4
0.87800	-4
0.88167	-4
0.88533	-4
0.88900	-4
0.89267	-3
0.89633	-3
0.90000	-3
0.90367	-3
0.90733	-3
0.91100	-3
0.91467	-3
0.91833	-3
0.92200	-3
0.92567	-3
0.92933	-2
0.93300	-2
0.93667	-2
0.94033	-2
0.94400	-2
0.94767	-2
0.95133	-2
0.95500	-2
0.95867	-2
0.96233	-2
0.96600	-2
0.96967	-2
0.97333	-2
0.97700	-2
0.98067	-2
0.98433	-2
0.98800	-2
0.99167	-2
0.99533	-2
0.99900	-1
1.00267	-1
1.00633	-1
1.01000	-1
1.01367	-2
1.01733	-2
1.02100	-2
1.02467	-2
1.02833	-3
1.03200	-3
1.03567	-3
1.03933	-3
1.04300	-3
1.04667	-3
1.05033	-3
1.05400	-3
1.05767	-3
1.06133	-3
1.06500	-3
1.06867	-3
1.07233	-3
1.07600	-3
1.07967	-3
1.08333	-3
1.08700	-3
1.09067	-3
1.09433	-3
1.09800	-3
1.10167	-3
1.10533	-3
1.10900	-4
1.11267	-4
1.11633	-4
1.12000	-4
1.12367	-4
1.12733	-4
1.13100	-4
1.13467	-4
1.13833	-4
1.14200	-4
1.14567	-4
1.14933	-4
1.15300	-4
1.15667	-4
1.16033	-4
1.16400	-4
1.16767	-4
1.17133	-4
1.17500	-4
1.17867	-4
1.18233	-4
1.18600	-3
1.18967	-3
1.19333	-3
1.19700	-3
1.20067	-3
1.20433	-3
1.20800	-3
1.21167	-3
1.21533	-3
1.21900	-3
1.22267	-3
1.22633	-3
1.23000	-3
1.23367	-3
1.23733	-3
1.24100	-4
1.24467	-4
1.24833	-4
1.25200	-4
1.25567	-4
1.25933	-4
1.26300	-4
1.26667	-4
1.27033	-4
1.27400	-3
1.27767	-3
1.28133	-3
1.28500	-3
1.28867	-3
1.29233	-3
1.29600	-3
1.29967	-3
1.30333	-3
1.30700	-3
1.31067	-3
1.31433	-2
1.31800	-2
1.32167	-2
1.32533	-1
1.32900	-1
1.33267	-2
1.33633	-2
1.34000	-2
1.34367	-2
1.34733	-2
1.35100	-2
1.35467	-2
1.35833	-2
1.36200	-2
1.36567	-2
1.36933	-3
1.37300	-3
1.37667	-3
1.38033	-3
1.38400	-4
1.38767	-4
1.39133	-4
1.39500	-4
1.39867	-4
1.40233	-4
1.40600	-4
1.40967	-4
1.41333	-4
1.41700	-4
1.42067	-4
1.42433	-4
1.42800	-4
1.43167	-4
1.43533	-4
1.43900	-4
1.44267	-4
1.44633	-4
1.45000	-4
1.45367	-4
1.45733	-4
1.46100	-4
1.46467	-4
1.46833	-4
1.47200	-4
1.47567	-4
1.47933	-4
1.48300	-4
1.48667	-5
1.49033	-5
1.49400	-5
1.49767	-5
1.50133	-5
1.50500	-5
1.50867	-5
1.51233	-4
1.51600	-4
1.51967	-4
1.52333	-4
1.52700	-4
1.53067	-4
1.53433	-4
1.53800	-4
1.54167	-4
1.54533	-4
1.54900	-4
1.55267	-4
1.55633	-4
1.56000	-4
1.56367	-4
1.56733	-4
1.57100	-4
1.57467	-4
1.57833	-4
1.58200	-4
1.58567	-4
1.58933	-4
1.59300	-5
1.59667	-5
1.60033	-6
1.60400	-7
1.60767	-8
1.61133	-9
1.61500	-11
1.61867	-13
1.62233	-16
1.62600	-18
1.62967	-21
1.63333	-24
1.63700	-27
1.64067	-30
1.64433	-33
1.64800	-36
1.65167	-39
1.65533	-43
1.65900	-46
1.66267	-50
1.66633	-54
1.67000	-59
1.67367	-63
1.67733	-68
1.68100	-72
1.68467	-77
1.68833	-81
1.69200	-85
1.69567	-88
1.69933	-91
1.70300	-93
1.70667	-94
1.71033	-95
1.71400	-96
1.71767	-97
1.72133	-97
1.72500	-98
1.72867	-98
1.73233	-98
1.73600	-98
1.73967	-99
1.74333	-99
1.74700	-100
1.75067	-100
1.75433	-100
1.75800	-100
1.76167	-99
1.76533	-98
1.76900	-98
1.77267	-97
1.77633	-97
1.78000	-97
1.78367	-98
1.78733	-98
1.79100	-99
1.79467	-99
1.79833	-99
1.80200	-99
1.80567	-99
1.80933	-99
1.81300	-99
1.81667	-100
1.82033	-100
1.82400	-100
1.82767	-101
1.83133	-101
1.83500	-101
1.83867	-101
1.84233	-101
1.84600	-101
1.84967	-101
1.85333	-100
1.85700	-100
1.86067	-100
1.86433	-100
1.86800	-100
1.87167	-100
1.87533	-100
1.87900	-100
1.88267	-99
1.88633	-99
1.89000	-99
1.89367	-99
1.89733	-99
1.90100	-99
1.90467	-99
1.90833	-99
1.91200	-99
1.91567	-100
1.91933	-100
1.92300	-100
1.92667	-100
1.93033	-99
1.93400	-99
1.93767	-99
1.94133	-98
1.94500	-98
1.94867	-98
1.95233	-97
1.95600	-97
1.95967	-97
1.96333	-96
1.96700	-96
1.97067	-95
1.97433	-95
1.97800	-95
1.98167	-94
1.98533	-94
1.98900	-94
1.99267	-94
1.99633	-94
2.00000	-93
2.00367	-93
2.00733	-93
2.01100	-92
2.01467	-92
2.01833	-91
2.02200	-90
2.02567	-89
2.02933	-89
2.03300	-89
2.03667	-90
2.04033	-90
2.04400	-91
2.04767	-91
2.05133	-92
2.05500	-92
2.05867	-92
2.06233	-91
2.06600	-90
2.06967	-89
2.07333	-88
2.07700	-87
2.08067	-87
2.08433	-86
2.08800	-86
2.09167	-86
2.09533	-86
2.09900	-86
2.10267	-86
2.10633	-86
2.11000	-86
2.11367	-86
2.11733	-85
2.12100	-85
2.12467	-85
2.12833	-84
2.13200	-84
2.13567	-83
2.13933	-83
2.14300	-82
2.14667	-82
2.15033	-82
2.15400	-82
2.15767	-82
2.16133	-82
2.16500	-82
2.16867	-82
2.17233	-82
2.17600	-81
2.17967	-81
2.18333	-80
2.18700	-80
2.19067	-79
2.19433	-79
2.19800	-79
2.20167	-79
2.20533	-80
2.20900	-79
2.21267	-78
2.21633	-78
2.22000	-77
2.22367	-76
2.22733	-75
2.23100	-74
2.23467	-74
2.23833	-73
2.24200	-73
2.24567	-74
2.24933	-74
2.25300	-74
2.25667	-74
2.26033	-74
2.26400	-74
2.26767	-73
2.27133	-73
2.27500	-74
2.27867	-74
2.28233	-75
2.28600	-75
2.28967	-76
2.29333	-76
2.29700	-75
2.30067	-74
2.30433	-74
2.30800	-73
2.31167	-72
2.31533	-72
2.31900	-72
2.32267	-71
2.32633	-70
2.33000	-70
2.33367	-69
2.33733	-68
2.34100	-68
2.34467	-67
2.34833	-66
2.35200	-65
2.35567	-64
2.35933	-62
2.36300	-61
2.36667	-60
2.37033	-58
2.37400	-56
2.37767	-54
2.38133	-50
2.38500	-47
2.38867	-43
2.39233	-40
2.39600	-36
2.39967	-32
2.40333	-28
2.40700	-23
2.41067	-19
2.41433	-16
2.41800	-13
2.42167	-10
2.42533	-8
2.42900	-6
2.43267	-5
2.43633	-3
2.44000	-1
2.44367	-0
2.44733	1
2.45100	2
2.45467	3
2.45833	4
2.46200	5
2.46567	7
2.46933	8
2.47300	9
2.47667	9
2.48033	10
2.48400	11
2.48767	12
2.49133	13
2.49500	13
2.49867	14
2.50233	15
2.50600	15
2.50967	15
2.51333	15
2.51700	15
2.52067	15
2.52433	16
2.52800	16
2.53167	16
2.53533	16
2.53900	15
2.54267	15
2.54633	14
2.55000	14
2.55367	13
2.55733	12
2.56100	12
2.56467	11
2.56833	11
2.57200	11
2.57567	11
2.57933	11
2.58300	12
2.58667	12
2.59033	13
2.59400	13
2.59767	14
2.60133	15
2.60500	16
2.60867	17
2.61233	17
2.61600	18
2.61967	18
2.62333	19
2.62700	19
2.63067	19
2.63433	19
2.63800	20
2.64167	20
2.64533	20
2.64900	20
2.65267	21
2.65633	21
2.66000	21
2.66367	21
2.66733	22
2.67100	22
2.67467	22
2.67833	23
2.68200	23
2.68567	23
2.68933	23
2.69300	23
2.69667	23
2.70033	23
2.70400	23
2.70767	23
2.71133	23
2.71500	23
2.71867	23
2.72233	23
2.72600	24
2.72967	24
2.73333	25
2.73700	25
2.74067	26
2.74433	26
2.74800	26
2.75167	27
2.75533	27
2.75900	27
2.76267	28
2.76633	28
2.77000	28
2.77367	28
2.77733	27
2.78100	27
2.78467	27
2.78833	27
2.79200	26
2.79567	26
2.79933	25
2.80300	25
2.80667	25
2.81033	25
2.81400	25
2.81767	25
2.82133	26
2.82500	26
2.82867	26
2.83233	26
2.83600	26
2.83967	26
2.84333	26
2.84700	26
2.85067	25
2.85433	25
2.85800	23
2.86167	20
2.86533	16
2.86900	8
2.87267	-3
2.87633	-19
2.88000	-40
2.88367	-68
2.88733	-102
2.89100	-143
2.89467	-191
2.89833	-245
2.90200	-305
2.90567	-372
2.90933	-445
2.91300	-523
2.91667	-606
2.92033	-693
2.92400	-785
2.92767	-880
2.93133	-977
2.93500	-1078
2.93867	-1181
2.94233	-1287
2.94600	-1394
2.94967	-1493
2.95333	-1572
2.95700	-1617
2.96067	-1622
2.96433	-1590
2.96800	-1524
2.97167	-1434
2.97533	-1328
2.97900	-1213
2.98267	-1095
2.98633	-979
2.99000	-868
2.99367	-765
2.99733	-670
3.00100	-584
3.00467	-506
3.00833	-438
3.01200	-377
3.01567	-324
3.01933	-277
3.02300	-237
3.02667	-202
3.03033	-172
3.03400	-146
3.03767	-123
3.04133	-104
3.04500	-87
3.04867	-74
3.05233	-62
3.05600	-51
3.05967	-43
3.06333	-35
3.06700	-29
3.07067	-23
3.07433	-19
3.07800	-15
3.08167	-11
3.08533	-8
3.08900	-6
3.09267	-3
3.09633	-1
3.10000	1
3.10367	2
3.10733	4
3.11100	5
3.11467	6
3.11833	7
3.12200	8
3.12567	9
3.12933	9
3.13300	10
3.13667	11
3.14033	12
3.14400	12
3.14767	13
3.15133	13
3.15500	14
3.15867	14
3.16233	14
3.16600	15
3.16967	15
3.17333	15
3.17700	15
3.18067	15
3.18433	16
3.18800	16
3.19167	16
3.19533	16
3.19900	17
3.20267	17
3.20633	17
3.21000	18
3.21367	18
3.21733	18
3.22100	18
3.22467	18
3.22833	19
3.23200	19
3.23567	19
3.23933	19
3.24300	19
3.24667	20
3.25033	20
3.25400	20
3.25767	20
3.26133	21
3.26500	21
3.26867	21
3.27233	22
3.27600	22
3.27967	22
3.28333	23
3.28700	23
3.29067	23
3.29433	24
3.29800	24
3.30167	24
3.30533	24
3.30900	25
3.31267	25
3.31633	25
3.32000	25
3.32367	25
3.32733	25
3.33100	25
3.33467	25
3.33833	26
3.34200	26
3.34567	26
3.34933	26
3.35300	26
3.35667	26
3.36033	26
3.36400	26
3.36767	26
3.37133	26
3.37500	26
3.37867	26
3.38233	26
3.38600	26
3.38967	26
3.39333	26
3.39700	25
3.40067	25
3.40433	25
3.40800	26
3.41167	26
3.41533	26
3.41900	26
3.42267	26
3.42633	26
3.43000	26
3.43367	26
3.43733	26
3.44100	27
3.44467	27
3.44833	26
3.45200	26
3.45567	26
3.45933	26
3.46300	26
3.46667	26
3.47033	26
3.47400	26
3.47767	26
3.48133	26
3.48500	26
3.48867	26
3.49233	26
3.49600	26
3.49967	26
3.50333	26
3.50700	26
3.51067	26
3.51433	26
3.51800	26
3.52167	25
3.52533	25
3.52900	25
3.53267	25
3.53633	25
3.54000	26
3.54367	26
3.54733	26
3.55100	26
3.55467	26
3.55833	26
3.56200	26
3.56567	26
3.56933	26
3.57300	26
3.57667	26
3.58033	26
3.58400	26
3.58767	26
3.59133	26
3.59500	26
3.59867	26
3.60233	26
3.60600	26
3.60967	26
3.61333	26
3.61700	27
3.62067	27
3.62433	27
3.62800	27
3.63167	27
3.63533	27
3.63900	27
3.64267	27
3.64633	27
3.65000	27
3.65367	27
3.65733	27
3.66100	27
3.66467	27
3.66833	27
3.67200	27
3.67567	27
3.67933	27
3.68300	27
3.68667	27
3.69033	27
3.69400	27
3.69767	27
3.70133	27
3.70500	27
3.70867	26
3.71233	26
3.71600	27
3.71967	27
3.72333	27
3.72700	27
3.73067	27
3.73433	27
3.73800	27
3.74167	27
3.74533	27
3.74900	27
3.75267	27
3.75633	27
3.76000	27
3.76367	27
3.76733	27
3.77100	27
3.77467	27
3.77833	27
3.78200	27
3.78567	27
3.78933	27
3.79300	27
3.79667	27
3.80033	27
3.80400	27
3.80767	27
3.81133	27
3.81500	27
3.81867	27
3.82233	27
3.82600	27
3.82967	27
3.83333	27
3.83700	27
3.84067	27
3.84433	27
3.84800	27
3.85167	27
3.85533	27
3.85900	27
3.86267	27
3.86633	27
3.87000	27
3.87367	27
3.87733	27
3.88100	27
3.88467	27
3.88833	27
3.89200	27
3.89567	27
3.89933	27
3.90300	27
3.90667	28
3.91033	28
3.91400	28
3.91767	28
3.92133	28
3.92500	27
3.92867	27
3.93233	27
3.93600	27
3.93967	27
3.94333	27
3.94700	27
3.95067	27
3.95433	27
3.95800	27
3.96167	27
3.96533	27
3.96900	27
3.97267	27
3.97633	27
3.98000	27
3.98367	27
3.98733	27
3.99100	27
3.99467	27
3.99833	27

[Chromatogram (Ch3)]
Interval(msec)	220
# of Points	1091
Start Time(min)	0.002
End Time(min)	3.998
R.Time (min)	Intensity
0.00167	0
0.00533	0
0.00900	1
0.01267	4
0.01633	5
0.02000	4
0.02367	2
0.02733	-1
0.03100	-1
0.03467	-0
0.03833	-1
0.04200	-2
0.04567	-2
0.04933	-2
0.05300	-3
0.05667	-1
0.06033	-1
0.06400	-3
0.06767	-4
0.07133	-3
0.07500	-1
0.07867	0
0.08233	-1
0.08600	-0
0.08967	3
0.09333	7
0.09700	6
0.10067	5
0.10433	2
0.10800	2
0.11167	2
0.11533	-1
0.11900	-5
0.12267	-5
0.12633	-6
0.13000	-6
0.13367	-6
0.13733	-3
0.14100	2
0.14467	3
0.14833	2
0.15200	3
0.15567	7
0.15933	6
0.16300	2
0.16667	-3
0.17033	-4
0.17400	-5
0.17767	-6
0.18133	-6
0.18500	-6
0.18867	-4
0.19233	-2
0.19600	-0
0.19967	1
0.20333	2
0.20700	3
0.21067	4
0.21433	4
0.21800	1
0.22167	-2
0.22533	-2
0.22900	-3
0.23267	-5
0.23633	-4
0.24000	-5
0.24367	-6
0.24733	-6
0.25100	-2
0.25467	0
0.25833	-1
0.26200	-2
0.26567	-2
0.26933	-0
0.27300	4
0.27667	3
0.28033	4
0.28400	4
0.28767	3
0.29133	3
0.29500	4
0.29867	5
0.30233	6
0.30600	7
0.30967	5
0.31333	1
0.31700	0
0.32067	0
0.32433	-0
0.32800	-0
0.33167	3
0.33533	5
0.33900	6
0.34267	4
0.34633	2
0.35000	2
0.35367	0
0.35733	-1
0.36100	1
0.36467	5
0.36833	8
0.37200	12
0.37567	13
0.37933	11
0.38300	8
0.38667	6
0.39033	7
0.39400	11
0.39767	15
0.40133	15
0.40500	15
0.40867	14
0.41233	8
0.41600	4
0.41967	4
0.42333	6
0.42700	6
0.43067	6
0.43433	5
0.43800	5
0.44167	6
0.44533	8
0.44900	9
0.45267	7
0.45633	5
0.46000	3
0.46367	3
0.46733	4
0.47100	3
0.47467	3
0.47833	4
0.48200	4
0.48567	4
0.48933	5
0.49300	6
0.49667	8
0.50033	7
0.50400	10
0.50767	11
0.51133	11
0.51500	11
0.51867	11
0.52233	12
0.52600	10
0.52967	8
0.53333	6
0.53700	4
0.54067	7
0.54433	8
0.54800	10
0.55167	13
0.55533	14
0.55900	12
0.56267	8
0.56633	8
0.57000	8
0.57367	8
0.57733	10
0.58100	12
0.58467	12
0.58833	11
0.59200	9
0.59567	8
0.59933	8
0.60300	8
0.60667	7
0.61033	8
0.61400	9
0.61767	10
0.62133	9
0.62500	8
0.62867	9
0.63233	10
0.63600	8
0.63967	6
0.64333	7
0.64700	7
0.65067	6
0.65433	6
0.65800	5
0.66167	3
0.66533	2
0.66900	2
0.67267	2
0.67633	4
0.68000	6
0.68367	7
0.68733	10
0.69100	11
0.69467	10
0.69833	9
0.70200	8
0.70567	8
0.70933	9
0.71300	9
0.71667	8
0.72033	7
0.72400	7
0.72767	5
0.73133	2
0.73500	4
0.73867	6
0.74233	6
0.74600	7
0.74967	5
0.75333	7
0.75700	9
0.76067	11
0.76433	12
0.76800	11
0.77167	10
0.77533	8
0.77900	7
0.78267	10
0.78633	9
0.79000	8
0.79367	8
0.79733	12
0.80100	16
0.80467	18
0.80833	15
0.81200	12
0.81567	9
0.81933	11
0.82300	11
0.82667	9
0.83033	7
0.83400	7
0.83767	5
0.84133	4
0.84500	6
0.84867	8
0.85233	8
0.85600	8
0.85967	8
0.86333	8
0.86700	9
0.87067	11
0.87433	10
0.87800	9
0.88167	10
0.88533	11
0.88900	7
0.89267	6
0.89633	8
0.90000	9
0.90367	12
0.90733	13
0.91100	12
0.91467	9
0.91833	7
0.92200	6
0.92567	9
0.92933	9
0.93300	10
0.93667	12
0.94033	13
0.94400	14
0.94767	13
0.95133	13
0.95500	13
0.95867	14
0.96233	15
0.96600	12
0.96967	10
0.97333	10
0.97700	10
0.98067	11
0.98433	11
0.98800	12
0.99167	12
0.99533	12
0.99900	11
1.00267	10
1.00633	7
1.01000	7
1.01367	8
1.01733	11
1.02100	12
1.02467	14
1.02833	14
1.03200	13
1.03567	12
1.03933	12
1.04300	14
1.04667	15
1.05033	16
1.05400	16
1.05767	14
1.06133	11
1.06500	13
1.06867	15
1.07233	14
1.07600	14
1.07967	13
1.08333	12
1.08700	13
1.09067	12
1.09433	8
1.09800	4
1.10167	2
1.10533	4
1.10900	7
1.11267	7
1.11633	9
1.12000	12
1.12367	12
1.12733	12
1.13100	12
1.13467	13
1.13833	13
1.14200	11
1.14567	10
1.14933	9
1.15300	10
1.15667	10
1.16033	12
1.16400	10
1.16767	8
1.17133	11
1.17500	11
1.17867	9
1.18233	10
1.18600	10
1.18967	11
1.19333	13
1.19700	14
1.20067	15
1.20433	15
1.20800	15
1.21167	15
1.21533	11
1.21900	9
1.22267	7
1.22633	7
1.23000	6
1.23367	4
1.23733	6
1.24100	8
1.24467	11
1.24833	14
1.25200	15
1.25567	16
1.25933	18
1.26300	19
1.26667	18
1.27033	18
1.27400	18
1.27767	17
1.28133	15
1.28500	15
1.28867	14
1.29233	14
1.29600	15
1.29967	15
1.30333	16
1.30700	15
1.31067	15
1.31433	12
1.31800	10
1.32167	12
1.32533	12
1.32900	11
1.33267	10
1.33633	13
1.34000	16
1.34367	17
1.34733	15
1.35100	12
1.35467	11
1.35833	10
1.36200	9
1.36567	9
1.36933	10
1.37300	13
1.37667	14
1.38033	15
1.38400	13
1.38767	11
1.39133	10
1.39500	8
1.39867	8
1.40233	9
1.40600	8
1.40967	8
1.41333	6
1.41700	5
1.42067	8
1.42433	7
1.42800	5
1.43167	5
1.43533	4
1.43900	5
1.44267	7
1.44633	10
1.45000	11
1.45367	14
1.45733	14
1.46100	12
1.46467	12
1.46833	12
1.47200	10
1.47567	11
1.47933	12
1.48300	13
1.48667	14
1.49033	13
1.49400	9
1.49767	8
1.50133	8
1.50500	6
1.50867	5
1.51233	6
1.51600	6
1.51967	6
1.52333	6
1.52700	6
1.53067	7
1.53433	6
1.53800	7
1.54167	7
1.54533	6
1.54900	5
1.55267	3
1.55633	3
1.56000	5
1.56367	7
1.56733	7
1.57100	8
1.57467	8
1.57833	7
1.58200	6
1.58567	5
1.58933	2
1.59300	1
1.59667	2
1.60033	5
1.60400	7
1.60767	7
1.61133	6
1.61500	8
1.61867	10
1.62233	9
1.62600	8
1.62967	10
1.63333	10
1.63700	8
1.64067	8
1.64433	5
1.64800	2
1.65167	4
1.65533	7
1.65900	9
1.66267	9
1.66633	9
1.67000	13
1.67367	18
1.67733	18
1.68100	17
1.68467	20
1.68833	18
1.69200	15
1.69567	15
1.69933	18
1.70300	19
1.70667	18
1.71033	18
1.71400	20
1.71767	20
1.72133	19
1.72500	18
1.72867	18
1.73233	21
1.73600	21
1.73967	20
1.74333	20
1.74700	20
1.75067	17
1.75433	15
1.75800	15
1.76167	15
1.76533	15
1.76900	16
1.77267	17
1.77633	15
1.78000	14
1.78367	14
1.78733	14
1.79100	14
1.79467	15
1.79833	17
1.80200	20
1.80567	22
1.80933	22
1.81300	21
1.81667	20
1.82033	20
1.82400	20
1.82767	19
1.83133	19
1.83500	20
1.83867	20
1.84233	19
1.84600	18
1.84967	19
1.85333	23
1.85700	25
1.86067	26
1.86433	26
1.86800	27
1.87167	25
1.87533	23
1.87900	24
1.88267	25
1.88633	25
1.89000	26
1.89367	28
1.89733	29
1.90100	30
1.90467	31
1.90833	29
1.91200	28
1.91567	28
1.91933	26
1.92300	24
1.92667	25
1.93033	27
1.93400	30
1.93767	30
1.94133	33
1.94500	33
1.94867	32
1.95233	32
1.95600	32
1.95967	29
1.96333	29
1.96700	31
1.97067	35
1.97433	35
1.97800	36
1.98167	35
1.98533	33
1.98900	35
1.99267	39
1.99633	41
2.00000	43
2.00367	43
2.00733	41
2.01100	42
2.01467	39
2.01833	39
2.02200	36
2.02567	33
2.02933	33
2.03300	37
2.03667	40
2.04033	44
2.04400	45
2.04767	44
2.05133	45
2.05500	46
2.05867	46
2.06233	46
2.06600	47
2.06967	48
2.07333	48
2.07700	46
2.08067	44
2.08433	43
2.08800	44
2.09167	45
2.09533	48
2.09900	50
2.10267	51
2.10633	52
2.11000	54
2.11367	55
2.11733	53
2.12100	52
2.12467	52
2.12833	51
2.13200	48
2.13567	47
2.13933	47
2.14300	46
2.14667	47
2.15033	50
2.15400	53
2.15767	55
2.16133	58
2.16500	57
2.16867	57
2.17233	58
2.17600	59
2.17967	59
2.18333	60
2.18700	60
2.19067	58
2.19433	59
2.19800	61
2.20167	63
2.20533	65
2.20900	64
2.21267	65
2.21633	68
2.22000	70
2.22367	73
2.22733	76
2.23100	79
2.23467	79
2.23833	75
2.24200	74
2.24567	74
2.24933	76
2.25300	76
2.25667	76
2.26033	77
2.26400	76
2.26767	76
2.27133	76
2.27500	75
2.27867	73
2.28233	74
2.28600	75
2.28967	76
2.29333	79
2.29700	84
2.30067	87
2.30433	88
2.30800	88
2.31167	90
2.31533	89
2.31900	88
2.32267	92
2.32633	95
2.33000	96
2.33367	95
2.33733	92
2.34100	91
2.34467	91
2.34833	86
2.35200	82
2.35567	79
2.35933	77
2.36300	78
2.36667	82
2.37033	82
2.37400	83
2.37767	84
2.38133	85
2.38500	83
2.38867	81
2.39233	84
2.39600	89
2.39967	94
2.40333	100
2.40700	106
2.41067	109
2.41433	114
2.41800	117
2.42167	119
2.42533	122
2.42900	121
2.43267	119
2.43633	119
2.44000	122
2.44367	156
2.44733	216
2.45100	270
2.45467	303
2.45833	311
2.46200	309
2.46567	305
2.46933	303
2.47300	295
2.47667	282
2.48033	263
2.48400	243
2.48767	228
2.49133	218
2.49500	212
2.49867	211
2.50233	215
2.50600	219
2.50967	222
2.51333	221
2.51700	215
2.52067	205
2.52433	196
2.52800	185
2.53167	173
2.53533	161
2.53900	153
2.54267	146
2.54633	140
2.55000	138
2.55367	138
2.55733	137
2.56100	135
2.56467	135
2.56833	139
2.57200	141
2.57567	145
2.57933	152
2.58300	160
2.58667	166
2.59033	170
2.59400	175
2.59767	181
2.60133	184
2.60500	185
2.60867	183
2.61233	177
2.61600	171
2.61967	164
2.62333	156
2.62700	149
2.63067	140
2.63433	130
2.63800	119
2.64167	111
2.64533	103
2.64900	94
2.65267	89
2.65633	87
2.66000	86
2.66367	84
2.66733	80
2.67100	76
2.67467	72
2.67833	69
2.68200	68
2.68567	69
2.68933	71
2.69300	72
2.69667	71
2.70033	71
2.70400	71
2.70767	72
2.71133	77
2.71500	80
2.71867	81
2.72233	83
2.72600	84
2.72967	84
2.73333	85
2.73700	84
2.74067	86
2.74433	91
2.74800	96
2.75167	100
2.75533	104
2.75900	109
2.76267	111
2.76633	112
2.77000	116
2.77367	122
2.77733	129
2.78100	133
2.78467	136
2.78833	137
2.79200	136
2.79567	133
2.79933	134
2.80300	134
2.80667	131
2.81033	132
2.81400	133
2.81767	132
2.82133	132
2.82500	133
2.82867	134
2.83233	141
2.83600	162
2.83967	216
2.84333	339
2.84700	581
2.85067	988
2.85433	1609
2.85800	2476
2.86167	3587
2.86533	4902
2.86900	6345
2.87267	7809
2.87633	9181
2.88000	10354
2.88367	11244
2.88733	11796
2.89100	12002
2.89467	11886
2.89833	11495
2.90200	10895
2.90567	10159
2.90933	9351
2.91300	8514
2.91667	7683
2.92033	6881
2.92400	6127
2.92767	5430
2.93133	4795
2.93500	4226
2.93867	3716
2.94233	3265
2.94600	2863
2.94967	2506
2.95333	2192
2.95700	1918
2.96067	1677
2.96433	1466
2.96800	1284
2.97167	1125
2.97533	990
2.97900	874
2.98267	773
2.98633	684
2.99000	577
2.99367	413
2.99733	266
3.00100	194
3.00467	201
3.00833	265
3.01200	363
3.01567	473
3.01933	582
3.02300	679
3.02667	761
3.03033	830
3.03400	886
3.03767	928
3.04133	961
3.04500	990
3.04867	1008
3.05233	1021
3.05600	1031
3.05967	1039
3.06333	1044
3.06700	1045
3.07067	1047
3.07433	1049
3.07800	1047
3.08167	1042
3.08533	1036
3.08900	1034
3.09267	1031
3.09633	1030
3.10000	1031
3.10367	1031
3.10733	1031
3.11100	1027
3.11467	1022
3.11833	1018
3.12200	1014
3.12567	1010
3.12933	1007
3.13300	1003
3.13667	999
3.14033	997
3.14400	995
3.14767	992
3.15133	992
3.15500	994
3.15867	992
3.16233	981
3.16600	970
3.16967	963
3.17333	956
3.17700	948
3.18067	943
3.18433	939
3.18800	935
3.19167	931
3.19533	923
3.19900	914
3.20267	906
3.20633	902
3.21000	900
3.21367	896
3.21733	890
3.22100	880
3.22467	872
3.22833	867
3.23200	860
3.23567	854
3.23933	850
3.24300	844
3.24667	839
3.25033	834
3.25400	829
3.25767	827
3.26133	824
3.26500	820
3.26867	813
3.27233	810
3.27600	807
3.27967	804
3.28333	802
3.28700	799
3.29067	796
3.29433	793
3.29800	788
3.30167	785
3.30533	781
3.30900	778
3.31267	777
3.31633	775
3.32000	775
3.32367	774
3.32733	774
3.33100	776
3.33467	775
3.33833	771
3.34200	770
3.34567	770
3.34933	771
3.35300	771
3.35667	772
3.36033	772
3.36400	767
3.36767	766
3.37133	771
3.37500	776
3.37867	779
3.38233	778
3.38600	774
3.38967	771
3.39333	769
3.39700	769
3.40067	767
3.40433	763
3.40800	760
3.41167	758
3.41533	755
3.41900	752
3.42267	748
3.42633	742
3.43000	732
3.43367	725
3.43733	722
3.44100	720
3.44467	717
3.44833	714
3.45200	713
3.45567	711
3.45933	707
3.46300	699
3.46667	692
3.47033	686
3.47400	682
3.47767	677
3.48133	672
3.48500	669
3.48867	667
3.49233	663
3.49600	656
3.49967	652
3.50333	649
3.50700	647
3.51067	643
3.51433	641
3.51800	638
3.52167	638
3.52533	637
3.52900	636
3.53267	634
3.53633	634
3.54000	634
3.54367	630
3.54733	628
3.55100	626
3.55467	624
3.55833	621
3.56200	618
3.56567	615
3.56933	613
3.57300	614
3.57667	616
3.58033	614
3.58400	612
3.58767	611
3.59133	610
3.59500	610
3.59867	610
3.60233	612
3.60600	613
3.60967	614
3.61333	611
3.61700	611
3.62067	610
3.62433	609
3.62800	608
3.63167	605
3.63533	604
3.63900	603
3.64267	600
3.64633	597
3.65000	594
3.65367	595
3.65733	594
3.66100	591
3.66467	591
3.66833	591
3.67200	591
3.67567	591
3.67933	589
3.68300	587
3.68667	586
3.69033	586
3.69400	588
3.69767	589
3.70133	589
3.70500	591
3.70867	593
3.71233	592
3.71600	589
3.71967	587
3.72333	585
3.72700	582
3.73067	583
3.73433	583
3.73800	582
3.74167	579
3.74533	579
3.74900	580
3.75267	580
3.75633	581
3.76000	582
3.76367	583
3.76733	583
3.77100	582
3.77467	581
3.77833	578
3.78200	574
3.78567	572
3.78933	568
3.79300	566
3.79667	566
3.80033	566
3.80400	569
3.80767	570
3.81133	568
3.81500	566
3.81867	565
3.82233	562
3.82600	559
3.82967	557
3.83333	558
3.83700	559
3.84067	558
3.84433	556
3.84800	554
3.85167	553
3.85533	555
3.85900	555
3.86267	554
3.86633	551
3.87000	546
3.87367	542
3.87733	540
3.88100	539
3.88467	536
3.88833	536
3.89200	537
3.89567	536
3.89933	537
3.90300	537
3.90667	536
3.91033	536
3.91400	533
3.91767	532
3.92133	530
3.92500	528
3.92867	529
3.93233	531
3.93600	533
3.93967	534
3.94333	533
3.94700	531
3.95067	528
3.95433	524
3.95800	522
3.96167	522
3.96533	523
3.96900	522
3.97267	521
3.97633	520
3.98000	520
3.98367	520
3.98733	519
3.99100	518
3.99467	515
3.99833	509

[Status Trace (Column Oven Temperature)]
Interval(msec)	1000
# of Points	240
Start Time(min)	0.005
End Time(min)	3.988
Intensity Units	
Intensity Multiplier	1
R.Time (min)	Intensity
0.00463	35.02
0.02130	35.02
0.03797	35.03
0.05463	35.02
0.07130	35.02
0.08797	35.03
0.10463	35.02
0.12130	35.03
0.13797	35.03
0.15463	35.03
0.17130	35.03
0.18797	35.02
0.20463	35.02
0.22130	35.02
0.23797	35.02
0.25463	35.01
0.27130	35.01
0.28797	35.02
0.30463	35.02
0.32130	35.02
0.33797	35.02
0.35463	35.02
0.37130	35.01
0.38797	35.02
0.40463	35.01
0.42130	35.00
0.43797	35.01
0.45463	35.01
0.47130	35.00
0.48797	35.01
0.50463	35.02
0.52130	35.01
0.53797	35.01
0.55463	35.01
0.57130	35.01
0.58797	35.01
0.60463	35.00
0.62130	35.00
0.63797	35.00
0.65463	34.99
0.67130	34.99
0.68797	34.99
0.70463	34.99
0.72130	34.99
0.73797	35.00
0.75463	35.00
0.77130	34.99
0.78797	34.99
0.80463	35.00
0.82130	35.01
0.83797	35.01
0.85463	35.02
0.87130	35.02
0.88797	35.02
0.90463	35.02
0.92130	35.02
0.93797	35.02
0.95463	35.02
0.97130	35.02
0.98797	35.01
1.00463	35.00
1.02130	34.99
1.03797	34.98
1.05463	34.98
1.07130	34.98
1.08797	34.98
1.10463	34.98
1.12130	34.98
1.13797	34.99
1.15463	35.00
1.17130	35.00
1.18797	35.01
1.20463	35.00
1.22130	35.00
1.23797	35.00
1.25463	35.00
1.27130	35.00
1.28797	35.00
1.30463	35.00
1.32130	34.99
1.33797	34.98
1.35463	34.98
1.37130	34.98
1.38797	34.99
1.40463	34.99
1.42130	34.99
1.43797	35.00
1.45463	35.00
1.47130	35.00
1.48797	35.01
1.50463	35.01
1.52130	35.00
1.53797	34.99
1.55463	35.00
1.57130	35.01
1.58797	35.01
1.60463	35.05
1.62130	35.16
1.63797	35.31
1.65463	35.53
1.67130	35.85
1.68797	36.23
1.70463	36.58
1.72130	36.92
1.73797	37.27
1.75463	37.60
1.77130	37.92
1.78797	38.25
1.80463	38.57
1.82130	38.91
1.83797	39.23
1.85463	39.57
1.87130	39.90
1.88797	40.21
1.90463	40.53
1.92130	40.87
1.93797	41.19
1.95463	41.53
1.97130	41.86
1.98797	42.16
2.00463	42.50
2.02130	42.80
2.03797	43.13
2.05463	43.48
2.07130	43.80
2.08797	44.12
2.10463	44.47
2.12130	44.80
2.13797	45.12
2.15463	45.44
2.17130	45.77
2.18797	46.09
2.20463	46.44
2.22130	46.75
2.23797	47.07
2.25463	47.41
2.27130	47.74
2.28797	48.10
2.30463	48.43
2.32130	48.76
2.33797	49.09
2.35463	49.37
2.37130	49.59
2.38797	49.69
2.40463	49.69
2.42130	49.71
2.43797	49.71
2.45463	49.73
2.47130	49.74
2.48797	49.74
2.50463	49.75
2.52130	49.76
2.53797	49.77
2.55463	49.79
2.57130	49.80
2.58797	49.81
2.60463	49.81
2.62130	49.81
2.63797	49.81
2.65463	49.82
2.67130	49.83
2.68797	49.83
2.70463	49.86
2.72130	49.86
2.73797	49.86
2.75463	49.85
2.77130	49.85
2.78797	49.87
2.80463	49.89
2.82130	49.89
2.83797	49.89
2.85463	49.90
2.87130	49.91
2.88797	49.92
2.90463	49.93
2.92130	49.94
2.93797	49.95
2.95463	49.96
2.97130	49.98
2.98797	49.99
3.00463	50.00
3.02130	50.01
3.03797	50.01
3.05463	50.01
3.07130	50.02
3.08797	50.03
3.10463	50.03
3.12130	50.04
3.13797	50.04
3.15463	50.06
3.17130	50.07
3.18797	50.08
3.20463	50.09
3.22130	50.10
3.23797	50.11
3.25463	50.11
3.27130	50.10
3.28797	50.09
3.30463	50.09
3.32130	50.08
3.33797	50.08
3.35463	50.07
3.37130	50.06
3.38797	50.05
3.40463	50.05
3.42130	50.05
3.43797	50.04
3.45463	50.04
3.47130	50.05
3.48797	50.05
3.50463	50.05
3.52130	50.06
3.53797	50.06
3.55463	50.07
3.57130	50.07
3.58797	50.07
3.60463	50.07
3.62130	50.07
3.63797	50.08
3.65463	50.08
3.67130	50.07
3.68797	50.07
3.70463	50.07
3.72130	50.08
3.73797	50.07
3.75463	50.08
3.77130	50.08
3.78797	50.07
3.80463	50.07
3.82130	50.07
3.83797	50.06
3.85463	50.06
3.87130	50.07
3.88797	50.06
3.90463	50.06
3.92130	50.05
3.93797	50.05
3.95463	50.05
3.97130	50.06
3.98797	50.06

[Status Trace (Injection Unit Temperature)]
Interval(msec)	1000
# of Points	240
Start Time(min)	0.005
End Time(min)	3.988
Intensity Units	
Intensity Multiplier	1
R.Time (min)	Intensity
0.00463	99.98
0.02130	99.98
0.03797	99.98
0.05463	99.98
0.07130	99.98
0.08797	99.98
0.10463	99.98
0.12130	99.98
0.13797	99.98
0.15463	99.98
0.17130	99.98
0.18797	99.98
0.20463	99.98
0.22130	99.98
0.23797	99.98
0.25463	99.98
0.27130	99.98
0.28797	99.98
0.30463	99.98
0.32130	99.98
0.33797	99.98
0.35463	99.98
0.37130	99.98
0.38797	99.98
0.40463	99.98
0.42130	99.98
0.43797	99.98
0.45463	99.98
0.47130	99.98
0.48797	99.98
0.50463	99.98
0.52130	99.98
0.53797	99.98
0.55463	99.98
0.57130	99.98
0.58797	99.98
0.60463	99.98
0.62130	99.98
0.63797	99.98
0.65463	99.98
0.67130	99.98
0.68797	99.98
0.70463	99.98
0.72130	99.98
0.73797	99.98
0.75463	99.98
0.77130	99.98
0.78797	99.98
0.80463	99.98
0.82130	99.98
0.83797	99.98
0.85463	99.98
0.87130	99.98
0.88797	99.98
0.90463	99.98
0.92130	99.98
0.93797	99.98
0.95463	99.98
0.97130	99.98
0.98797	99.98
1.00463	99.99
1.02130	99.99
1.03797	99.98
1.05463	99.98
1.07130	99.99
1.08797	99.98
1.10463	99.99
1.12130	99.98
1.13797	99.99
1.15463	99.99
1.17130	99.99
1.18797	99.98
1.20463	99.99
1.22130	99.98
1.23797	99.99
1.25463	99.99
1.27130	99.99
1.28797	99.99
1.30463	99.99
1.32130	99.99
1.33797	99.98
1.35463	99.98
1.37130	99.99
1.38797	99.99
1.40463	99.98
1.42130	99.99
1.43797	99.99
1.45463	99.98
1.47130	99.98
1.48797	99.98
1.50463	99.98
1.52130	99.98
1.53797	99.98
1.55463	99.98
1.57130	99.98
1.58797	99.98
1.60463	99.98
1.62130	99.98
1.63797	99.98
1.65463	99.98
1.67130	99.98
1.68797	99.98
1.70463	99.98
1.72130	99.98
1.73797	99.98
1.75463	99.98
1.77130	99.98
1.78797	99.98
1.80463	99.98
1.82130	99.98
1.83797	99.98
1.85463	99.98
1.87130	99.98
1.88797	99.97
1.90463	99.98
1.92130	99.97
1.93797	99.97
1.95463	99.97
1.97130	99.97
1.98797	99.97
2.00463	99.97
2.02130	99.97
2.03797	99.97
2.05463	99.97
2.07130	99.96
2.08797	99.96
2.10463	99.96
2.12130	99.97
2.13797	99.97
2.15463	99.96
2.17130	99.97
2.18797	99.97
2.20463	99.96
2.22130	99.96
2.23797	99.96
2.25463	99.97
2.27130	99.97
2.28797	99.97
2.30463	99.97
2.32130	99.96
2.33797	99.96
2.35463	99.96
2.37130	99.96
2.38797	99.97
2.40463	99.97
2.42130	99.97
2.43797	99.97
2.45463	99.97
2.47130	99.97
2.48797	99.97
2.50463	99.97
2.52130	99.97
2.53797	99.97
2.55463	99.97
2.57130	99.97
2.58797	99.97
2.60463	99.98
2.62130	99.98
2.63797	99.97
2.65463	99.98
2.67130	99.98
2.68797	99.98
2.70463	99.98
2.72130	99.98
2.73797	99.98
2.75463	99.98
2.77130	99.98
2.78797	99.98
2.80463	99.99
2.82130	99.99
2.83797	99.99
2.85463	99.99
2.87130	99.99
2.88797	99.99
2.90463	100.00
2.92130	99.99
2.93797	100.00
2.95463	100.00
2.97130	100.00
2.98797	100.00
3.00463	100.00
3.02130	100.00
3.03797	100.00
3.05463	100.00
3.07130	100.00
3.08797	100.00
3.10463	100.01
3.12130	100.01
3.13797	100.00
3.15463	100.01
3.17130	100.01
3.18797	100.01
3.20463	100.01
3.22130	100.01
3.23797	100.01
3.25463	100.02
3.27130	100.01
3.28797	100.01
3.30463	100.01
3.32130	100.02
3.33797	100.02
3.35463	100.02
3.37130	100.02
3.38797	100.02
3.40463	100.02
3.42130	100.02
3.43797	100.02
3.45463	100.02
3.47130	100.02
3.48797	100.02
3.50463	100.02
3.52130	100.02
3.53797	100.02
3.55463	100.02
3.57130	100.03
3.58797	100.02
3.60463	100.03
3.62130	100.03
3.63797	100.03
3.65463	100.03
3.67130	100.03
3.68797	100.03
3.70463	100.03
3.72130	100.04
3.73797	100.04
3.75463	100.04
3.77130	100.04
3.78797	100.04
3.80463	100.04
3.82130	100.04
3.83797	100.05
3.85463	100.04
3.87130	100.04
3.88797	100.04
3.90463	100.04
3.92130	100.04
3.93797	100.04
3.95463	100.04
3.97130	100.05
3.98797	100.05

[Status Trace (Carrier Gas Pressure)]
Interval(msec)	1000
# of Points	240
Start Time(min)	0.005
End Time(min)	3.988
Intensity Units	
Intensity Multiplier	1
R.Time (min)	Intensity
0.00463	58.00
0.02130	55.93
0.03797	56.60
0.05463	58.84
0.07130	59.81
0.08797	58.21
0.10463	57.97
0.12130	58.01
0.13797	58.01
0.15463	58.01
0.17130	58.00
0.18797	58.00
0.20463	58.00
0.22130	58.00
0.23797	58.00
0.25463	58.00
0.27130	58.00
0.28797	58.00
0.30463	58.00
0.32130	58.00
0.33797	58.00
0.35463	58.00
0.37130	58.00
0.38797	58.00
0.40463	58.00
0.42130	58.00
0.43797	58.00
0.45463	58.00
0.47130	58.00
0.48797	58.00
0.50463	58.00
0.52130	58.00
0.53797	58.00
0.55463	58.00
0.57130	58.00
0.58797	58.00
0.60463	58.00
0.62130	58.00
0.63797	58.00
0.65463	58.00
0.67130	58.00
0.68797	58.00
0.70463	58.00
0.72130	58.00
0.73797	58.00
0.75463	58.00
0.77130	58.00
0.78797	58.00
0.80463	58.00
0.82130	58.00
0.83797	58.00
0.85463	58.00
0.87130	58.00
0.88797	58.00
0.90463	58.00
0.92130	58.00
0.93797	58.00
0.95463	58.00
0.97130	58.00
0.98797	58.00
1.00463	58.00
1.02130	58.00
1.03797	58.00
1.05463	58.00
1.07130	58.00
1.08797	58.00
1.10463	58.00
1.12130	58.00
1.13797	58.00
1.15463	58.00
1.17130	58.00
1.18797	58.00
1.20463	58.00
1.22130	58.00
1.23797	58.00
1.25463	58.00
1.27130	58.00
1.28797	58.00
1.30463	58.00
1.32130	58.00
1.33797	58.00
1.35463	58.00
1.37130	58.00
1.38797	58.00
1.40463	58.00
1.42130	58.00
1.43797	58.00
1.45463	58.00
1.47130	58.00
1.48797	58.00
1.50463	58.00
1.52130	58.00
1.53797	58.00
1.55463	58.00
1.57130	58.00
1.58797	58.00
1.60463	58.00
1.62130	58.00
1.63797	58.00
1.65463	58.00
1.67130	58.01
1.68797	58.01
1.70463	58.00
1.72130	58.00
1.73797	58.00
1.75463	58.00
1.77130	58.00
1.78797	58.00
1.80463	58.00
1.82130	58.00
1.83797	58.00
1.85463	58.00
1.87130	58.00
1.88797	58.00
1.90463	58.00
1.92130	58.00
1.93797	58.00
1.95463	58.00
1.97130	58.00
1.98797	58.00
2.00463	58.00
2.02130	58.00
2.03797	58.00
2.05463	58.00
2.07130	58.00
2.08797	58.00
2.10463	58.00
2.12130	58.00
2.13797	58.00
2.15463	58.00
2.17130	58.00
2.18797	58.00
2.20463	58.00
2.22130	58.00
2.23797	58.00
2.25463	58.00
2.27130	58.00
2.28797	58.00
2.30463	58.00
2.32130	58.00
2.33797	58.00
2.35463	58.00
2.37130	58.00
2.38797	57.99
2.40463	57.99
2.42130	58.00
2.43797	58.00
2.45463	58.00
2.47130	58.00
2.48797	58.00
2.50463	57.99
2.52130	57.99
2.53797	58.00
2.55463	58.00
2.57130	58.00
2.58797	58.00
2.60463	58.00
2.62130	58.00
2.63797	58.00
2.65463	58.00
2.67130	58.00
2.68797	58.00
2.70463	58.00
2.72130	58.00
2.73797	58.00
2.75463	58.00
2.77130	58.00
2.78797	58.00
2.80463	58.00
2.82130	58.00
2.83797	58.00
2.85463	58.00
2.87130	58.00
2.88797	58.00
2.90463	58.00
2.92130	58.00
2.93797	58.00
2.95463	58.00
2.97130	58.00
2.98797	58.00
3.00463	58.00
3.02130	58.00
3.03797	58.00
3.05463	58.00
3.07130	58.00
3.08797	58.00
3.10463	58.00
3.12130	58.00
3.13797	58.00
3.15463	58.00
3.17130	58.00
3.18797	58.00
3.20463	58.00
3.22130	58.00
3.23797	58.00
3.25463	58.00
3.27130	58.00
3.28797	58.00
3.30463	58.00
3.32130	58.00
3.33797	58.00
3.35463	58.00
3.37130	58.00
3.38797	58.00
3.40463	58.00
3.42130	58.00
3.43797	58.00
3.45463	58.00
3.47130	58.00
3.48797	58.00
3.50463	58.00
3.52130	58.00
3.53797	58.00
3.55463	58.00
3.57130	58.00
3.58797	58.00
3.60463	58.00
3.62130	58.00
3.63797	58.00
3.65463	58.00
3.67130	58.00
3.68797	58.00
3.70463	58.00
3.72130	58.00
3.73797	58.00
3.75463	58.00
3.77130	58.00
3.78797	58.00
3.80463	58.00
3.82130	58.00
3.83797	58.00
3.85463	58.00
3.87130	58.00
3.88797	58.00
3.90463	58.00
3.92130	58.00
3.93797	58.00
3.95463	58.00
3.97130	58.00
3.98797	58.00

[Status Trace (Carrier Gas Flow)]
Interval(msec)	1000
# of Points	240
Start Time(min)	0.005
End Time(min)	3.988
Intensity Units	
Intensity Multiplier	1
R.Time (min)	Intensity
0.00463	34.52
0.02130	34.56
0.03797	34.54
0.05463	34.54
0.07130	34.50
0.08797	34.52
0.10463	34.52
0.12130	34.52
0.13797	34.52
0.15463	34.53
0.17130	34.51
0.18797	34.52
0.20463	34.52
0.22130	34.52
0.23797	34.51
0.25463	34.52
0.27130	34.51
0.28797	34.52
0.30463	34.51
0.32130	34.53
0.33797	34.52
0.35463	34.52
0.37130	34.52
0.38797	34.52
0.40463	34.52
0.42130	34.52
0.43797	34.51
0.45463	34.52
0.47130	34.51
0.48797	34.51
0.50463	34.52
0.52130	34.51
0.53797	34.52
0.55463	34.52
0.57130	34.52
0.58797	34.52
0.60463	34.52
0.62130	34.53
0.63797	34.52
0.65463	34.52
0.67130	34.51
0.68797	34.52
0.70463	34.52
0.72130	34.52
0.73797	34.52
0.75463	34.52
0.77130	34.52
0.78797	34.52
0.80463	34.51
0.82130	34.52
0.83797	34.52
0.85463	34.51
0.87130	34.52
0.88797	34.52
0.90463	34.52
0.92130	34.51
0.93797	34.52
0.95463	34.52
0.97130	34.52
0.98797	34.52
1.00463	34.52
1.02130	34.52
1.03797	34.52
1.05463	34.52
1.07130	34.52
1.08797	34.52
1.10463	34.51
1.12130	34.52
1.13797	34.52
1.15463	34.52
1.17130	34.52
1.18797	34.52
1.20463	34.52
1.22130	34.53
1.23797	34.52
1.25463	34.52
1.27130	34.52
1.28797	34.52
1.30463	34.52
1.32130	34.51
1.33797	34.51
1.35463	34.52
1.37130	34.52
1.38797	34.52
1.40463	34.51
1.42130	34.51
1.43797	34.52
1.45463	34.52
1.47130	34.52
1.48797	34.52
1.50463	34.52
1.52130	34.52
1.53797	34.52
1.55463	34.52
1.57130	34.52
1.58797	34.52
1.60463	34.52
1.62130	34.52
1.63797	34.52
1.65463	34.52
1.67130	34.52
1.68797	34.52
1.70463	34.53
1.72130	34.52
1.73797	34.52
1.75463	34.52
1.77130	34.51
1.78797	34.52
1.80463	34.52
1.82130	34.52
1.83797	34.51
1.85463	34.51
1.87130	34.52
1.88797	34.52
1.90463	34.52
1.92130	34.52
1.93797	34.52
1.95463	34.52
1.97130	34.52
1.98797	34.52
2.00463	34.52
2.02130	34.52
2.03797	34.52
2.05463	34.52
2.07130	34.52
2.08797	34.52
2.10463	34.52
2.12130	34.52
2.13797	34.52
2.15463	34.52
2.17130	34.52
2.18797	34.52
2.20463	34.52
2.22130	34.52
2.23797	34.52
2.25463	34.52
2.27130	34.52
2.28797	34.52
2.30463	34.52
2.32130	34.52
2.33797	34.52
2.35463	34.52
2.37130	34.52
2.38797	34.52
2.40463	34.52
2.42130	34.51
2.43797	34.51
2.45463	34.52
2.47130	34.52
2.48797	34.53
2.50463	34.55
2.52130	34.53
2.53797	34.52
2.55463	34.52
2.57130	34.52
2.58797	34.52
2.60463	34.52
2.62130	34.52
2.63797	34.52
2.65463	34.52
2.67130	34.52
2.68797	34.53
2.70463	34.52
2.72130	34.51
2.73797	34.52
2.75463	34.51
2.77130	34.52
2.78797	34.52
2.80463	34.52
2.82130	34.52
2.83797	34.52
2.85463	34.51
2.87130	34.52
2.88797	34.52
2.90463	34.51
2.92130	34.53
2.93797	34.52
2.95463	34.52
2.97130	34.51
2.98797	34.52
3.00463	34.52
3.02130	34.52
3.03797	34.52
3.05463	34.52
3.07130	34.52
3.08797	34.51
3.10463	34.52
3.12130	34.52
3.13797	34.52
3.15463	34.52
3.17130	34.52
3.18797	34.52
3.20463	34.52
3.22130	34.52
3.23797	34.52
3.25463	34.52
3.27130	34.52
3.28797	34.52
3.30463	34.52
3.32130	34.52
3.33797	34.51
3.35463	34.52
3.37130	34.52
3.38797	34.51
3.40463	34.52
3.42130	34.52
3.43797	34.52
3.45463	34.52
3.47130	34.52
3.48797	34.52
3.50463	34.52
3.52130	34.52
3.53797	34.52
3.55463	34.52
3.57130	34.52
3.58797	34.52
3.60463	34.52
3.62130	34.52
3.63797	34.52
3.65463	34.52
3.67130	34.52
3.68797	34.52
3.70463	34.52
3.72130	34.52
3.73797	34.52
3.75463	34.52
3.77130	34.52
3.78797	34.51
3.80463	34.52
3.82130	34.52
3.83797	34.51
3.85463	34.53
3.87130	34.51
3.88797	34.52
3.90463	34.51
3.92130	34.52
3.93797	34.52
3.95463	34.52
3.97130	34.51
3.98797	34.52

[Status Trace (Column Flow)]
Interval(msec)	1000
# of Points	240
Start Time(min)	0.005
End Time(min)	3.988
Intensity Units	
Intensity Multiplier	1
R.Time (min)	Intensity
0.00463	5.51
0.02130	5.27
0.03797	5.34
0.05463	5.61
0.07130	5.72
0.08797	5.53
0.10463	5.50
0.12130	5.51
0.13797	5.51
0.15463	5.51
0.17130	5.51
0.18797	5.51
0.20463	5.51
0.22130	5.51
0.23797	5.51
0.25463	5.51
0.27130	5.51
0.28797	5.51
0.30463	5.51
0.32130	5.51
0.33797	5.51
0.35463	5.51
0.37130	5.51
0.38797	5.51
0.40463	5.51
0.42130	5.51
0.43797	5.51
0.45463	5.51
0.47130	5.51
0.48797	5.51
0.50463	5.51
0.52130	5.51
0.53797	5.51
0.55463	5.51
0.57130	5.51
0.58797	5.51
0.60463	5.51
0.62130	5.51
0.63797	5.51
0.65463	5.51
0.67130	5.51
0.68797	5.51
0.70463	5.51
0.72130	5.51
0.73797	5.51
0.75463	5.51
0.77130	5.51
0.78797	5.51
0.80463	5.51
0.82130	5.51
0.83797	5.51
0.85463	5.51
0.87130	5.51
0.88797	5.51
0.90463	5.51
0.92130	5.51
0.93797	5.51
0.95463	5.51
0.97130	5.51
0.98797	5.51
1.00463	5.51
1.02130	5.51
1.03797	5.51
1.05463	5.51
1.07130	5.51
1.08797	5.51
1.10463	5.51
1.12130	5.51
1.13797	5.51
1.15463	5.51
1.17130	5.51
1.18797	5.51
1.20463	5.51
1.22130	5.51
1.23797	5.51
1.25463	5.51
1.27130	5.51
1.28797	5.51
1.30463	5.51
1.32130	5.51
1.33797	5.51
1.35463	5.51
1.37130	5.51
1.38797	5.51
1.40463	5.51
1.42130	5.51
1.43797	5.51
1.45463	5.51
1.47130	5.51
1.48797	5.51
1.50463	5.51
1.52130	5.51
1.53797	5.51
1.55463	5.51
1.57130	5.51
1.58797	5.51
1.60463	5.51
1.62130	5.50
1.63797	5.50
1.65463	5.49
1.67130	5.48
1.68797	5.47
1.70463	5.46
1.72130	5.45
1.73797	5.44
1.75463	5.43
1.77130	5.42
1.78797	5.41
1.80463	5.40
1.82130	5.39
1.83797	5.38
1.85463	5.37
1.87130	5.36
1.88797	5.35
1.90463	5.34
1.92130	5.33
1.93797	5.32
1.95463	5.31
1.97130	5.30
1.98797	5.29
2.00463	5.28
2.02130	5.27
2.03797	5.26
2.05463	5.25
2.07130	5.24
2.08797	5.23
2.10463	5.22
2.12130	5.21
2.13797	5.20
2.15463	5.19
2.17130	5.18
2.18797	5.17
2.20463	5.16
2.22130	5.16
2.23797	5.15
2.25463	5.14
2.27130	5.13
2.28797	5.12
2.30463	5.11
2.32130	5.10
2.33797	5.09
2.35463	5.08
2.37130	5.08
2.38797	5.07
2.40463	5.07
2.42130	5.07
2.43797	5.07
2.45463	5.07
2.47130	5.07
2.48797	5.07
2.50463	5.07
2.52130	5.07
2.53797	5.07
2.55463	5.07
2.57130	5.07
2.58797	5.07
2.60463	5.07
2.62130	5.07
2.63797	5.07
2.65463	5.07
2.67130	5.07
2.68797	5.07
2.70463	5.07
2.72130	5.07
2.73797	5.07
2.75463	5.07
2.77130	5.07
2.78797	5.07
2.80463	5.07
2.82130	5.07
2.83797	5.07
2.85463	5.07
2.87130	5.07
2.88797	5.07
2.90463	5.07
2.92130	5.07
2.93797	5.07
2.95463	5.07
2.97130	5.07
2.98797	5.07
3.00463	5.07
3.02130	5.06
3.03797	5.06
3.05463	5.06
3.07130	5.06
3.08797	5.06
3.10463	5.06
3.12130	5.06
3.13797	5.06
3.15463	5.06
3.17130	5.06
3.18797	5.06
3.20463	5.06
3.22130	5.06
3.23797	5.06
3.25463	5.06
3.27130	5.06
3.28797	5.06
3.30463	5.06
3.32130	5.06
3.33797	5.06
3.35463	5.06
3.37130	5.06
3.38797	5.06
3.40463	5.06
3.42130	5.06
3.43797	5.06
3.45463	5.06
3.47130	5.06
3.48797	5.06
3.50463	5.06
3.52130	5.06
3.53797	5.06
3.55463	5.06
3.57130	5.06
3.58797	5.06
3.60463	5.06
3.62130	5.06
3.63797	5.06
3.65463	5.06
3.67130	5.06
3.68797	5.06
3.70463	5.06
3.72130	5.06
3.73797	5.06
3.75463	5.06
3.77130	5.06
3.78797	5.06
3.80463	5.06
3.82130	5.06
3.83797	5.06
3.85463	5.06
3.87130	5.06
3.88797	5.06
3.90463	5.06
3.92130	5.06
3.93797	5.06
3.95463	5.06
3.97130	5.06
3.98797	5.06

[Status Trace (Linear Velocity)]
Interval(msec)	1000
# of Points	240
Start Time(min)	0.005
End Time(min)	3.988
Intensity Units	
Intensity Multiplier	1
R.Time (min)	Intensity
0.00463	39.01
0.02130	37.66
0.03797	38.09
0.05463	39.56
0.07130	40.19
0.08797	39.15
0.10463	38.99
0.12130	39.01
0.13797	39.02
0.15463	39.01
0.17130	39.01
0.18797	39.01
0.20463	39.01
0.22130	39.01
0.23797	39.01
0.25463	39.01
0.27130	39.01
0.28797	39.01
0.30463	39.01
0.32130	39.01
0.33797	39.01
0.35463	39.01
0.37130	39.01
0.38797	39.01
0.40463	39.01
0.42130	39.01
0.43797	39.01
0.45463	39.01
0.47130	39.01
0.48797	39.01
0.50463	39.01
0.52130	39.01
0.53797	39.01
0.55463	39.01
0.57130	39.01
0.58797	39.01
0.60463	39.01
0.62130	39.01
0.63797	39.01
0.65463	39.01
0.67130	39.01
0.68797	39.01
0.70463	39.01
0.72130	39.01
0.73797	39.01
0.75463	39.01
0.77130	39.01
0.78797	39.01
0.80463	39.01
0.82130	39.01
0.83797	39.01
0.85463	39.01
0.87130	39.01
0.88797	39.01
0.90463	39.01
0.92130	39.01
0.93797	39.01
0.95463	39.01
0.97130	39.01
0.98797	39.01
1.00463	39.01
1.02130	39.01
1.03797	39.01
1.05463	39.02
1.07130	39.02
1.08797	39.02
1.10463	39.01
1.12130	39.02
1.13797	39.01
1.15463	39.01
1.17130	39.01
1.18797	39.01
1.20463	39.01
1.22130	39.01
1.23797	39.01
1.25463	39.01
1.27130	39.01
1.28797	39.01
1.30463	39.01
1.32130	39.01
1.33797	39.01
1.35463	39.01
1.37130	39.01
1.38797	39.01
1.40463	39.01
1.42130	39.01
1.43797	39.01
1.45463	39.01
1.47130	39.01
1.48797	39.01
1.50463	39.01
1.52130	39.01
1.53797	39.01
1.55463	39.01
1.57130	39.01
1.58797	39.01
1.60463	39.01
1.62130	39.00
1.63797	38.99
1.65463	38.96
1.67130	38.94
1.68797	38.90
1.70463	38.86
1.72130	38.83
1.73797	38.80
1.75463	38.76
1.77130	38.73
1.78797	38.70
1.80463	38.67
1.82130	38.64
1.83797	38.61
1.85463	38.58
1.87130	38.55
1.88797	38.52
1.90463	38.49
1.92130	38.46
1.93797	38.43
1.95463	38.40
1.97130	38.36
1.98797	38.34
2.00463	38.31
2.02130	38.28
2.03797	38.25
2.05463	38.22
2.07130	38.19
2.08797	38.16
2.10463	38.13
2.12130	38.10
2.13797	38.07
2.15463	38.04
2.17130	38.01
2.18797	37.98
2.20463	37.95
2.22130	37.92
2.23797	37.89
2.25463	37.86
2.27130	37.83
2.28797	37.80
2.30463	37.77
2.32130	37.74
2.33797	37.71
2.35463	37.68
2.37130	37.66
2.38797	37.65
2.40463	37.65
2.42130	37.65
2.43797	37.65
2.45463	37.65
2.47130	37.65
2.48797	37.65
2.50463	37.65
2.52130	37.65
2.53797	37.65
2.55463	37.65
2.57130	37.65
2.58797	37.65
2.60463	37.65
2.62130	37.65
2.63797	37.65
2.65463	37.65
2.67130	37.64
2.68797	37.64
2.70463	37.64
2.72130	37.64
2.73797	37.64
2.75463	37.64
2.77130	37.64
2.78797	37.64
2.80463	37.64
2.82130	37.64
2.83797	37.64
2.85463	37.64
2.87130	37.64
2.88797	37.64
2.90463	37.64
2.92130	37.63
2.93797	37.63
2.95463	37.63
2.97130	37.63
2.98797	37.63
3.00463	37.63
3.02130	37.63
3.03797	37.63
3.05463	37.63
3.07130	37.63
3.08797	37.63
3.10463	37.63
3.12130	37.63
3.13797	37.63
3.15463	37.62
3.17130	37.62
3.18797	37.62
3.20463	37.62
3.22130	37.62
3.23797	37.62
3.25463	37.62
3.27130	37.62
3.28797	37.62
3.30463	37.62
3.32130	37.62
3.33797	37.62
3.35463	37.62
3.37130	37.62
3.38797	37.62
3.40463	37.62
3.42130	37.62
3.43797	37.63
3.45463	37.63
3.47130	37.63
3.48797	37.62
3.50463	37.62
3.52130	37.62
3.53797	37.62
3.55463	37.62
3.57130	37.62
3.58797	37.62
3.60463	37.62
3.62130	37.62
3.63797	37.62
3.65463	37.62
3.67130	37.62
3.68797	37.62
3.70463	37.62
3.72130	37.62
3.73797	37.62
3.75463	37.62
3.77130	37.62
3.78797	37.62
3.80463	37.62
3.82130	37.62
3.83797	37.62
3.85463	37.62
3.87130	37.62
3.88797	37.62
3.90463	37.62
3.92130	37.62
3.93797	37.62
3.95463	37.62
3.97130	37.62
3.98797	37.62

