[Header]
Application Name	LabSolutions
Version	5.110
Data File Name	C:\Users\User\Desktop\Junior\UIC Prairie Sampling\7.18.23\071823_074.gcd
Output Date	8/29/2023
Output Time	10:40:24 AM

[File Information]
Type	Data File
Generated	8/28/2023 10:27:15 PM
Generated by	System Administrator
Modified	8/28/2023 10:33:50 PM
Modified by	System Administrator

[Sample Information]
Operator Name	System Administrator
Acquired	8/28/2023 10:29:49 PM
Sample Type	0:Unknown
Level	0
Sample Name	074
Sample ID	074
ISTD Amount1	1
ISTD Amount2	1
ISTD Amount3	1
ISTD Amount4	1
ISTD Amount5	1
ISTD Amount6	1
ISTD Amount7	1
ISTD Amount8	1
ISTD Amount9	1
ISTD Amount10	1
ISTD Amount11	1
ISTD Amount12	1
ISTD Amount13	1
ISTD Amount14	1
ISTD Amount15	1
ISTD Amount16	1
ISTD Amount17	1
ISTD Amount18	1
ISTD Amount19	1
ISTD Amount20	1
ISTD Amount21	1
ISTD Amount22	1
ISTD Amount23	1
ISTD Amount24	1
ISTD Amount25	1
ISTD Amount26	1
ISTD Amount27	1
ISTD Amount28	1
ISTD Amount29	1
ISTD Amount30	1
ISTD Amount31	1
ISTD Amount32	1
Sample Amount	1
Dilution Factor	1
Vial#	73
Injection Volume	1
Injection Count	1
Bar Code	

[Original Files]
Data File	C:\Users\User\Desktop\Junior\UIC Prairie Sampling\7.18.23\071823_074.gcd
Method File	C:\LabSolutions\Data\GHG_4min_2022\ghg3_togas_w_acet_4 min_new_int.gcm
Batch File	C:\LabSolutions\Data\BATCH FILES\071823.gcb
Report Format File	c:\LabSolutions\System\DEFAULT.lsr

[File Description]


[Configuration]
Instrument Name	C0B7VH3-Instrument1
Instrument #	1
Line #	1
# of Detectors	3
Detector ID	DET#1	DET#2	DET#3
Detector Name	FID	PTCD	ECD
# of Channels	1	1	1

[Peak Table(Ch1)]
# of Peaks	3
Peak#	R.Time	I.Time	F.Time	Area	Height	A/H	Conc.	Mark	ID#	Name	k'	Plate #	Plate Ht.	Tailing	Resolution	Sep.Factor	Area Ratio	Height Ratio	Conc. %	Norm Conc.
1	1.472	1.435	1.531	11622	5798	2.004	0.000	   	1	CO	0.000	9971	15.044	1.285	0.000	0.000	0	0	0.000	0.000
2	1.564	1.531	1.626	4369	2183	2.001	21.298	 V 	2	CH4	0.062	11277	13.302	0.000	1.555	0.000	0	0	3.562	3.562
3	1.989	1.941	2.660	2991945	1435434	2.084	576.603	   	3	CO2	0.351	17408	8.617	1.303	7.136	5.640	0	0	96.438	96.438

[Peak Table(Ch2)]
# of Peaks	0

[Peak Table(Ch3)]
# of Peaks	5
Peak#	R.Time	I.Time	F.Time	Area	Height	A/H	Conc.	Mark	ID#	Name	k'	Plate #	Plate Ht.	Tailing	Resolution	Sep.Factor	Area Ratio	Height Ratio	Conc. %	Norm Conc.
1	2.458	2.330	2.506	837	268	3.124	0.000	   			0.000	15172	9.887	0.000	0.000	0.000	0	0	0.000	0.000
2	2.517	2.506	2.561	165	87	1.900	0.000	 V 			0.024	10036	14.946	0.000	0.651	0.000	0	0	0.000	0.000
3	2.620	2.561	2.682	264	81	3.240	0.000	 V 			0.066	11923	12.581	0.000	1.045	2.750	0	0	0.000	0.000
4	2.891	2.711	2.990	15134	3894	3.886	0.224	   	1	N2O	0.176	13200	11.363	1.474	2.760	2.682	0	0	100.000	100.000
5	3.052	2.990	3.712	20175	977	20.649	0.000	   	2	SF6	0.242	374	400.863	5.783	0.441	1.373	0	0	0.000	0.000

[Compound Results(Ch1)]
# of IDs	6
ID#	Name	R.Time	Area	Height	Conc.	Curve	3rd	2nd	1st	Constant	Area Ratio	Height Ratio	Conc. %	Norm Conc.
1	CO	1.472	11622	5798	0.000	Linear	0.000000e+00	0.000000e+00	0.000000e+00	0.000000e+00	0	0	0.000	0.000
2	CH4	1.564	4369	2183	21.298	Linear	0.000000e+00	0.000000e+00	2.051179e+002	0.000000e+00	0	0	3.562	3.562
3	CO2	1.989	2991945	1435434	576.603	Linear	0.000000e+00	0.000000e+00	5.188919e+003	0.000000e+00	0	0	96.438	96.438
4	Ethylene	0.000	0	0	0.000	Linear	0.000000e+00	0.000000e+00	0.000000e+00	0.000000e+00	0	0	0.000	0.000
5	Acetylene	0.000	0	0	0.000	Linear	0.000000e+00	0.000000e+00	0.000000e+00	0.000000e+00	0	0	0.000	0.000
6	Ethane	0.000	0	0	0.000	Linear	0.000000e+00	0.000000e+00	0.000000e+00	0.000000e+00	0	0	0.000	0.000

[Compound Results(Ch2)]
# of IDs	5
ID#	Name	R.Time	Area	Height	Conc.	Curve	3rd	2nd	1st	Constant	Area Ratio	Height Ratio	Conc. %	Norm Conc.
1	Hydrogen	0.000	0	0	0.000	Linear	0.000000e+00	0.000000e+00	0.000000e+00	0.000000e+00	0	0	0.000	0.000
2	Oxygen	0.000	0	0	0.000	Linear	0.000000e+00	0.000000e+00	0.000000e+00	0.000000e+00	0	0	0.000	0.000
3	Nitrogen	0.000	0	0	0.000	Linear	0.000000e+00	0.000000e+00	0.000000e+00	0.000000e+00	0	0	0.000	0.000
4	Methane	0.000	0	0	0.000	Linear	0.000000e+00	0.000000e+00	0.000000e+00	0.000000e+00	0	0	0.000	0.000
5	Carbon Monoxide	0.000	0	0	0.000	Linear	0.000000e+00	0.000000e+00	0.000000e+00	0.000000e+00	0	0	0.000	0.000

[Compound Results(Ch3)]
# of IDs	2
ID#	Name	R.Time	Area	Height	Conc.	Curve	3rd	2nd	1st	Constant	Area Ratio	Height Ratio	Conc. %	Norm Conc.
1	N2O	2.891	15134	3894	0.224	Linear	0.000000e+00	0.000000e+00	6.759880e+004	0.000000e+00	0	0	100.000	100.000
2	SF6	3.052	20175	977	0.000	Linear	0.000000e+00	0.000000e+00	0.000000e+00	0.000000e+00	0	0	0.000	0.000

[Group Results(Ch1)]
# of Groups	0

[Group Results(Ch2)]
# of Groups	0

[Group Results(Ch3)]
# of Groups	0

[Chromatogram (Ch1)]
Interval(msec)	220
# of Points	1091
Start Time(min)	0.002
End Time(min)	3.998
R.Time (min)	Intensity
0.00167	-3
0.00533	-5
0.00900	-7
0.01267	-12
0.01633	-17
0.02000	-21
0.02367	-25
0.02733	-31
0.03100	-33
0.03467	-29
0.03833	-21
0.04200	-12
0.04567	-5
0.04933	-0
0.05300	2
0.05667	2
0.06033	-1
0.06400	-2
0.06767	-0
0.07133	4
0.07500	6
0.07867	5
0.08233	3
0.08600	4
0.08967	13
0.09333	29
0.09700	40
0.10067	42
0.10433	35
0.10800	27
0.11167	22
0.11533	21
0.11900	24
0.12267	31
0.12633	36
0.13000	38
0.13367	39
0.13733	39
0.14100	36
0.14467	32
0.14833	25
0.15200	18
0.15567	12
0.15933	7
0.16300	4
0.16667	2
0.17033	1
0.17400	1
0.17767	-2
0.18133	-6
0.18500	-8
0.18867	-9
0.19233	-7
0.19600	-2
0.19967	7
0.20333	15
0.20700	18
0.21067	17
0.21433	13
0.21800	11
0.22167	9
0.22533	10
0.22900	13
0.23267	16
0.23633	16
0.24000	13
0.24367	10
0.24733	10
0.25100	15
0.25467	22
0.25833	29
0.26200	32
0.26567	31
0.26933	24
0.27300	17
0.27667	13
0.28033	12
0.28400	9
0.28767	11
0.29133	12
0.29500	14
0.29867	16
0.30233	20
0.30600	23
0.30967	27
0.31333	31
0.31700	30
0.32067	27
0.32433	23
0.32800	20
0.33167	20
0.33533	24
0.33900	28
0.34267	32
0.34633	33
0.35000	35
0.35367	37
0.35733	37
0.36100	34
0.36467	28
0.36833	21
0.37200	17
0.37567	14
0.37933	9
0.38300	6
0.38667	7
0.39033	12
0.39400	15
0.39767	16
0.40133	15
0.40500	14
0.40867	14
0.41233	15
0.41600	16
0.41967	18
0.42333	18
0.42700	16
0.43067	13
0.43433	9
0.43800	6
0.44167	5
0.44533	8
0.44900	13
0.45267	16
0.45633	19
0.46000	20
0.46367	20
0.46733	18
0.47100	15
0.47467	13
0.47833	9
0.48200	5
0.48567	4
0.48933	6
0.49300	9
0.49667	12
0.50033	14
0.50400	17
0.50767	20
0.51133	22
0.51500	23
0.51867	23
0.52233	19
0.52600	16
0.52967	14
0.53333	15
0.53700	16
0.54067	18
0.54433	20
0.54800	22
0.55167	22
0.55533	19
0.55900	15
0.56267	14
0.56633	16
0.57000	20
0.57367	23
0.57733	23
0.58100	22
0.58467	22
0.58833	20
0.59200	17
0.59567	17
0.59933	20
0.60300	20
0.60667	19
0.61033	19
0.61400	20
0.61767	18
0.62133	13
0.62500	9
0.62867	5
0.63233	2
0.63600	-1
0.63967	-1
0.64333	3
0.64700	8
0.65067	11
0.65433	12
0.65800	13
0.66167	14
0.66533	17
0.66900	20
0.67267	25
0.67633	27
0.68000	27
0.68367	25
0.68733	22
0.69100	20
0.69467	18
0.69833	15
0.70200	15
0.70567	13
0.70933	7
0.71300	0
0.71667	-3
0.72033	-5
0.72400	-3
0.72767	3
0.73133	9
0.73500	12
0.73867	11
0.74233	11
0.74600	12
0.74967	15
0.75333	18
0.75700	21
0.76067	22
0.76433	22
0.76800	21
0.77167	23
0.77533	26
0.77900	31
0.78267	31
0.78633	27
0.79000	23
0.79367	18
0.79733	13
0.80100	8
0.80467	7
0.80833	11
0.81200	17
0.81567	22
0.81933	28
0.82300	34
0.82667	39
0.83033	39
0.83400	36
0.83767	34
0.84133	32
0.84500	27
0.84867	22
0.85233	16
0.85600	12
0.85967	9
0.86333	8
0.86700	6
0.87067	7
0.87433	12
0.87800	17
0.88167	20
0.88533	24
0.88900	25
0.89267	25
0.89633	23
0.90000	19
0.90367	14
0.90733	10
0.91100	7
0.91467	10
0.91833	17
0.92200	24
0.92567	31
0.92933	36
0.93300	40
0.93667	40
0.94033	34
0.94400	26
0.94767	23
0.95133	25
0.95500	29
0.95867	32
0.96233	34
0.96600	38
0.96967	40
0.97333	42
0.97700	42
0.98067	40
0.98433	38
0.98800	36
0.99167	34
0.99533	30
0.99900	25
1.00267	19
1.00633	15
1.01000	12
1.01367	11
1.01733	11
1.02100	17
1.02467	27
1.02833	36
1.03200	41
1.03567	42
1.03933	38
1.04300	32
1.04667	25
1.05033	20
1.05400	16
1.05767	11
1.06133	8
1.06500	8
1.06867	10
1.07233	12
1.07600	14
1.07967	15
1.08333	14
1.08700	13
1.09067	12
1.09433	11
1.09800	9
1.10167	11
1.10533	13
1.10900	14
1.11267	15
1.11633	13
1.12000	12
1.12367	10
1.12733	11
1.13100	12
1.13467	13
1.13833	13
1.14200	13
1.14567	16
1.14933	18
1.15300	20
1.15667	21
1.16033	20
1.16400	17
1.16767	15
1.17133	14
1.17500	11
1.17867	9
1.18233	8
1.18600	10
1.18967	11
1.19333	8
1.19700	4
1.20067	1
1.20433	2
1.20800	2
1.21167	1
1.21533	2
1.21900	5
1.22267	9
1.22633	12
1.23000	14
1.23367	19
1.23733	25
1.24100	29
1.24467	34
1.24833	35
1.25200	31
1.25567	25
1.25933	21
1.26300	20
1.26667	21
1.27033	21
1.27400	19
1.27767	20
1.28133	22
1.28500	25
1.28867	24
1.29233	17
1.29600	10
1.29967	8
1.30333	6
1.30700	2
1.31067	-1
1.31433	0
1.31800	4
1.32167	10
1.32533	18
1.32900	27
1.33267	30
1.33633	28
1.34000	25
1.34367	22
1.34733	22
1.35100	21
1.35467	16
1.35833	8
1.36200	2
1.36567	-2
1.36933	-3
1.37300	-3
1.37667	-5
1.38033	-4
1.38400	0
1.38767	5
1.39133	8
1.39500	8
1.39867	8
1.40233	5
1.40600	4
1.40967	3
1.41333	1
1.41700	-0
1.42067	-4
1.42433	-8
1.42800	-9
1.43167	-5
1.43533	7
1.43900	29
1.44267	79
1.44633	296
1.45000	910
1.45367	1932
1.45733	3113
1.46100	4200
1.46467	5058
1.46833	5617
1.47200	5804
1.47567	5568
1.47933	4952
1.48300	4098
1.48667	3190
1.49033	2372
1.49400	1708
1.49767	1204
1.50133	837
1.50500	583
1.50867	411
1.51233	293
1.51600	215
1.51967	167
1.52333	138
1.52700	125
1.53067	121
1.53433	139
1.53800	231
1.54167	460
1.54533	822
1.54900	1244
1.55267	1637
1.55633	1946
1.56000	2138
1.56367	2186
1.56733	2074
1.57100	1815
1.57467	1471
1.57833	1116
1.58200	805
1.58567	562
1.58933	385
1.59300	261
1.59667	179
1.60033	128
1.60400	95
1.60767	69
1.61133	48
1.61500	30
1.61867	16
1.62233	7
1.62600	1
1.62967	-1
1.63333	-0
1.63700	0
1.64067	2
1.64433	0
1.64800	-1
1.65167	-2
1.65533	-1
1.65900	2
1.66267	3
1.66633	2
1.67000	-1
1.67367	-3
1.67733	-6
1.68100	-9
1.68467	-13
1.68833	-14
1.69200	-13
1.69567	-12
1.69933	-13
1.70300	-17
1.70667	-22
1.71033	-28
1.71400	-30
1.71767	-27
1.72133	-20
1.72500	-13
1.72867	-6
1.73233	0
1.73600	3
1.73967	5
1.74333	3
1.74700	-0
1.75067	-4
1.75433	-5
1.75800	-1
1.76167	5
1.76533	10
1.76900	11
1.77267	10
1.77633	10
1.78000	10
1.78367	10
1.78733	9
1.79100	9
1.79467	5
1.79833	1
1.80200	-1
1.80567	-3
1.80933	-2
1.81300	1
1.81667	1
1.82033	-1
1.82400	-1
1.82767	2
1.83133	6
1.83500	9
1.83867	8
1.84233	5
1.84600	-0
1.84967	-5
1.85333	-11
1.85700	-16
1.86067	-18
1.86433	-17
1.86800	-14
1.87167	-10
1.87533	-5
1.87900	2
1.88267	8
1.88633	13
1.89000	18
1.89367	21
1.89733	23
1.90100	23
1.90467	20
1.90833	18
1.91200	19
1.91567	20
1.91933	21
1.92300	21
1.92667	21
1.93033	19
1.93400	14
1.93767	12
1.94133	12
1.94500	29
1.94867	183
1.95233	1206
1.95600	6356
1.95967	25753
1.96333	81389
1.96700	202938
1.97067	406342
1.97433	673188
1.97800	955450
1.98167	1200201
1.98533	1367584
1.98900	1435473
1.99267	1399645
1.99633	1274182
2.00000	1087794
2.00367	876007
2.00733	670897
2.01100	493581
2.01467	352690
2.01833	247433
2.02200	172176
2.02567	119955
2.02933	84397
2.03300	60427
2.03667	44309
2.04033	33425
2.04400	25999
2.04767	20852
2.05133	17215
2.05500	14585
2.05867	12633
2.06233	11143
2.06600	9978
2.06967	9045
2.07333	8276
2.07700	7632
2.08067	7087
2.08433	6618
2.08800	6208
2.09167	5845
2.09533	5520
2.09900	5228
2.10267	4965
2.10633	4727
2.11000	4509
2.11367	4308
2.11733	4120
2.12100	3947
2.12467	3792
2.12833	3650
2.13200	3517
2.13567	3393
2.13933	3276
2.14300	3166
2.14667	3062
2.15033	2962
2.15400	2868
2.15767	2780
2.16133	2697
2.16500	2616
2.16867	2538
2.17233	2465
2.17600	2397
2.17967	2333
2.18333	2268
2.18700	2205
2.19067	2144
2.19433	2088
2.19800	2037
2.20167	1991
2.20533	1947
2.20900	1904
2.21267	1865
2.21633	1828
2.22000	1791
2.22367	1753
2.22733	1716
2.23100	1683
2.23467	1652
2.23833	1623
2.24200	1594
2.24567	1565
2.24933	1533
2.25300	1501
2.25667	1471
2.26033	1441
2.26400	1410
2.26767	1380
2.27133	1353
2.27500	1327
2.27867	1303
2.28233	1281
2.28600	1262
2.28967	1246
2.29333	1230
2.29700	1212
2.30067	1191
2.30433	1169
2.30800	1147
2.31167	1124
2.31533	1102
2.31900	1087
2.32267	1078
2.32633	1071
2.33000	1063
2.33367	1053
2.33733	1040
2.34100	1025
2.34467	1006
2.34833	988
2.35200	976
2.35567	968
2.35933	959
2.36300	945
2.36667	927
2.37033	908
2.37400	890
2.37767	875
2.38133	859
2.38500	842
2.38867	829
2.39233	819
2.39600	815
2.39967	815
2.40333	818
2.40700	823
2.41067	825
2.41433	821
2.41800	815
2.42167	808
2.42533	797
2.42900	784
2.43267	769
2.43633	756
2.44000	746
2.44367	733
2.44733	718
2.45100	704
2.45467	694
2.45833	688
2.46200	684
2.46567	679
2.46933	672
2.47300	662
2.47667	649
2.48033	636
2.48400	624
2.48767	618
2.49133	617
2.49500	619
2.49867	623
2.50233	631
2.50600	638
2.50967	642
2.51333	640
2.51700	635
2.52067	629
2.52433	620
2.52800	608
2.53167	596
2.53533	582
2.53900	569
2.54267	558
2.54633	548
2.55000	541
2.55367	537
2.55733	533
2.56100	526
2.56467	521
2.56833	518
2.57200	516
2.57567	517
2.57933	517
2.58300	516
2.58667	514
2.59033	512
2.59400	509
2.59767	507
2.60133	501
2.60500	492
2.60867	481
2.61233	476
2.61600	472
2.61967	464
2.62333	454
2.62700	447
2.63067	445
2.63433	447
2.63800	450
2.64167	450
2.64533	449
2.64900	447
2.65267	444
2.65633	439
2.66000	432
2.66367	426
2.66733	422
2.67100	419
2.67467	416
2.67833	416
2.68200	420
2.68567	424
2.68933	427
2.69300	429
2.69667	427
2.70033	421
2.70400	414
2.70767	408
2.71133	401
2.71500	398
2.71867	399
2.72233	400
2.72600	400
2.72967	398
2.73333	395
2.73700	392
2.74067	387
2.74433	379
2.74800	370
2.75167	364
2.75533	360
2.75900	359
2.76267	357
2.76633	358
2.77000	359
2.77367	356
2.77733	351
2.78100	345
2.78467	338
2.78833	331
2.79200	327
2.79567	328
2.79933	332
2.80300	336
2.80667	337
2.81033	336
2.81400	333
2.81767	329
2.82133	325
2.82500	319
2.82867	313
2.83233	308
2.83600	309
2.83967	311
2.84333	311
2.84700	310
2.85067	307
2.85433	303
2.85800	297
2.86167	292
2.86533	287
2.86900	283
2.87267	280
2.87633	276
2.88000	273
2.88367	271
2.88733	272
2.89100	276
2.89467	284
2.89833	291
2.90200	292
2.90567	287
2.90933	280
2.91300	274
2.91667	271
2.92033	267
2.92400	265
2.92767	266
2.93133	266
2.93500	266
2.93867	265
2.94233	263
2.94600	258
2.94967	252
2.95333	248
2.95700	247
2.96067	246
2.96433	245
2.96800	245
2.97167	245
2.97533	244
2.97900	244
2.98267	243
2.98633	242
2.99000	240
2.99367	240
2.99733	241
3.00100	240
3.00467	238
3.00833	235
3.01200	233
3.01567	232
3.01933	233
3.02300	235
3.02667	236
3.03033	234
3.03400	228
3.03767	221
3.04133	215
3.04500	209
3.04867	205
3.05233	205
3.05600	207
3.05967	209
3.06333	209
3.06700	207
3.07067	206
3.07433	207
3.07800	208
3.08167	209
3.08533	209
3.08900	211
3.09267	213
3.09633	214
3.10000	214
3.10367	214
3.10733	209
3.11100	202
3.11467	195
3.11833	190
3.12200	186
3.12567	181
3.12933	175
3.13300	171
3.13667	166
3.14033	160
3.14400	156
3.14767	153
3.15133	155
3.15500	157
3.15867	158
3.16233	158
3.16600	156
3.16967	154
3.17333	153
3.17700	152
3.18067	153
3.18433	157
3.18800	159
3.19167	159
3.19533	159
3.19900	158
3.20267	153
3.20633	146
3.21000	142
3.21367	140
3.21733	138
3.22100	135
3.22467	130
3.22833	125
3.23200	124
3.23567	125
3.23933	126
3.24300	128
3.24667	129
3.25033	128
3.25400	129
3.25767	134
3.26133	142
3.26500	149
3.26867	155
3.27233	158
3.27600	158
3.27967	156
3.28333	152
3.28700	151
3.29067	149
3.29433	146
3.29800	141
3.30167	135
3.30533	130
3.30900	127
3.31267	124
3.31633	119
3.32000	113
3.32367	109
3.32733	104
3.33100	102
3.33467	100
3.33833	98
3.34200	101
3.34567	105
3.34933	108
3.35300	106
3.35667	104
3.36033	102
3.36400	103
3.36767	106
3.37133	112
3.37500	118
3.37867	121
3.38233	121
3.38600	121
3.38967	120
3.39333	119
3.39700	113
3.40067	105
3.40433	98
3.40800	93
3.41167	90
3.41533	89
3.41900	90
3.42267	90
3.42633	90
3.43000	89
3.43367	87
3.43733	84
3.44100	84
3.44467	84
3.44833	85
3.45200	83
3.45567	81
3.45933	80
3.46300	81
3.46667	83
3.47033	87
3.47400	88
3.47767	88
3.48133	85
3.48500	81
3.48867	77
3.49233	74
3.49600	72
3.49967	74
3.50333	78
3.50700	79
3.51067	75
3.51433	72
3.51800	72
3.52167	72
3.52533	73
3.52900	72
3.53267	69
3.53633	69
3.54000	72
3.54367	73
3.54733	72
3.55100	69
3.55467	66
3.55833	64
3.56200	60
3.56567	54
3.56933	51
3.57300	53
3.57667	57
3.58033	61
3.58400	62
3.58767	62
3.59133	64
3.59500	66
3.59867	66
3.60233	66
3.60600	65
3.60967	62
3.61333	59
3.61700	58
3.62067	57
3.62433	55
3.62800	52
3.63167	50
3.63533	46
3.63900	40
3.64267	35
3.64633	35
3.65000	39
3.65367	43
3.65733	49
3.66100	54
3.66467	57
3.66833	59
3.67200	61
3.67567	65
3.67933	68
3.68300	67
3.68667	64
3.69033	61
3.69400	58
3.69767	52
3.70133	46
3.70500	42
3.70867	40
3.71233	41
3.71600	43
3.71967	44
3.72333	46
3.72700	46
3.73067	47
3.73433	47
3.73800	47
3.74167	45
3.74533	46
3.74900	50
3.75267	50
3.75633	46
3.76000	43
3.76367	41
3.76733	41
3.77100	43
3.77467	46
3.77833	48
3.78200	50
3.78567	50
3.78933	48
3.79300	45
3.79667	41
3.80033	39
3.80400	38
3.80767	39
3.81133	41
3.81500	43
3.81867	44
3.82233	45
3.82600	44
3.82967	42
3.83333	40
3.83700	35
3.84067	26
3.84433	17
3.84800	11
3.85167	12
3.85533	18
3.85900	23
3.86267	25
3.86633	26
3.87000	25
3.87367	23
3.87733	23
3.88100	23
3.88467	22
3.88833	20
3.89200	18
3.89567	15
3.89933	13
3.90300	13
3.90667	13
3.91033	12
3.91400	12
3.91767	15
3.92133	20
3.92500	23
3.92867	27
3.93233	31
3.93600	31
3.93967	28
3.94333	24
3.94700	20
3.95067	16
3.95433	13
3.95800	11
3.96167	10
3.96533	9
3.96900	9
3.97267	8
3.97633	8
3.98000	8
3.98367	9
3.98733	12
3.99100	15
3.99467	20
3.99833	25

[Chromatogram (Ch2)]
Interval(msec)	220
# of Points	1091
Start Time(min)	0.002
End Time(min)	3.998
R.Time (min)	Intensity
0.00167	1
0.00533	1
0.00900	1
0.01267	1
0.01633	1
0.02000	1
0.02367	1
0.02733	1
0.03100	1
0.03467	1
0.03833	1
0.04200	1
0.04567	1
0.04933	1
0.05300	1
0.05667	1
0.06033	1
0.06400	1
0.06767	1
0.07133	1
0.07500	1
0.07867	1
0.08233	1
0.08600	1
0.08967	1
0.09333	1
0.09700	1
0.10067	1
0.10433	1
0.10800	1
0.11167	1
0.11533	1
0.11900	1
0.12267	1
0.12633	0
0.13000	0
0.13367	-0
0.13733	-0
0.14100	-0
0.14467	-0
0.14833	-0
0.15200	-0
0.15567	-0
0.15933	-0
0.16300	-0
0.16667	-0
0.17033	-0
0.17400	-1
0.17767	-1
0.18133	-1
0.18500	-1
0.18867	-1
0.19233	-1
0.19600	-1
0.19967	-1
0.20333	-1
0.20700	-1
0.21067	-1
0.21433	-1
0.21800	-1
0.22167	-1
0.22533	-1
0.22900	-1
0.23267	-1
0.23633	-1
0.24000	-1
0.24367	-1
0.24733	-0
0.25100	-0
0.25467	0
0.25833	0
0.26200	1
0.26567	1
0.26933	0
0.27300	0
0.27667	-0
0.28033	-0
0.28400	-0
0.28767	-0
0.29133	-0
0.29500	-0
0.29867	-0
0.30233	-0
0.30600	-0
0.30967	-0
0.31333	-0
0.31700	-0
0.32067	-0
0.32433	-0
0.32800	-0
0.33167	-0
0.33533	-0
0.33900	-0
0.34267	-0
0.34633	-0
0.35000	-0
0.35367	-0
0.35733	-0
0.36100	0
0.36467	0
0.36833	-0
0.37200	-0
0.37567	-1
0.37933	-1
0.38300	-1
0.38667	-1
0.39033	-1
0.39400	-1
0.39767	-1
0.40133	-1
0.40500	-1
0.40867	-1
0.41233	-1
0.41600	-1
0.41967	-1
0.42333	-1
0.42700	-1
0.43067	-1
0.43433	-1
0.43800	-1
0.44167	-0
0.44533	-0
0.44900	-0
0.45267	-0
0.45633	-0
0.46000	-0
0.46367	-0
0.46733	-0
0.47100	-0
0.47467	-0
0.47833	0
0.48200	0
0.48567	0
0.48933	-0
0.49300	-0
0.49667	-1
0.50033	-1
0.50400	-1
0.50767	-1
0.51133	-1
0.51500	-1
0.51867	-1
0.52233	-1
0.52600	-1
0.52967	-0
0.53333	-0
0.53700	-0
0.54067	-1
0.54433	-1
0.54800	-1
0.55167	-1
0.55533	-0
0.55900	-0
0.56267	-0
0.56633	-0
0.57000	-0
0.57367	-0
0.57733	-0
0.58100	-0
0.58467	-0
0.58833	-0
0.59200	-0
0.59567	-0
0.59933	-0
0.60300	0
0.60667	0
0.61033	0
0.61400	1
0.61767	1
0.62133	1
0.62500	2
0.62867	2
0.63233	2
0.63600	1
0.63967	1
0.64333	1
0.64700	0
0.65067	0
0.65433	0
0.65800	-0
0.66167	-0
0.66533	-1
0.66900	-1
0.67267	-1
0.67633	-1
0.68000	-1
0.68367	-1
0.68733	-1
0.69100	-1
0.69467	-0
0.69833	-0
0.70200	0
0.70567	0
0.70933	0
0.71300	0
0.71667	0
0.72033	-0
0.72400	-0
0.72767	-0
0.73133	-1
0.73500	-1
0.73867	-1
0.74233	-1
0.74600	-1
0.74967	-1
0.75333	-1
0.75700	-1
0.76067	-1
0.76433	-1
0.76800	-1
0.77167	-1
0.77533	-1
0.77900	-1
0.78267	-1
0.78633	-1
0.79000	-1
0.79367	-2
0.79733	-2
0.80100	-2
0.80467	-2
0.80833	-2
0.81200	-2
0.81567	-2
0.81933	-2
0.82300	-2
0.82667	-2
0.83033	-2
0.83400	-2
0.83767	-2
0.84133	-2
0.84500	-1
0.84867	-1
0.85233	-1
0.85600	-1
0.85967	-1
0.86333	-1
0.86700	-2
0.87067	-2
0.87433	-2
0.87800	-2
0.88167	-2
0.88533	-2
0.88900	-2
0.89267	-2
0.89633	-2
0.90000	-2
0.90367	-2
0.90733	-2
0.91100	-2
0.91467	-2
0.91833	-2
0.92200	-2
0.92567	-2
0.92933	-2
0.93300	-2
0.93667	-2
0.94033	-2
0.94400	-2
0.94767	-2
0.95133	-1
0.95500	-1
0.95867	-1
0.96233	-1
0.96600	-1
0.96967	-1
0.97333	-1
0.97700	-1
0.98067	-1
0.98433	-1
0.98800	-1
0.99167	-1
0.99533	-1
0.99900	-1
1.00267	-1
1.00633	-1
1.01000	-1
1.01367	-1
1.01733	-1
1.02100	-1
1.02467	-1
1.02833	-1
1.03200	-0
1.03567	-0
1.03933	-0
1.04300	-0
1.04667	-0
1.05033	0
1.05400	0
1.05767	0
1.06133	0
1.06500	-0
1.06867	-0
1.07233	-1
1.07600	-1
1.07967	-0
1.08333	-0
1.08700	-0
1.09067	0
1.09433	-0
1.09800	-0
1.10167	-1
1.10533	-1
1.10900	-1
1.11267	-1
1.11633	-1
1.12000	-0
1.12367	-0
1.12733	-0
1.13100	-0
1.13467	-0
1.13833	-1
1.14200	-1
1.14567	-1
1.14933	-1
1.15300	-1
1.15667	-1
1.16033	-1
1.16400	-1
1.16767	-1
1.17133	-1
1.17500	-0
1.17867	0
1.18233	0
1.18600	1
1.18967	0
1.19333	0
1.19700	-0
1.20067	-0
1.20433	-1
1.20800	-1
1.21167	-1
1.21533	-1
1.21900	-1
1.22267	-1
1.22633	-1
1.23000	-1
1.23367	-1
1.23733	-1
1.24100	-1
1.24467	-1
1.24833	-1
1.25200	-1
1.25567	-1
1.25933	-1
1.26300	-1
1.26667	-1
1.27033	-1
1.27400	-1
1.27767	-1
1.28133	-1
1.28500	-1
1.28867	-1
1.29233	-1
1.29600	-1
1.29967	-1
1.30333	-1
1.30700	-1
1.31067	-1
1.31433	-1
1.31800	-1
1.32167	-1
1.32533	-1
1.32900	-1
1.33267	-1
1.33633	-1
1.34000	-1
1.34367	-1
1.34733	-1
1.35100	-1
1.35467	-1
1.35833	-1
1.36200	-1
1.36567	-1
1.36933	-1
1.37300	-2
1.37667	-2
1.38033	-2
1.38400	-2
1.38767	-2
1.39133	-2
1.39500	-2
1.39867	-2
1.40233	-2
1.40600	-2
1.40967	-2
1.41333	-2
1.41700	-2
1.42067	-2
1.42433	-2
1.42800	-2
1.43167	-2
1.43533	-2
1.43900	-2
1.44267	-2
1.44633	-3
1.45000	-3
1.45367	-3
1.45733	-3
1.46100	-3
1.46467	-3
1.46833	-3
1.47200	-2
1.47567	-2
1.47933	-2
1.48300	-2
1.48667	-2
1.49033	-2
1.49400	-2
1.49767	-3
1.50133	-2
1.50500	-2
1.50867	-2
1.51233	-2
1.51600	-2
1.51967	-2
1.52333	-2
1.52700	-2
1.53067	-2
1.53433	-2
1.53800	-1
1.54167	-1
1.54533	-2
1.54900	-2
1.55267	-2
1.55633	-2
1.56000	-2
1.56367	-2
1.56733	-2
1.57100	-2
1.57467	-2
1.57833	-2
1.58200	-2
1.58567	-2
1.58933	-3
1.59300	-3
1.59667	-3
1.60033	-4
1.60400	-5
1.60767	-6
1.61133	-7
1.61500	-9
1.61867	-11
1.62233	-14
1.62600	-16
1.62967	-19
1.63333	-22
1.63700	-25
1.64067	-28
1.64433	-32
1.64800	-35
1.65167	-38
1.65533	-42
1.65900	-45
1.66267	-49
1.66633	-53
1.67000	-57
1.67367	-61
1.67733	-66
1.68100	-70
1.68467	-75
1.68833	-79
1.69200	-83
1.69567	-86
1.69933	-89
1.70300	-91
1.70667	-92
1.71033	-93
1.71400	-94
1.71767	-95
1.72133	-95
1.72500	-95
1.72867	-95
1.73233	-95
1.73600	-94
1.73967	-94
1.74333	-93
1.74700	-93
1.75067	-92
1.75433	-91
1.75800	-91
1.76167	-91
1.76533	-92
1.76900	-92
1.77267	-93
1.77633	-94
1.78000	-95
1.78367	-96
1.78733	-97
1.79100	-98
1.79467	-98
1.79833	-98
1.80200	-99
1.80567	-99
1.80933	-100
1.81300	-101
1.81667	-101
1.82033	-102
1.82400	-101
1.82767	-101
1.83133	-101
1.83500	-101
1.83867	-101
1.84233	-101
1.84600	-101
1.84967	-101
1.85333	-101
1.85700	-101
1.86067	-101
1.86433	-101
1.86800	-100
1.87167	-100
1.87533	-99
1.87900	-99
1.88267	-97
1.88633	-96
1.89000	-95
1.89367	-94
1.89733	-93
1.90100	-93
1.90467	-92
1.90833	-93
1.91200	-93
1.91567	-93
1.91933	-94
1.92300	-94
1.92667	-94
1.93033	-94
1.93400	-94
1.93767	-95
1.94133	-95
1.94500	-95
1.94867	-95
1.95233	-95
1.95600	-95
1.95967	-94
1.96333	-93
1.96700	-92
1.97067	-92
1.97433	-92
1.97800	-92
1.98167	-92
1.98533	-92
1.98900	-92
1.99267	-92
1.99633	-92
2.00000	-92
2.00367	-92
2.00733	-92
2.01100	-92
2.01467	-92
2.01833	-92
2.02200	-92
2.02567	-92
2.02933	-91
2.03300	-90
2.03667	-90
2.04033	-89
2.04400	-88
2.04767	-88
2.05133	-87
2.05500	-87
2.05867	-87
2.06233	-87
2.06600	-87
2.06967	-86
2.07333	-86
2.07700	-85
2.08067	-85
2.08433	-84
2.08800	-84
2.09167	-83
2.09533	-83
2.09900	-83
2.10267	-83
2.10633	-83
2.11000	-83
2.11367	-83
2.11733	-83
2.12100	-83
2.12467	-83
2.12833	-83
2.13200	-83
2.13567	-83
2.13933	-83
2.14300	-83
2.14667	-83
2.15033	-82
2.15400	-82
2.15767	-81
2.16133	-80
2.16500	-80
2.16867	-79
2.17233	-79
2.17600	-79
2.17967	-79
2.18333	-79
2.18700	-79
2.19067	-78
2.19433	-78
2.19800	-77
2.20167	-76
2.20533	-75
2.20900	-75
2.21267	-75
2.21633	-75
2.22000	-75
2.22367	-75
2.22733	-74
2.23100	-74
2.23467	-73
2.23833	-72
2.24200	-71
2.24567	-71
2.24933	-71
2.25300	-71
2.25667	-71
2.26033	-71
2.26400	-71
2.26767	-71
2.27133	-71
2.27500	-70
2.27867	-70
2.28233	-69
2.28600	-69
2.28967	-69
2.29333	-68
2.29700	-68
2.30067	-68
2.30433	-68
2.30800	-68
2.31167	-67
2.31533	-67
2.31900	-67
2.32267	-67
2.32633	-67
2.33000	-67
2.33367	-67
2.33733	-67
2.34100	-66
2.34467	-65
2.34833	-64
2.35200	-63
2.35567	-61
2.35933	-60
2.36300	-58
2.36667	-57
2.37033	-55
2.37400	-52
2.37767	-50
2.38133	-47
2.38500	-44
2.38867	-40
2.39233	-36
2.39600	-32
2.39967	-28
2.40333	-24
2.40700	-19
2.41067	-15
2.41433	-12
2.41800	-8
2.42167	-6
2.42533	-3
2.42900	-1
2.43267	1
2.43633	2
2.44000	4
2.44367	5
2.44733	6
2.45100	8
2.45467	9
2.45833	10
2.46200	11
2.46567	11
2.46933	12
2.47300	12
2.47667	13
2.48033	14
2.48400	15
2.48767	15
2.49133	16
2.49500	16
2.49867	16
2.50233	15
2.50600	15
2.50967	15
2.51333	15
2.51700	16
2.52067	16
2.52433	17
2.52800	17
2.53167	18
2.53533	18
2.53900	18
2.54267	17
2.54633	17
2.55000	16
2.55367	16
2.55733	15
2.56100	15
2.56467	14
2.56833	14
2.57200	13
2.57567	13
2.57933	13
2.58300	13
2.58667	14
2.59033	15
2.59400	15
2.59767	16
2.60133	17
2.60500	17
2.60867	18
2.61233	18
2.61600	18
2.61967	17
2.62333	17
2.62700	17
2.63067	18
2.63433	18
2.63800	18
2.64167	19
2.64533	19
2.64900	19
2.65267	20
2.65633	20
2.66000	21
2.66367	21
2.66733	22
2.67100	22
2.67467	23
2.67833	23
2.68200	24
2.68567	24
2.68933	25
2.69300	25
2.69667	26
2.70033	26
2.70400	27
2.70767	27
2.71133	27
2.71500	27
2.71867	27
2.72233	27
2.72600	27
2.72967	28
2.73333	28
2.73700	28
2.74067	28
2.74433	28
2.74800	27
2.75167	27
2.75533	27
2.75900	27
2.76267	27
2.76633	27
2.77000	27
2.77367	28
2.77733	28
2.78100	29
2.78467	29
2.78833	29
2.79200	30
2.79567	30
2.79933	30
2.80300	30
2.80667	30
2.81033	30
2.81400	30
2.81767	30
2.82133	30
2.82500	30
2.82867	30
2.83233	30
2.83600	30
2.83967	30
2.84333	30
2.84700	29
2.85067	29
2.85433	29
2.85800	28
2.86167	25
2.86533	21
2.86900	15
2.87267	5
2.87633	-9
2.88000	-28
2.88367	-52
2.88733	-82
2.89100	-117
2.89467	-157
2.89833	-202
2.90200	-252
2.90567	-306
2.90933	-364
2.91300	-425
2.91667	-487
2.92033	-551
2.92400	-616
2.92767	-681
2.93133	-744
2.93500	-805
2.93867	-862
2.94233	-917
2.94600	-971
2.94967	-1027
2.95333	-1075
2.95700	-1108
2.96067	-1118
2.96433	-1102
2.96800	-1063
2.97167	-1005
2.97533	-934
2.97900	-856
2.98267	-775
2.98633	-693
2.99000	-615
2.99367	-541
2.99733	-473
3.00100	-411
3.00467	-355
3.00833	-305
3.01200	-262
3.01567	-223
3.01933	-189
3.02300	-160
3.02667	-135
3.03033	-113
3.03400	-94
3.03767	-78
3.04133	-64
3.04500	-52
3.04867	-41
3.05233	-33
3.05600	-25
3.05967	-18
3.06333	-13
3.06700	-9
3.07067	-5
3.07433	-1
3.07800	1
3.08167	4
3.08533	6
3.08900	8
3.09267	10
3.09633	11
3.10000	12
3.10367	13
3.10733	14
3.11100	15
3.11467	15
3.11833	16
3.12200	16
3.12567	17
3.12933	17
3.13300	18
3.13667	18
3.14033	19
3.14400	19
3.14767	19
3.15133	20
3.15500	20
3.15867	20
3.16233	20
3.16600	20
3.16967	21
3.17333	21
3.17700	22
3.18067	22
3.18433	22
3.18800	23
3.19167	23
3.19533	23
3.19900	24
3.20267	24
3.20633	24
3.21000	25
3.21367	25
3.21733	25
3.22100	26
3.22467	26
3.22833	26
3.23200	26
3.23567	26
3.23933	26
3.24300	26
3.24667	26
3.25033	26
3.25400	26
3.25767	26
3.26133	26
3.26500	26
3.26867	26
3.27233	26
3.27600	26
3.27967	26
3.28333	26
3.28700	27
3.29067	27
3.29433	27
3.29800	28
3.30167	28
3.30533	28
3.30900	28
3.31267	28
3.31633	28
3.32000	28
3.32367	29
3.32733	29
3.33100	29
3.33467	29
3.33833	30
3.34200	30
3.34567	30
3.34933	30
3.35300	30
3.35667	30
3.36033	30
3.36400	31
3.36767	31
3.37133	31
3.37500	31
3.37867	31
3.38233	31
3.38600	31
3.38967	32
3.39333	32
3.39700	32
3.40067	32
3.40433	32
3.40800	32
3.41167	33
3.41533	33
3.41900	33
3.42267	33
3.42633	33
3.43000	33
3.43367	32
3.43733	32
3.44100	32
3.44467	32
3.44833	32
3.45200	32
3.45567	32
3.45933	32
3.46300	32
3.46667	32
3.47033	32
3.47400	32
3.47767	32
3.48133	32
3.48500	32
3.48867	32
3.49233	31
3.49600	31
3.49967	31
3.50333	31
3.50700	31
3.51067	31
3.51433	31
3.51800	31
3.52167	31
3.52533	31
3.52900	31
3.53267	31
3.53633	30
3.54000	31
3.54367	31
3.54733	31
3.55100	31
3.55467	31
3.55833	31
3.56200	31
3.56567	32
3.56933	32
3.57300	32
3.57667	32
3.58033	32
3.58400	31
3.58767	31
3.59133	31
3.59500	32
3.59867	32
3.60233	32
3.60600	32
3.60967	31
3.61333	31
3.61700	31
3.62067	31
3.62433	31
3.62800	31
3.63167	31
3.63533	31
3.63900	31
3.64267	31
3.64633	32
3.65000	32
3.65367	32
3.65733	32
3.66100	32
3.66467	32
3.66833	32
3.67200	31
3.67567	31
3.67933	31
3.68300	31
3.68667	31
3.69033	31
3.69400	31
3.69767	31
3.70133	31
3.70500	31
3.70867	31
3.71233	31
3.71600	31
3.71967	31
3.72333	31
3.72700	31
3.73067	31
3.73433	31
3.73800	31
3.74167	31
3.74533	31
3.74900	31
3.75267	31
3.75633	31
3.76000	31
3.76367	31
3.76733	30
3.77100	30
3.77467	30
3.77833	30
3.78200	30
3.78567	30
3.78933	30
3.79300	30
3.79667	30
3.80033	30
3.80400	30
3.80767	30
3.81133	30
3.81500	30
3.81867	30
3.82233	30
3.82600	30
3.82967	30
3.83333	30
3.83700	30
3.84067	30
3.84433	30
3.84800	30
3.85167	31
3.85533	31
3.85900	31
3.86267	32
3.86633	32
3.87000	32
3.87367	32
3.87733	32
3.88100	32
3.88467	32
3.88833	31
3.89200	31
3.89567	31
3.89933	31
3.90300	31
3.90667	31
3.91033	31
3.91400	31
3.91767	31
3.92133	31
3.92500	31
3.92867	31
3.93233	31
3.93600	31
3.93967	31
3.94333	31
3.94700	31
3.95067	31
3.95433	31
3.95800	31
3.96167	31
3.96533	31
3.96900	31
3.97267	31
3.97633	31
3.98000	31
3.98367	31
3.98733	31
3.99100	31
3.99467	31
3.99833	31

[Chromatogram (Ch3)]
Interval(msec)	220
# of Points	1091
Start Time(min)	0.002
End Time(min)	3.998
R.Time (min)	Intensity
0.00167	1
0.00533	2
0.00900	2
0.01267	3
0.01633	4
0.02000	3
0.02367	2
0.02733	3
0.03100	3
0.03467	4
0.03833	3
0.04200	2
0.04567	1
0.04933	-2
0.05300	-2
0.05667	-3
0.06033	-4
0.06400	-4
0.06767	-5
0.07133	-4
0.07500	-4
0.07867	-3
0.08233	0
0.08600	2
0.08967	3
0.09333	3
0.09700	6
0.10067	6
0.10433	6
0.10800	6
0.11167	5
0.11533	3
0.11900	1
0.12267	-1
0.12633	1
0.13000	4
0.13367	5
0.13733	6
0.14100	7
0.14467	7
0.14833	3
0.15200	2
0.15567	3
0.15933	2
0.16300	2
0.16667	4
0.17033	4
0.17400	4
0.17767	5
0.18133	3
0.18500	4
0.18867	5
0.19233	4
0.19600	5
0.19967	8
0.20333	11
0.20700	14
0.21067	14
0.21433	12
0.21800	11
0.22167	7
0.22533	5
0.22900	5
0.23267	8
0.23633	9
0.24000	7
0.24367	7
0.24733	5
0.25100	5
0.25467	4
0.25833	3
0.26200	-0
0.26567	-2
0.26933	-2
0.27300	1
0.27667	2
0.28033	2
0.28400	2
0.28767	3
0.29133	5
0.29500	7
0.29867	8
0.30233	8
0.30600	9
0.30967	11
0.31333	13
0.31700	12
0.32067	8
0.32433	5
0.32800	3
0.33167	2
0.33533	2
0.33900	1
0.34267	1
0.34633	2
0.35000	1
0.35367	2
0.35733	4
0.36100	4
0.36467	5
0.36833	3
0.37200	2
0.37567	3
0.37933	5
0.38300	4
0.38667	1
0.39033	-2
0.39400	-3
0.39767	-3
0.40133	-2
0.40500	1
0.40867	3
0.41233	4
0.41600	5
0.41967	3
0.42333	3
0.42700	1
0.43067	-1
0.43433	-2
0.43800	1
0.44167	2
0.44533	2
0.44900	2
0.45267	2
0.45633	1
0.46000	-0
0.46367	1
0.46733	3
0.47100	3
0.47467	3
0.47833	4
0.48200	3
0.48567	3
0.48933	2
0.49300	2
0.49667	-0
0.50033	-3
0.50400	-2
0.50767	-1
0.51133	1
0.51500	2
0.51867	3
0.52233	4
0.52600	4
0.52967	5
0.53333	7
0.53700	7
0.54067	4
0.54433	-2
0.54800	-4
0.55167	-5
0.55533	-8
0.55900	-10
0.56267	-6
0.56633	-0
0.57000	5
0.57367	7
0.57733	9
0.58100	9
0.58467	8
0.58833	7
0.59200	5
0.59567	7
0.59933	6
0.60300	4
0.60667	4
0.61033	5
0.61400	6
0.61767	7
0.62133	8
0.62500	7
0.62867	4
0.63233	2
0.63600	1
0.63967	2
0.64333	3
0.64700	3
0.65067	4
0.65433	4
0.65800	5
0.66167	5
0.66533	4
0.66900	3
0.67267	3
0.67633	5
0.68000	8
0.68367	8
0.68733	6
0.69100	5
0.69467	5
0.69833	5
0.70200	4
0.70567	3
0.70933	4
0.71300	5
0.71667	6
0.72033	6
0.72400	6
0.72767	7
0.73133	8
0.73500	7
0.73867	6
0.74233	3
0.74600	0
0.74967	0
0.75333	-1
0.75700	1
0.76067	3
0.76433	6
0.76800	9
0.77167	11
0.77533	9
0.77900	9
0.78267	10
0.78633	14
0.79000	13
0.79367	9
0.79733	6
0.80100	2
0.80467	-0
0.80833	-1
0.81200	3
0.81567	8
0.81933	12
0.82300	14
0.82667	14
0.83033	14
0.83400	15
0.83767	14
0.84133	13
0.84500	10
0.84867	6
0.85233	2
0.85600	-1
0.85967	1
0.86333	5
0.86700	7
0.87067	9
0.87433	8
0.87800	8
0.88167	10
0.88533	11
0.88900	9
0.89267	9
0.89633	9
0.90000	11
0.90367	11
0.90733	9
0.91100	9
0.91467	12
0.91833	13
0.92200	13
0.92567	13
0.92933	12
0.93300	11
0.93667	13
0.94033	16
0.94400	17
0.94767	17
0.95133	14
0.95500	11
0.95867	9
0.96233	10
0.96600	11
0.96967	9
0.97333	9
0.97700	10
0.98067	13
0.98433	15
0.98800	15
0.99167	16
0.99533	17
0.99900	17
1.00267	19
1.00633	19
1.01000	18
1.01367	16
1.01733	14
1.02100	13
1.02467	11
1.02833	11
1.03200	11
1.03567	10
1.03933	9
1.04300	10
1.04667	8
1.05033	8
1.05400	9
1.05767	8
1.06133	7
1.06500	5
1.06867	5
1.07233	5
1.07600	5
1.07967	4
1.08333	4
1.08700	6
1.09067	9
1.09433	9
1.09800	9
1.10167	9
1.10533	9
1.10900	9
1.11267	8
1.11633	7
1.12000	5
1.12367	4
1.12733	2
1.13100	3
1.13467	4
1.13833	4
1.14200	4
1.14567	4
1.14933	4
1.15300	4
1.15667	6
1.16033	6
1.16400	6
1.16767	9
1.17133	10
1.17500	8
1.17867	10
1.18233	12
1.18600	14
1.18967	14
1.19333	12
1.19700	11
1.20067	12
1.20433	12
1.20800	11
1.21167	9
1.21533	8
1.21900	7
1.22267	7
1.22633	7
1.23000	8
1.23367	9
1.23733	7
1.24100	4
1.24467	3
1.24833	2
1.25200	3
1.25567	5
1.25933	7
1.26300	10
1.26667	10
1.27033	10
1.27400	9
1.27767	9
1.28133	12
1.28500	15
1.28867	15
1.29233	14
1.29600	13
1.29967	11
1.30333	9
1.30700	7
1.31067	3
1.31433	-0
1.31800	-0
1.32167	3
1.32533	8
1.32900	11
1.33267	12
1.33633	11
1.34000	10
1.34367	9
1.34733	8
1.35100	10
1.35467	11
1.35833	12
1.36200	10
1.36567	10
1.36933	10
1.37300	12
1.37667	14
1.38033	15
1.38400	16
1.38767	15
1.39133	13
1.39500	10
1.39867	7
1.40233	7
1.40600	8
1.40967	7
1.41333	8
1.41700	8
1.42067	6
1.42433	7
1.42800	9
1.43167	9
1.43533	8
1.43900	7
1.44267	6
1.44633	8
1.45000	10
1.45367	13
1.45733	13
1.46100	12
1.46467	12
1.46833	15
1.47200	15
1.47567	16
1.47933	15
1.48300	13
1.48667	13
1.49033	14
1.49400	16
1.49767	15
1.50133	14
1.50500	11
1.50867	9
1.51233	10
1.51600	11
1.51967	12
1.52333	12
1.52700	12
1.53067	11
1.53433	10
1.53800	9
1.54167	10
1.54533	11
1.54900	12
1.55267	13
1.55633	13
1.56000	13
1.56367	12
1.56733	15
1.57100	15
1.57467	11
1.57833	7
1.58200	4
1.58567	3
1.58933	4
1.59300	6
1.59667	7
1.60033	8
1.60400	9
1.60767	11
1.61133	11
1.61500	13
1.61867	15
1.62233	13
1.62600	11
1.62967	10
1.63333	10
1.63700	12
1.64067	14
1.64433	13
1.64800	11
1.65167	8
1.65533	6
1.65900	6
1.66267	7
1.66633	8
1.67000	9
1.67367	10
1.67733	10
1.68100	14
1.68467	19
1.68833	21
1.69200	22
1.69567	21
1.69933	18
1.70300	20
1.70667	23
1.71033	22
1.71400	20
1.71767	19
1.72133	17
1.72500	17
1.72867	17
1.73233	16
1.73600	16
1.73967	15
1.74333	15
1.74700	17
1.75067	19
1.75433	21
1.75800	21
1.76167	18
1.76533	16
1.76900	17
1.77267	17
1.77633	17
1.78000	19
1.78367	21
1.78733	23
1.79100	23
1.79467	22
1.79833	22
1.80200	23
1.80567	23
1.80933	23
1.81300	25
1.81667	26
1.82033	28
1.82400	28
1.82767	27
1.83133	27
1.83500	28
1.83867	30
1.84233	30
1.84600	29
1.84967	27
1.85333	26
1.85700	26
1.86067	27
1.86433	29
1.86800	31
1.87167	32
1.87533	34
1.87900	34
1.88267	31
1.88633	31
1.89000	31
1.89367	31
1.89733	31
1.90100	32
1.90467	34
1.90833	34
1.91200	35
1.91567	37
1.91933	37
1.92300	36
1.92667	34
1.93033	36
1.93400	39
1.93767	42
1.94133	42
1.94500	43
1.94867	44
1.95233	44
1.95600	44
1.95967	43
1.96333	41
1.96700	40
1.97067	43
1.97433	46
1.97800	45
1.98167	43
1.98533	44
1.98900	46
1.99267	47
1.99633	48
2.00000	50
2.00367	52
2.00733	52
2.01100	52
2.01467	53
2.01833	53
2.02200	53
2.02567	53
2.02933	53
2.03300	54
2.03667	54
2.04033	56
2.04400	57
2.04767	58
2.05133	59
2.05500	61
2.05867	62
2.06233	62
2.06600	64
2.06967	63
2.07333	64
2.07700	66
2.08067	65
2.08433	65
2.08800	66
2.09167	66
2.09533	65
2.09900	63
2.10267	60
2.10633	60
2.11000	62
2.11367	63
2.11733	63
2.12100	66
2.12467	67
2.12833	68
2.13200	71
2.13567	72
2.13933	71
2.14300	68
2.14667	67
2.15033	66
2.15400	68
2.15767	71
2.16133	71
2.16500	70
2.16867	72
2.17233	72
2.17600	75
2.17967	77
2.18333	78
2.18700	76
2.19067	73
2.19433	70
2.19800	69
2.20167	71
2.20533	73
2.20900	76
2.21267	77
2.21633	78
2.22000	80
2.22367	80
2.22733	76
2.23100	75
2.23467	76
2.23833	77
2.24200	82
2.24567	84
2.24933	86
2.25300	87
2.25667	88
2.26033	86
2.26400	85
2.26767	85
2.27133	84
2.27500	84
2.27867	85
2.28233	88
2.28600	89
2.28967	88
2.29333	90
2.29700	91
2.30067	93
2.30433	96
2.30800	94
2.31167	93
2.31533	95
2.31900	96
2.32267	96
2.32633	96
2.33000	95
2.33367	96
2.33733	97
2.34100	97
2.34467	99
2.34833	100
2.35200	101
2.35567	100
2.35933	99
2.36300	98
2.36667	99
2.37033	98
2.37400	95
2.37767	96
2.38133	96
2.38500	94
2.38867	91
2.39233	92
2.39600	97
2.39967	105
2.40333	112
2.40700	119
2.41067	124
2.41433	125
2.41800	123
2.42167	123
2.42533	126
2.42900	130
2.43267	132
2.43633	132
2.44000	135
2.44367	174
2.44733	240
2.45100	292
2.45467	324
2.45833	326
2.46200	309
2.46567	287
2.46933	271
2.47300	260
2.47667	242
2.48033	216
2.48400	189
2.48767	166
2.49133	146
2.49500	130
2.49867	123
2.50233	117
2.50600	117
2.50967	121
2.51333	125
2.51700	128
2.52067	126
2.52433	118
2.52800	107
2.53167	93
2.53533	82
2.53900	73
2.54267	63
2.54633	55
2.55000	48
2.55367	41
2.55733	37
2.56100	36
2.56467	36
2.56833	36
2.57200	35
2.57567	38
2.57933	45
2.58300	49
2.58667	55
2.59033	60
2.59400	64
2.59767	69
2.60133	74
2.60500	80
2.60867	87
2.61233	90
2.61600	90
2.61967	93
2.62333	89
2.62700	79
2.63067	69
2.63433	60
2.63800	52
2.64167	45
2.64533	39
2.64900	35
2.65267	28
2.65633	20
2.66000	12
2.66367	8
2.66733	4
2.67100	2
2.67467	-0
2.67833	-2
2.68200	-7
2.68567	-10
2.68933	-11
2.69300	-11
2.69667	-14
2.70033	-15
2.70400	-14
2.70767	-16
2.71133	-15
2.71500	-11
2.71867	-7
2.72233	-3
2.72600	1
2.72967	1
2.73333	1
2.73700	2
2.74067	5
2.74433	9
2.74800	14
2.75167	18
2.75533	20
2.75900	23
2.76267	27
2.76633	34
2.77000	41
2.77367	47
2.77733	48
2.78100	48
2.78467	49
2.78833	50
2.79200	52
2.79567	57
2.79933	62
2.80300	66
2.80667	70
2.81033	72
2.81400	74
2.81767	76
2.82133	77
2.82500	76
2.82867	74
2.83233	73
2.83600	78
2.83967	94
2.84333	127
2.84700	193
2.85067	310
2.85433	491
2.85800	748
2.86167	1090
2.86533	1508
2.86900	1973
2.87267	2453
2.87633	2906
2.88000	3297
2.88367	3593
2.88733	3774
2.89100	3838
2.89467	3794
2.89833	3662
2.90200	3463
2.90567	3215
2.90933	2940
2.91300	2657
2.91667	2378
2.92033	2118
2.92400	1875
2.92767	1651
2.93133	1450
2.93500	1273
2.93867	1115
2.94233	973
2.94600	849
2.94967	744
2.95333	653
2.95700	573
2.96067	500
2.96433	437
2.96800	381
2.97167	333
2.97533	287
2.97900	206
2.98267	75
2.98633	-35
2.99000	-78
2.99367	-47
2.99733	36
3.00100	148
3.00467	272
3.00833	395
3.01200	506
3.01567	605
3.01933	688
3.02300	755
3.02667	808
3.03033	851
3.03400	884
3.03767	908
3.04133	924
3.04500	933
3.04867	942
3.05233	947
3.05600	948
3.05967	948
3.06333	948
3.06700	948
3.07067	947
3.07433	944
3.07800	943
3.08167	942
3.08533	937
3.08900	935
3.09267	932
3.09633	928
3.10000	923
3.10367	918
3.10733	914
3.11100	910
3.11467	907
3.11833	905
3.12200	902
3.12567	898
3.12933	895
3.13300	894
3.13667	893
3.14033	892
3.14400	890
3.14767	885
3.15133	881
3.15500	875
3.15867	867
3.16233	860
3.16600	856
3.16967	852
3.17333	849
3.17700	846
3.18067	842
3.18433	842
3.18800	838
3.19167	834
3.19533	829
3.19900	825
3.20267	820
3.20633	814
3.21000	810
3.21367	808
3.21733	806
3.22100	801
3.22467	797
3.22833	790
3.23200	783
3.23567	778
3.23933	774
3.24300	770
3.24667	766
3.25033	763
3.25400	760
3.25767	755
3.26133	751
3.26500	748
3.26867	746
3.27233	744
3.27600	740
3.27967	736
3.28333	732
3.28700	729
3.29067	726
3.29433	723
3.29800	719
3.30167	714
3.30533	710
3.30900	707
3.31267	703
3.31633	700
3.32000	698
3.32367	697
3.32733	694
3.33100	690
3.33467	684
3.33833	679
3.34200	676
3.34567	673
3.34933	669
3.35300	665
3.35667	664
3.36033	662
3.36400	657
3.36767	654
3.37133	651
3.37500	648
3.37867	645
3.38233	642
3.38600	642
3.38967	639
3.39333	636
3.39700	635
3.40067	635
3.40433	633
3.40800	632
3.41167	633
3.41533	633
3.41900	629
3.42267	627
3.42633	624
3.43000	621
3.43367	618
3.43733	614
3.44100	610
3.44467	607
3.44833	604
3.45200	600
3.45567	598
3.45933	596
3.46300	593
3.46667	590
3.47033	586
3.47400	581
3.47767	580
3.48133	579
3.48500	577
3.48867	577
3.49233	575
3.49600	573
3.49967	571
3.50333	567
3.50700	562
3.51067	559
3.51433	559
3.51800	558
3.52167	555
3.52533	552
3.52900	552
3.53267	551
3.53633	549
3.54000	548
3.54367	548
3.54733	546
3.55100	542
3.55467	540
3.55833	537
3.56200	532
3.56567	527
3.56933	525
3.57300	524
3.57667	525
3.58033	527
3.58400	527
3.58767	523
3.59133	522
3.59500	520
3.59867	518
3.60233	516
3.60600	514
3.60967	509
3.61333	505
3.61700	502
3.62067	500
3.62433	501
3.62800	500
3.63167	499
3.63533	496
3.63900	492
3.64267	488
3.64633	487
3.65000	488
3.65367	491
3.65733	494
3.66100	495
3.66467	494
3.66833	492
3.67200	493
3.67567	494
3.67933	491
3.68300	487
3.68667	485
3.69033	483
3.69400	483
3.69767	486
3.70133	488
3.70500	487
3.70867	486
3.71233	485
3.71600	484
3.71967	480
3.72333	476
3.72700	475
3.73067	475
3.73433	474
3.73800	474
3.74167	475
3.74533	477
3.74900	479
3.75267	479
3.75633	479
3.76000	478
3.76367	477
3.76733	474
3.77100	470
3.77467	470
3.77833	469
3.78200	465
3.78567	461
3.78933	458
3.79300	456
3.79667	457
3.80033	460
3.80400	459
3.80767	457
3.81133	456
3.81500	454
3.81867	451
3.82233	451
3.82600	449
3.82967	448
3.83333	447
3.83700	443
3.84067	439
3.84433	438
3.84800	440
3.85167	442
3.85533	445
3.85900	448
3.86267	445
3.86633	441
3.87000	437
3.87367	438
3.87733	438
3.88100	437
3.88467	437
3.88833	438
3.89200	439
3.89567	441
3.89933	441
3.90300	440
3.90667	438
3.91033	437
3.91400	436
3.91767	433
3.92133	431
3.92500	430
3.92867	428
3.93233	426
3.93600	424
3.93967	423
3.94333	421
3.94700	420
3.95067	420
3.95433	422
3.95800	420
3.96167	418
3.96533	419
3.96900	419
3.97267	419
3.97633	420
3.98000	417
3.98367	416
3.98733	413
3.99100	409
3.99467	407
3.99833	401

[Status Trace (Column Oven Temperature)]
Interval(msec)	1000
# of Points	240
Start Time(min)	0.008
End Time(min)	3.991
Intensity Units	
Intensity Multiplier	1
R.Time (min)	Intensity
0.00780	35.04
0.02447	35.03
0.04113	35.02
0.05780	35.02
0.07447	35.02
0.09113	35.02
0.10780	35.02
0.12447	35.01
0.14113	35.02
0.15780	35.02
0.17447	35.02
0.19113	35.02
0.20780	35.02
0.22447	35.02
0.24113	35.01
0.25780	35.01
0.27447	35.00
0.29113	35.01
0.30780	35.01
0.32447	35.00
0.34113	34.99
0.35780	34.99
0.37447	35.00
0.39113	35.00
0.40780	35.01
0.42447	35.00
0.44113	35.00
0.45780	35.00
0.47447	35.01
0.49113	35.01
0.50780	35.00
0.52447	35.01
0.54113	35.00
0.55780	35.00
0.57447	34.99
0.59113	35.00
0.60780	35.00
0.62447	35.00
0.64113	35.00
0.65780	35.00
0.67447	35.00
0.69113	35.00
0.70780	35.00
0.72447	34.99
0.74113	34.99
0.75780	34.99
0.77447	34.99
0.79113	34.99
0.80780	35.00
0.82447	34.99
0.84113	34.99
0.85780	35.00
0.87447	35.00
0.89113	35.00
0.90780	35.01
0.92447	35.00
0.94113	35.01
0.95780	35.01
0.97447	35.01
0.99113	35.00
1.00780	35.00
1.02447	35.00
1.04113	35.01
1.05780	35.00
1.07447	35.00
1.09113	35.00
1.10780	34.99
1.12447	34.99
1.14113	34.99
1.15780	34.99
1.17447	34.99
1.19113	34.99
1.20780	34.99
1.22447	35.00
1.24113	34.99
1.25780	34.99
1.27447	34.99
1.29113	35.00
1.30780	34.99
1.32447	35.00
1.34113	35.00
1.35780	35.00
1.37447	35.00
1.39113	35.00
1.40780	35.00
1.42447	34.99
1.44113	34.99
1.45780	34.99
1.47447	34.98
1.49113	34.98
1.50780	34.99
1.52447	34.99
1.54113	34.99
1.55780	34.99
1.57447	35.00
1.59113	35.00
1.60780	35.06
1.62447	35.19
1.64113	35.36
1.65780	35.61
1.67447	35.95
1.69113	36.32
1.70780	36.68
1.72447	37.01
1.74113	37.33
1.75780	37.63
1.77447	37.97
1.79113	38.30
1.80780	38.65
1.82447	38.99
1.84113	39.32
1.85780	39.66
1.87447	39.99
1.89113	40.28
1.90780	40.61
1.92447	40.96
1.94113	41.30
1.95780	41.61
1.97447	41.93
1.99113	42.27
2.00780	42.59
2.02447	42.92
2.04113	43.23
2.05780	43.56
2.07447	43.89
2.09113	44.21
2.10780	44.54
2.12447	44.88
2.14113	45.22
2.15780	45.54
2.17447	45.88
2.19113	46.19
2.20780	46.52
2.22447	46.85
2.24113	47.16
2.25780	47.51
2.27447	47.83
2.29113	48.15
2.30780	48.48
2.32447	48.81
2.34113	49.14
2.35780	49.42
2.37447	49.62
2.39113	49.70
2.40780	49.69
2.42447	49.68
2.44113	49.69
2.45780	49.69
2.47447	49.68
2.49113	49.69
2.50780	49.73
2.52447	49.74
2.54113	49.76
2.55780	49.77
2.57447	49.79
2.59113	49.79
2.60780	49.81
2.62447	49.83
2.64113	49.83
2.65780	49.85
2.67447	49.85
2.69113	49.85
2.70780	49.85
2.72447	49.85
2.74113	49.85
2.75780	49.86
2.77447	49.87
2.79113	49.87
2.80780	49.87
2.82447	49.87
2.84113	49.88
2.85780	49.89
2.87447	49.88
2.89113	49.89
2.90780	49.91
2.92447	49.92
2.94113	49.94
2.95780	49.96
2.97447	49.97
2.99113	49.99
3.00780	50.00
3.02447	50.01
3.04113	50.01
3.05780	50.01
3.07447	50.02
3.09113	50.03
3.10780	50.04
3.12447	50.04
3.14113	50.05
3.15780	50.06
3.17447	50.06
3.19113	50.07
3.20780	50.07
3.22447	50.08
3.24113	50.09
3.25780	50.09
3.27447	50.10
3.29113	50.10
3.30780	50.10
3.32447	50.10
3.34113	50.10
3.35780	50.09
3.37447	50.08
3.39113	50.08
3.40780	50.07
3.42447	50.06
3.44113	50.05
3.45780	50.04
3.47447	50.04
3.49113	50.05
3.50780	50.05
3.52447	50.05
3.54113	50.06
3.55780	50.06
3.57447	50.05
3.59113	50.05
3.60780	50.05
3.62447	50.05
3.64113	50.05
3.65780	50.05
3.67447	50.06
3.69113	50.06
3.70780	50.06
3.72447	50.05
3.74113	50.05
3.75780	50.06
3.77447	50.06
3.79113	50.06
3.80780	50.07
3.82447	50.07
3.84113	50.08
3.85780	50.07
3.87447	50.07
3.89113	50.06
3.90780	50.07
3.92447	50.08
3.94113	50.07
3.95780	50.07
3.97447	50.07
3.99113	50.06

[Status Trace (Injection Unit Temperature)]
Interval(msec)	1000
# of Points	240
Start Time(min)	0.008
End Time(min)	3.991
Intensity Units	
Intensity Multiplier	1
R.Time (min)	Intensity
0.00780	99.98
0.02447	99.98
0.04113	99.98
0.05780	99.98
0.07447	99.98
0.09113	99.98
0.10780	99.98
0.12447	99.98
0.14113	99.98
0.15780	99.99
0.17447	99.98
0.19113	99.98
0.20780	99.98
0.22447	99.98
0.24113	99.98
0.25780	99.98
0.27447	99.98
0.29113	99.98
0.30780	99.98
0.32447	99.98
0.34113	99.98
0.35780	99.98
0.37447	99.98
0.39113	99.98
0.40780	99.98
0.42447	99.98
0.44113	99.98
0.45780	99.98
0.47447	99.98
0.49113	99.98
0.50780	99.98
0.52447	99.98
0.54113	99.98
0.55780	99.98
0.57447	99.98
0.59113	99.98
0.60780	99.98
0.62447	99.98
0.64113	99.98
0.65780	99.98
0.67447	99.98
0.69113	99.98
0.70780	99.98
0.72447	99.98
0.74113	99.98
0.75780	99.98
0.77447	99.98
0.79113	99.98
0.80780	99.98
0.82447	99.98
0.84113	99.98
0.85780	99.98
0.87447	99.97
0.89113	99.98
0.90780	99.97
0.92447	99.98
0.94113	99.98
0.95780	99.98
0.97447	99.98
0.99113	99.98
1.00780	99.98
1.02447	99.98
1.04113	99.98
1.05780	99.98
1.07447	99.98
1.09113	99.98
1.10780	99.98
1.12447	99.98
1.14113	99.98
1.15780	99.98
1.17447	99.98
1.19113	99.98
1.20780	99.98
1.22447	99.98
1.24113	99.98
1.25780	99.98
1.27447	99.98
1.29113	99.98
1.30780	99.98
1.32447	99.98
1.34113	99.98
1.35780	99.98
1.37447	99.98
1.39113	99.98
1.40780	99.98
1.42447	99.98
1.44113	99.98
1.45780	99.98
1.47447	99.98
1.49113	99.98
1.50780	99.98
1.52447	99.98
1.54113	99.98
1.55780	99.98
1.57447	99.98
1.59113	99.98
1.60780	99.98
1.62447	99.98
1.64113	99.98
1.65780	99.98
1.67447	99.98
1.69113	99.98
1.70780	99.99
1.72447	99.98
1.74113	99.98
1.75780	99.98
1.77447	99.98
1.79113	99.98
1.80780	99.98
1.82447	99.98
1.84113	99.98
1.85780	99.98
1.87447	99.98
1.89113	99.98
1.90780	99.98
1.92447	99.98
1.94113	99.98
1.95780	99.98
1.97447	99.98
1.99113	99.98
2.00780	99.97
2.02447	99.97
2.04113	99.97
2.05780	99.97
2.07447	99.97
2.09113	99.97
2.10780	99.97
2.12447	99.97
2.14113	99.97
2.15780	99.97
2.17447	99.96
2.19113	99.97
2.20780	99.97
2.22447	99.97
2.24113	99.97
2.25780	99.96
2.27447	99.97
2.29113	99.97
2.30780	99.96
2.32447	99.96
2.34113	99.96
2.35780	99.96
2.37447	99.96
2.39113	99.96
2.40780	99.96
2.42447	99.96
2.44113	99.96
2.45780	99.96
2.47447	99.96
2.49113	99.96
2.50780	99.96
2.52447	99.96
2.54113	99.96
2.55780	99.96
2.57447	99.96
2.59113	99.97
2.60780	99.97
2.62447	99.97
2.64113	99.97
2.65780	99.98
2.67447	99.97
2.69113	99.97
2.70780	99.98
2.72447	99.98
2.74113	99.98
2.75780	99.98
2.77447	99.98
2.79113	99.98
2.80780	99.98
2.82447	99.99
2.84113	99.99
2.85780	99.99
2.87447	99.99
2.89113	99.99
2.90780	100.00
2.92447	100.00
2.94113	100.00
2.95780	100.00
2.97447	100.00
2.99113	100.01
3.00780	100.00
3.02447	100.01
3.04113	100.01
3.05780	100.01
3.07447	100.01
3.09113	100.01
3.10780	100.01
3.12447	100.02
3.14113	100.02
3.15780	100.02
3.17447	100.02
3.19113	100.02
3.20780	100.02
3.22447	100.02
3.24113	100.03
3.25780	100.03
3.27447	100.03
3.29113	100.03
3.30780	100.03
3.32447	100.02
3.34113	100.02
3.35780	100.03
3.37447	100.03
3.39113	100.03
3.40780	100.03
3.42447	100.03
3.44113	100.04
3.45780	100.04
3.47447	100.04
3.49113	100.04
3.50780	100.04
3.52447	100.04
3.54113	100.04
3.55780	100.04
3.57447	100.04
3.59113	100.04
3.60780	100.04
3.62447	100.04
3.64113	100.04
3.65780	100.04
3.67447	100.05
3.69113	100.05
3.70780	100.04
3.72447	100.05
3.74113	100.05
3.75780	100.04
3.77447	100.05
3.79113	100.05
3.80780	100.05
3.82447	100.05
3.84113	100.05
3.85780	100.05
3.87447	100.05
3.89113	100.05
3.90780	100.05
3.92447	100.05
3.94113	100.05
3.95780	100.05
3.97447	100.05
3.99113	100.05

[Status Trace (Carrier Gas Pressure)]
Interval(msec)	1000
# of Points	240
Start Time(min)	0.008
End Time(min)	3.991
Intensity Units	
Intensity Multiplier	1
R.Time (min)	Intensity
0.00780	58.00
0.02447	55.39
0.04113	57.09
0.05780	59.14
0.07447	59.52
0.09113	58.08
0.10780	57.98
0.12447	58.01
0.14113	58.01
0.15780	58.01
0.17447	58.00
0.19113	58.00
0.20780	58.00
0.22447	58.00
0.24113	58.00
0.25780	58.00
0.27447	58.00
0.29113	58.00
0.30780	58.00
0.32447	58.00
0.34113	58.00
0.35780	58.00
0.37447	58.00
0.39113	58.00
0.40780	58.00
0.42447	58.00
0.44113	58.00
0.45780	58.00
0.47447	58.00
0.49113	58.00
0.50780	58.00
0.52447	58.00
0.54113	58.00
0.55780	58.00
0.57447	58.00
0.59113	58.00
0.60780	58.00
0.62447	58.00
0.64113	58.00
0.65780	58.00
0.67447	58.00
0.69113	58.00
0.70780	58.00
0.72447	58.00
0.74113	58.00
0.75780	58.00
0.77447	58.00
0.79113	58.00
0.80780	58.00
0.82447	58.00
0.84113	58.00
0.85780	58.00
0.87447	58.00
0.89113	58.00
0.90780	58.00
0.92447	58.00
0.94113	58.00
0.95780	58.00
0.97447	58.00
0.99113	58.00
1.00780	58.00
1.02447	58.00
1.04113	58.00
1.05780	58.00
1.07447	58.00
1.09113	58.00
1.10780	58.00
1.12447	58.00
1.14113	58.00
1.15780	58.00
1.17447	58.00
1.19113	58.00
1.20780	58.00
1.22447	58.00
1.24113	58.00
1.25780	58.00
1.27447	58.00
1.29113	58.00
1.30780	58.00
1.32447	58.00
1.34113	58.00
1.35780	58.00
1.37447	58.00
1.39113	58.00
1.40780	58.00
1.42447	58.00
1.44113	58.00
1.45780	58.00
1.47447	58.00
1.49113	58.00
1.50780	58.00
1.52447	58.00
1.54113	58.00
1.55780	58.00
1.57447	58.00
1.59113	58.00
1.60780	58.00
1.62447	58.00
1.64113	58.01
1.65780	58.00
1.67447	58.01
1.69113	58.00
1.70780	58.00
1.72447	58.00
1.74113	58.00
1.75780	58.00
1.77447	58.00
1.79113	58.00
1.80780	58.00
1.82447	58.00
1.84113	58.00
1.85780	58.00
1.87447	58.00
1.89113	58.00
1.90780	58.00
1.92447	58.00
1.94113	58.00
1.95780	58.00
1.97447	58.00
1.99113	58.00
2.00780	58.00
2.02447	58.00
2.04113	58.00
2.05780	58.00
2.07447	58.00
2.09113	58.00
2.10780	58.00
2.12447	58.00
2.14113	58.00
2.15780	58.00
2.17447	58.00
2.19113	58.00
2.20780	58.00
2.22447	58.00
2.24113	58.00
2.25780	58.00
2.27447	58.00
2.29113	58.00
2.30780	58.00
2.32447	58.00
2.34113	58.00
2.35780	58.00
2.37447	58.00
2.39113	57.99
2.40780	57.99
2.42447	58.00
2.44113	58.00
2.45780	58.00
2.47447	58.00
2.49113	58.00
2.50780	58.00
2.52447	57.98
2.54113	58.00
2.55780	58.00
2.57447	58.00
2.59113	58.00
2.60780	58.00
2.62447	58.00
2.64113	58.00
2.65780	58.00
2.67447	58.00
2.69113	58.00
2.70780	58.00
2.72447	58.00
2.74113	58.00
2.75780	58.00
2.77447	58.00
2.79113	58.00
2.80780	58.00
2.82447	58.00
2.84113	58.00
2.85780	58.00
2.87447	58.00
2.89113	58.00
2.90780	58.00
2.92447	58.00
2.94113	58.00
2.95780	58.00
2.97447	58.00
2.99113	58.00
3.00780	58.00
3.02447	58.00
3.04113	58.00
3.05780	58.00
3.07447	58.00
3.09113	58.00
3.10780	58.00
3.12447	58.00
3.14113	58.00
3.15780	58.00
3.17447	58.00
3.19113	58.00
3.20780	58.00
3.22447	58.00
3.24113	58.00
3.25780	58.00
3.27447	58.00
3.29113	58.00
3.30780	58.00
3.32447	58.00
3.34113	58.00
3.35780	58.00
3.37447	58.00
3.39113	58.00
3.40780	58.00
3.42447	58.00
3.44113	58.00
3.45780	58.00
3.47447	58.00
3.49113	58.00
3.50780	58.00
3.52447	58.00
3.54113	58.00
3.55780	58.00
3.57447	58.00
3.59113	58.00
3.60780	58.00
3.62447	58.00
3.64113	58.00
3.65780	58.00
3.67447	58.00
3.69113	58.00
3.70780	58.00
3.72447	58.00
3.74113	58.00
3.75780	58.00
3.77447	58.00
3.79113	58.00
3.80780	58.00
3.82447	58.00
3.84113	58.00
3.85780	58.00
3.87447	58.00
3.89113	58.00
3.90780	58.00
3.92447	58.00
3.94113	58.00
3.95780	58.00
3.97447	58.00
3.99113	58.00

[Status Trace (Carrier Gas Flow)]
Interval(msec)	1000
# of Points	240
Start Time(min)	0.008
End Time(min)	3.991
Intensity Units	
Intensity Multiplier	1
R.Time (min)	Intensity
0.00780	34.52
0.02447	34.54
0.04113	34.54
0.05780	34.55
0.07447	34.50
0.09113	34.51
0.10780	34.52
0.12447	34.52
0.14113	34.51
0.15780	34.52
0.17447	34.52
0.19113	34.52
0.20780	34.52
0.22447	34.52
0.24113	34.52
0.25780	34.52
0.27447	34.52
0.29113	34.52
0.30780	34.52
0.32447	34.52
0.34113	34.52
0.35780	34.52
0.37447	34.52
0.39113	34.52
0.40780	34.52
0.42447	34.52
0.44113	34.52
0.45780	34.52
0.47447	34.52
0.49113	34.52
0.50780	34.52
0.52447	34.52
0.54113	34.51
0.55780	34.52
0.57447	34.52
0.59113	34.52
0.60780	34.52
0.62447	34.52
0.64113	34.52
0.65780	34.52
0.67447	34.52
0.69113	34.52
0.70780	34.52
0.72447	34.52
0.74113	34.52
0.75780	34.52
0.77447	34.52
0.79113	34.53
0.80780	34.52
0.82447	34.51
0.84113	34.52
0.85780	34.51
0.87447	34.51
0.89113	34.52
0.90780	34.52
0.92447	34.51
0.94113	34.52
0.95780	34.52
0.97447	34.52
0.99113	34.51
1.00780	34.52
1.02447	34.52
1.04113	34.52
1.05780	34.52
1.07447	34.52
1.09113	34.52
1.10780	34.52
1.12447	34.52
1.14113	34.52
1.15780	34.52
1.17447	34.52
1.19113	34.52
1.20780	34.51
1.22447	34.52
1.24113	34.52
1.25780	34.52
1.27447	34.52
1.29113	34.52
1.30780	34.52
1.32447	34.53
1.34113	34.52
1.35780	34.52
1.37447	34.52
1.39113	34.52
1.40780	34.52
1.42447	34.52
1.44113	34.52
1.45780	34.52
1.47447	34.51
1.49113	34.51
1.50780	34.52
1.52447	34.52
1.54113	34.52
1.55780	34.53
1.57447	34.52
1.59113	34.52
1.60780	34.52
1.62447	34.52
1.64113	34.52
1.65780	34.52
1.67447	34.52
1.69113	34.52
1.70780	34.52
1.72447	34.52
1.74113	34.52
1.75780	34.51
1.77447	34.52
1.79113	34.52
1.80780	34.51
1.82447	34.52
1.84113	34.52
1.85780	34.51
1.87447	34.52
1.89113	34.52
1.90780	34.52
1.92447	34.51
1.94113	34.52
1.95780	34.52
1.97447	34.52
1.99113	34.52
2.00780	34.52
2.02447	34.52
2.04113	34.52
2.05780	34.53
2.07447	34.52
2.09113	34.52
2.10780	34.52
2.12447	34.52
2.14113	34.52
2.15780	34.52
2.17447	34.52
2.19113	34.52
2.20780	34.52
2.22447	34.52
2.24113	34.52
2.25780	34.51
2.27447	34.52
2.29113	34.52
2.30780	34.51
2.32447	34.51
2.34113	34.52
2.35780	34.52
2.37447	34.51
2.39113	34.52
2.40780	34.52
2.42447	34.52
2.44113	34.52
2.45780	34.52
2.47447	34.52
2.49113	34.52
2.50780	34.33
2.52447	34.51
2.54113	34.52
2.55780	34.52
2.57447	34.52
2.59113	34.52
2.60780	34.52
2.62447	34.52
2.64113	34.52
2.65780	34.52
2.67447	34.52
2.69113	34.52
2.70780	34.52
2.72447	34.52
2.74113	34.52
2.75780	34.52
2.77447	34.52
2.79113	34.52
2.80780	34.52
2.82447	34.52
2.84113	34.52
2.85780	34.51
2.87447	34.51
2.89113	34.53
2.90780	34.52
2.92447	34.52
2.94113	34.52
2.95780	34.52
2.97447	34.52
2.99113	34.52
3.00780	34.52
3.02447	34.52
3.04113	34.52
3.05780	34.52
3.07447	34.52
3.09113	34.51
3.10780	34.52
3.12447	34.51
3.14113	34.52
3.15780	34.52
3.17447	34.52
3.19113	34.51
3.20780	34.52
3.22447	34.52
3.24113	34.52
3.25780	34.52
3.27447	34.53
3.29113	34.52
3.30780	34.52
3.32447	34.52
3.34113	34.52
3.35780	34.52
3.37447	34.52
3.39113	34.52
3.40780	34.52
3.42447	34.51
3.44113	34.52
3.45780	34.51
3.47447	34.51
3.49113	34.52
3.50780	34.52
3.52447	34.52
3.54113	34.52
3.55780	34.52
3.57447	34.52
3.59113	34.52
3.60780	34.52
3.62447	34.52
3.64113	34.52
3.65780	34.52
3.67447	34.52
3.69113	34.52
3.70780	34.52
3.72447	34.52
3.74113	34.51
3.75780	34.52
3.77447	34.52
3.79113	34.53
3.80780	34.51
3.82447	34.53
3.84113	34.52
3.85780	34.52
3.87447	34.52
3.89113	34.52
3.90780	34.52
3.92447	34.52
3.94113	34.52
3.95780	34.52
3.97447	34.52
3.99113	34.52

[Status Trace (Column Flow)]
Interval(msec)	1000
# of Points	240
Start Time(min)	0.008
End Time(min)	3.991
Intensity Units	
Intensity Multiplier	1
R.Time (min)	Intensity
0.00780	5.50
0.02447	5.20
0.04113	5.40
0.05780	5.64
0.07447	5.68
0.09113	5.52
0.10780	5.50
0.12447	5.51
0.14113	5.51
0.15780	5.51
0.17447	5.51
0.19113	5.51
0.20780	5.51
0.22447	5.51
0.24113	5.51
0.25780	5.51
0.27447	5.51
0.29113	5.51
0.30780	5.51
0.32447	5.51
0.34113	5.51
0.35780	5.51
0.37447	5.51
0.39113	5.51
0.40780	5.51
0.42447	5.51
0.44113	5.51
0.45780	5.51
0.47447	5.51
0.49113	5.51
0.50780	5.51
0.52447	5.51
0.54113	5.51
0.55780	5.51
0.57447	5.51
0.59113	5.51
0.60780	5.51
0.62447	5.51
0.64113	5.51
0.65780	5.51
0.67447	5.51
0.69113	5.51
0.70780	5.51
0.72447	5.51
0.74113	5.51
0.75780	5.51
0.77447	5.51
0.79113	5.51
0.80780	5.51
0.82447	5.51
0.84113	5.51
0.85780	5.51
0.87447	5.51
0.89113	5.51
0.90780	5.51
0.92447	5.51
0.94113	5.51
0.95780	5.51
0.97447	5.51
0.99113	5.51
1.00780	5.51
1.02447	5.51
1.04113	5.51
1.05780	5.51
1.07447	5.51
1.09113	5.51
1.10780	5.51
1.12447	5.51
1.14113	5.51
1.15780	5.51
1.17447	5.51
1.19113	5.51
1.20780	5.51
1.22447	5.51
1.24113	5.51
1.25780	5.51
1.27447	5.51
1.29113	5.51
1.30780	5.51
1.32447	5.51
1.34113	5.51
1.35780	5.51
1.37447	5.51
1.39113	5.51
1.40780	5.51
1.42447	5.51
1.44113	5.51
1.45780	5.51
1.47447	5.51
1.49113	5.51
1.50780	5.51
1.52447	5.51
1.54113	5.51
1.55780	5.51
1.57447	5.51
1.59113	5.51
1.60780	5.50
1.62447	5.50
1.64113	5.50
1.65780	5.49
1.67447	5.48
1.69113	5.47
1.70780	5.45
1.72447	5.44
1.74113	5.43
1.75780	5.42
1.77447	5.41
1.79113	5.40
1.80780	5.39
1.82447	5.38
1.84113	5.37
1.85780	5.36
1.87447	5.35
1.89113	5.34
1.90780	5.33
1.92447	5.32
1.94113	5.31
1.95780	5.30
1.97447	5.29
1.99113	5.28
2.00780	5.28
2.02447	5.27
2.04113	5.26
2.05780	5.25
2.07447	5.24
2.09113	5.23
2.10780	5.22
2.12447	5.21
2.14113	5.20
2.15780	5.19
2.17447	5.18
2.19113	5.17
2.20780	5.16
2.22447	5.15
2.24113	5.14
2.25780	5.13
2.27447	5.12
2.29113	5.12
2.30780	5.11
2.32447	5.10
2.34113	5.09
2.35780	5.08
2.37447	5.07
2.39113	5.07
2.40780	5.07
2.42447	5.07
2.44113	5.07
2.45780	5.07
2.47447	5.07
2.49113	5.07
2.50780	5.07
2.52447	5.07
2.54113	5.07
2.55780	5.07
2.57447	5.07
2.59113	5.07
2.60780	5.07
2.62447	5.07
2.64113	5.07
2.65780	5.07
2.67447	5.07
2.69113	5.07
2.70780	5.07
2.72447	5.07
2.74113	5.07
2.75780	5.07
2.77447	5.07
2.79113	5.07
2.80780	5.07
2.82447	5.07
2.84113	5.07
2.85780	5.07
2.87447	5.07
2.89113	5.07
2.90780	5.07
2.92447	5.07
2.94113	5.07
2.95780	5.07
2.97447	5.06
2.99113	5.06
3.00780	5.06
3.02447	5.06
3.04113	5.06
3.05780	5.06
3.07447	5.06
3.09113	5.06
3.10780	5.06
3.12447	5.06
3.14113	5.06
3.15780	5.06
3.17447	5.06
3.19113	5.06
3.20780	5.06
3.22447	5.06
3.24113	5.06
3.25780	5.06
3.27447	5.06
3.29113	5.06
3.30780	5.06
3.32447	5.06
3.34113	5.06
3.35780	5.06
3.37447	5.06
3.39113	5.06
3.40780	5.06
3.42447	5.06
3.44113	5.06
3.45780	5.06
3.47447	5.06
3.49113	5.06
3.50780	5.06
3.52447	5.06
3.54113	5.06
3.55780	5.06
3.57447	5.06
3.59113	5.06
3.60780	5.06
3.62447	5.06
3.64113	5.06
3.65780	5.06
3.67447	5.06
3.69113	5.06
3.70780	5.06
3.72447	5.06
3.74113	5.06
3.75780	5.06
3.77447	5.06
3.79113	5.06
3.80780	5.06
3.82447	5.06
3.84113	5.06
3.85780	5.06
3.87447	5.06
3.89113	5.06
3.90780	5.06
3.92447	5.06
3.94113	5.06
3.95780	5.06
3.97447	5.06
3.99113	5.06

[Status Trace (Linear Velocity)]
Interval(msec)	1000
# of Points	240
Start Time(min)	0.008
End Time(min)	3.991
Intensity Units	
Intensity Multiplier	1
R.Time (min)	Intensity
0.00780	39.01
0.02447	37.29
0.04113	38.41
0.05780	39.76
0.07447	40.01
0.09113	39.07
0.10780	39.00
0.12447	39.02
0.14113	39.02
0.15780	39.01
0.17447	39.01
0.19113	39.01
0.20780	39.01
0.22447	39.01
0.24113	39.01
0.25780	39.01
0.27447	39.01
0.29113	39.01
0.30780	39.01
0.32447	39.01
0.34113	39.01
0.35780	39.01
0.37447	39.01
0.39113	39.01
0.40780	39.01
0.42447	39.01
0.44113	39.01
0.45780	39.01
0.47447	39.01
0.49113	39.01
0.50780	39.01
0.52447	39.01
0.54113	39.01
0.55780	39.01
0.57447	39.01
0.59113	39.01
0.60780	39.01
0.62447	39.01
0.64113	39.01
0.65780	39.01
0.67447	39.01
0.69113	39.01
0.70780	39.01
0.72447	39.01
0.74113	39.01
0.75780	39.01
0.77447	39.01
0.79113	39.01
0.80780	39.01
0.82447	39.01
0.84113	39.01
0.85780	39.01
0.87447	39.01
0.89113	39.01
0.90780	39.01
0.92447	39.01
0.94113	39.01
0.95780	39.01
0.97447	39.01
0.99113	39.01
1.00780	39.01
1.02447	39.01
1.04113	39.01
1.05780	39.01
1.07447	39.01
1.09113	39.01
1.10780	39.01
1.12447	39.01
1.14113	39.01
1.15780	39.01
1.17447	39.01
1.19113	39.01
1.20780	39.01
1.22447	39.01
1.24113	39.01
1.25780	39.01
1.27447	39.01
1.29113	39.01
1.30780	39.01
1.32447	39.01
1.34113	39.01
1.35780	39.01
1.37447	39.01
1.39113	39.01
1.40780	39.01
1.42447	39.01
1.44113	39.01
1.45780	39.01
1.47447	39.01
1.49113	39.01
1.50780	39.01
1.52447	39.01
1.54113	39.01
1.55780	39.01
1.57447	39.01
1.59113	39.01
1.60780	39.01
1.62447	39.00
1.64113	38.98
1.65780	38.96
1.67447	38.93
1.69113	38.89
1.70780	38.85
1.72447	38.82
1.74113	38.79
1.75780	38.76
1.77447	38.73
1.79113	38.70
1.80780	38.67
1.82447	38.63
1.84113	38.60
1.85780	38.57
1.87447	38.54
1.89113	38.51
1.90780	38.48
1.92447	38.45
1.94113	38.42
1.95780	38.39
1.97447	38.36
1.99113	38.33
2.00780	38.30
2.02447	38.27
2.04113	38.24
2.05780	38.21
2.07447	38.18
2.09113	38.15
2.10780	38.12
2.12447	38.09
2.14113	38.06
2.15780	38.03
2.17447	38.00
2.19113	37.97
2.20780	37.94
2.22447	37.91
2.24113	37.88
2.25780	37.85
2.27447	37.82
2.29113	37.79
2.30780	37.76
2.32447	37.73
2.34113	37.71
2.35780	37.68
2.37447	37.66
2.39113	37.65
2.40780	37.65
2.42447	37.66
2.44113	37.66
2.45780	37.66
2.47447	37.66
2.49113	37.66
2.50780	37.65
2.52447	37.64
2.54113	37.65
2.55780	37.65
2.57447	37.65
2.59113	37.65
2.60780	37.65
2.62447	37.64
2.64113	37.64
2.65780	37.64
2.67447	37.64
2.69113	37.64
2.70780	37.64
2.72447	37.64
2.74113	37.64
2.75780	37.64
2.77447	37.64
2.79113	37.64
2.80780	37.64
2.82447	37.64
2.84113	37.64
2.85780	37.64
2.87447	37.64
2.89113	37.64
2.90780	37.64
2.92447	37.64
2.94113	37.63
2.95780	37.63
2.97447	37.63
2.99113	37.63
3.00780	37.63
3.02447	37.63
3.04113	37.63
3.05780	37.63
3.07447	37.63
3.09113	37.63
3.10780	37.63
3.12447	37.63
3.14113	37.62
3.15780	37.62
3.17447	37.62
3.19113	37.62
3.20780	37.62
3.22447	37.62
3.24113	37.62
3.25780	37.62
3.27447	37.62
3.29113	37.62
3.30780	37.62
3.32447	37.62
3.34113	37.62
3.35780	37.62
3.37447	37.62
3.39113	37.62
3.40780	37.62
3.42447	37.62
3.44113	37.62
3.45780	37.63
3.47447	37.63
3.49113	37.62
3.50780	37.62
3.52447	37.62
3.54113	37.62
3.55780	37.62
3.57447	37.62
3.59113	37.62
3.60780	37.62
3.62447	37.62
3.64113	37.62
3.65780	37.62
3.67447	37.62
3.69113	37.62
3.70780	37.62
3.72447	37.62
3.74113	37.62
3.75780	37.62
3.77447	37.62
3.79113	37.62
3.80780	37.62
3.82447	37.62
3.84113	37.62
3.85780	37.62
3.87447	37.62
3.89113	37.62
3.90780	37.62
3.92447	37.62
3.94113	37.62
3.95780	37.62
3.97447	37.62
3.99113	37.62

