[Header]
Application Name	LabSolutions
Version	5.110
Data File Name	C:\Users\User\Desktop\Junior\UIC Prairie Sampling\7.18.23\071823_022.gcd
Output Date	8/29/2023
Output Time	10:40:20 AM

[File Information]
Type	Data File
Generated	8/28/2023 4:38:54 PM
Generated by	System Administrator
Modified	8/28/2023 4:45:31 PM
Modified by	System Administrator

[Sample Information]
Operator Name	System Administrator
Acquired	8/28/2023 4:41:31 PM
Sample Type	0:Unknown
Level	0
Sample Name	022
Sample ID	022
ISTD Amount1	1
ISTD Amount2	1
ISTD Amount3	1
ISTD Amount4	1
ISTD Amount5	1
ISTD Amount6	1
ISTD Amount7	1
ISTD Amount8	1
ISTD Amount9	1
ISTD Amount10	1
ISTD Amount11	1
ISTD Amount12	1
ISTD Amount13	1
ISTD Amount14	1
ISTD Amount15	1
ISTD Amount16	1
ISTD Amount17	1
ISTD Amount18	1
ISTD Amount19	1
ISTD Amount20	1
ISTD Amount21	1
ISTD Amount22	1
ISTD Amount23	1
ISTD Amount24	1
ISTD Amount25	1
ISTD Amount26	1
ISTD Amount27	1
ISTD Amount28	1
ISTD Amount29	1
ISTD Amount30	1
ISTD Amount31	1
ISTD Amount32	1
Sample Amount	1
Dilution Factor	1
Vial#	21
Injection Volume	1
Injection Count	1
Bar Code	

[Original Files]
Data File	C:\Users\User\Desktop\Junior\UIC Prairie Sampling\7.18.23\071823_022.gcd
Method File	C:\LabSolutions\Data\GHG_4min_2022\ghg3_togas_w_acet_4 min_new_int.gcm
Batch File	C:\LabSolutions\Data\BATCH FILES\071823.gcb
Report Format File	c:\LabSolutions\System\DEFAULT.lsr

[File Description]


[Configuration]
Instrument Name	C0B7VH3-Instrument1
Instrument #	1
Line #	1
# of Detectors	3
Detector ID	DET#1	DET#2	DET#3
Detector Name	FID	PTCD	ECD
# of Channels	1	1	1

[Peak Table(Ch1)]
# of Peaks	3
Peak#	R.Time	I.Time	F.Time	Area	Height	A/H	Conc.	Mark	ID#	Name	k'	Plate #	Plate Ht.	Tailing	Resolution	Sep.Factor	Area Ratio	Height Ratio	Conc. %	Norm Conc.
1	1.472	1.413	1.531	16078	7988	2.013	0.000	   	1	CO	0.000	9926	15.112	1.267	0.000	0.000	0	0	0.000	0.000
2	1.564	1.531	1.630	4600	2307	1.994	22.428	 V 	2	CH4	0.062	11328	13.242	0.000	1.555	0.000	0	0	11.301	11.301
3	1.993	1.945	2.473	913387	437023	2.090	176.026	   	3	CO2	0.354	17756	8.448	1.176	7.235	5.680	0	0	88.699	88.699

[Peak Table(Ch2)]
# of Peaks	0

[Peak Table(Ch3)]
# of Peaks	5
Peak#	R.Time	I.Time	F.Time	Area	Height	A/H	Conc.	Mark	ID#	Name	k'	Plate #	Plate Ht.	Tailing	Resolution	Sep.Factor	Area Ratio	Height Ratio	Conc. %	Norm Conc.
1	2.462	2.392	2.499	695	247	2.816	0.000	   			0.000	11699	12.822	0.000	0.000	0.000	0	0	0.000	0.000
2	2.513	2.499	2.565	416	151	2.755	0.000	 V 			0.021	3572	41.988	0.000	0.396	0.000	0	0	0.000	0.000
3	2.601	2.565	2.675	371	102	3.651	0.000	 V 			0.057	8639	17.363	0.000	0.628	2.714	0	0	0.000	0.000
4	2.891	2.821	3.060	13417	3639	3.687	0.198	   	1	N2O	0.174	13971	10.736	1.584	2.762	3.079	0	0	100.000	100.000
5	3.129	3.060	3.962	19247	838	22.955	0.000	   	2	SF6	0.271	381	393.477	6.555	0.645	1.556	0	0	0.000	0.000

[Compound Results(Ch1)]
# of IDs	6
ID#	Name	R.Time	Area	Height	Conc.	Curve	3rd	2nd	1st	Constant	Area Ratio	Height Ratio	Conc. %	Norm Conc.
1	CO	1.472	16078	7988	0.000	Linear	0.000000e+00	0.000000e+00	0.000000e+00	0.000000e+00	0	0	0.000	0.000
2	CH4	1.564	4600	2307	22.428	Linear	0.000000e+00	0.000000e+00	2.051179e+002	0.000000e+00	0	0	11.301	11.301
3	CO2	1.993	913387	437023	176.026	Linear	0.000000e+00	0.000000e+00	5.188919e+003	0.000000e+00	0	0	88.699	88.699
4	Ethylene	0.000	0	0	0.000	Linear	0.000000e+00	0.000000e+00	0.000000e+00	0.000000e+00	0	0	0.000	0.000
5	Acetylene	0.000	0	0	0.000	Linear	0.000000e+00	0.000000e+00	0.000000e+00	0.000000e+00	0	0	0.000	0.000
6	Ethane	0.000	0	0	0.000	Linear	0.000000e+00	0.000000e+00	0.000000e+00	0.000000e+00	0	0	0.000	0.000

[Compound Results(Ch2)]
# of IDs	5
ID#	Name	R.Time	Area	Height	Conc.	Curve	3rd	2nd	1st	Constant	Area Ratio	Height Ratio	Conc. %	Norm Conc.
1	Hydrogen	0.000	0	0	0.000	Linear	0.000000e+00	0.000000e+00	0.000000e+00	0.000000e+00	0	0	0.000	0.000
2	Oxygen	0.000	0	0	0.000	Linear	0.000000e+00	0.000000e+00	0.000000e+00	0.000000e+00	0	0	0.000	0.000
3	Nitrogen	0.000	0	0	0.000	Linear	0.000000e+00	0.000000e+00	0.000000e+00	0.000000e+00	0	0	0.000	0.000
4	Methane	0.000	0	0	0.000	Linear	0.000000e+00	0.000000e+00	0.000000e+00	0.000000e+00	0	0	0.000	0.000
5	Carbon Monoxide	0.000	0	0	0.000	Linear	0.000000e+00	0.000000e+00	0.000000e+00	0.000000e+00	0	0	0.000	0.000

[Compound Results(Ch3)]
# of IDs	2
ID#	Name	R.Time	Area	Height	Conc.	Curve	3rd	2nd	1st	Constant	Area Ratio	Height Ratio	Conc. %	Norm Conc.
1	N2O	2.891	13417	3639	0.198	Linear	0.000000e+00	0.000000e+00	6.759880e+004	0.000000e+00	0	0	100.000	100.000
2	SF6	3.129	19247	838	0.000	Linear	0.000000e+00	0.000000e+00	0.000000e+00	0.000000e+00	0	0	0.000	0.000

[Group Results(Ch1)]
# of Groups	0

[Group Results(Ch2)]
# of Groups	0

[Group Results(Ch3)]
# of Groups	0

[Chromatogram (Ch1)]
Interval(msec)	220
# of Points	1091
Start Time(min)	0.002
End Time(min)	3.998
R.Time (min)	Intensity
0.00167	3
0.00533	0
0.00900	-8
0.01267	-16
0.01633	-20
0.02000	-20
0.02367	-15
0.02733	-6
0.03100	2
0.03467	8
0.03833	15
0.04200	22
0.04567	27
0.04933	28
0.05300	26
0.05667	22
0.06033	16
0.06400	12
0.06767	10
0.07133	9
0.07500	8
0.07867	8
0.08233	6
0.08600	4
0.08967	5
0.09333	7
0.09700	9
0.10067	10
0.10433	7
0.10800	4
0.11167	3
0.11533	3
0.11900	3
0.12267	1
0.12633	-0
0.13000	-1
0.13367	-0
0.13733	3
0.14100	6
0.14467	10
0.14833	14
0.15200	14
0.15567	11
0.15933	8
0.16300	1
0.16667	-5
0.17033	-9
0.17400	-11
0.17767	-10
0.18133	-7
0.18500	-2
0.18867	2
0.19233	2
0.19600	3
0.19967	8
0.20333	12
0.20700	13
0.21067	9
0.21433	4
0.21800	2
0.22167	5
0.22533	6
0.22900	7
0.23267	8
0.23633	10
0.24000	10
0.24367	9
0.24733	7
0.25100	9
0.25467	14
0.25833	19
0.26200	26
0.26567	33
0.26933	36
0.27300	33
0.27667	32
0.28033	35
0.28400	41
0.28767	45
0.29133	47
0.29500	49
0.29867	52
0.30233	55
0.30600	59
0.30967	61
0.31333	60
0.31700	56
0.32067	48
0.32433	41
0.32800	36
0.33167	33
0.33533	32
0.33900	31
0.34267	29
0.34633	27
0.35000	27
0.35367	31
0.35733	34
0.36100	32
0.36467	28
0.36833	28
0.37200	32
0.37567	37
0.37933	40
0.38300	41
0.38667	42
0.39033	43
0.39400	42
0.39767	39
0.40133	35
0.40500	32
0.40867	29
0.41233	24
0.41600	20
0.41967	20
0.42333	23
0.42700	24
0.43067	26
0.43433	26
0.43800	24
0.44167	18
0.44533	14
0.44900	15
0.45267	18
0.45633	19
0.46000	16
0.46367	13
0.46733	12
0.47100	16
0.47467	19
0.47833	20
0.48200	23
0.48567	24
0.48933	25
0.49300	25
0.49667	23
0.50033	20
0.50400	17
0.50767	12
0.51133	7
0.51500	2
0.51867	-1
0.52233	-0
0.52600	5
0.52967	12
0.53333	18
0.53700	21
0.54067	24
0.54433	32
0.54800	44
0.55167	51
0.55533	51
0.55900	46
0.56267	40
0.56633	36
0.57000	33
0.57367	33
0.57733	32
0.58100	34
0.58467	36
0.58833	40
0.59200	48
0.59567	54
0.59933	55
0.60300	52
0.60667	45
0.61033	39
0.61400	35
0.61767	32
0.62133	30
0.62500	30
0.62867	29
0.63233	28
0.63600	29
0.63967	33
0.64333	37
0.64700	38
0.65067	40
0.65433	41
0.65800	41
0.66167	40
0.66533	38
0.66900	35
0.67267	33
0.67633	31
0.68000	32
0.68367	34
0.68733	34
0.69100	32
0.69467	26
0.69833	24
0.70200	23
0.70567	24
0.70933	24
0.71300	24
0.71667	25
0.72033	25
0.72400	25
0.72767	26
0.73133	29
0.73500	33
0.73867	36
0.74233	37
0.74600	35
0.74967	33
0.75333	32
0.75700	30
0.76067	30
0.76433	31
0.76800	34
0.77167	40
0.77533	48
0.77900	52
0.78267	50
0.78633	44
0.79000	38
0.79367	35
0.79733	34
0.80100	35
0.80467	36
0.80833	37
0.81200	35
0.81567	32
0.81933	33
0.82300	36
0.82667	38
0.83033	36
0.83400	30
0.83767	25
0.84133	24
0.84500	26
0.84867	30
0.85233	35
0.85600	40
0.85967	44
0.86333	47
0.86700	48
0.87067	47
0.87433	43
0.87800	42
0.88167	44
0.88533	47
0.88900	52
0.89267	53
0.89633	50
0.90000	45
0.90367	40
0.90733	40
0.91100	44
0.91467	44
0.91833	40
0.92200	35
0.92567	30
0.92933	30
0.93300	34
0.93667	37
0.94033	36
0.94400	35
0.94767	37
0.95133	42
0.95500	48
0.95867	50
0.96233	48
0.96600	40
0.96967	32
0.97333	28
0.97700	28
0.98067	32
0.98433	35
0.98800	34
0.99167	30
0.99533	23
0.99900	19
1.00267	25
1.00633	34
1.01000	39
1.01367	38
1.01733	33
1.02100	29
1.02467	25
1.02833	21
1.03200	20
1.03567	24
1.03933	32
1.04300	41
1.04667	49
1.05033	51
1.05400	49
1.05767	44
1.06133	37
1.06500	29
1.06867	22
1.07233	20
1.07600	21
1.07967	24
1.08333	27
1.08700	29
1.09067	30
1.09433	31
1.09800	32
1.10167	32
1.10533	32
1.10900	31
1.11267	31
1.11633	32
1.12000	34
1.12367	34
1.12733	34
1.13100	32
1.13467	30
1.13833	29
1.14200	29
1.14567	30
1.14933	32
1.15300	31
1.15667	31
1.16033	30
1.16400	30
1.16767	32
1.17133	33
1.17500	34
1.17867	37
1.18233	35
1.18600	30
1.18967	22
1.19333	14
1.19700	9
1.20067	3
1.20433	-1
1.20800	-6
1.21167	-8
1.21533	-5
1.21900	3
1.22267	14
1.22633	26
1.23000	34
1.23367	37
1.23733	38
1.24100	37
1.24467	37
1.24833	38
1.25200	38
1.25567	38
1.25933	38
1.26300	37
1.26667	37
1.27033	39
1.27400	40
1.27767	39
1.28133	36
1.28500	32
1.28867	28
1.29233	24
1.29600	21
1.29967	20
1.30333	19
1.30700	19
1.31067	24
1.31433	29
1.31800	30
1.32167	28
1.32533	26
1.32900	24
1.33267	23
1.33633	22
1.34000	19
1.34367	16
1.34733	10
1.35100	5
1.35467	0
1.35833	-4
1.36200	-4
1.36567	2
1.36933	9
1.37300	14
1.37667	12
1.38033	8
1.38400	5
1.38767	3
1.39133	2
1.39500	2
1.39867	-1
1.40233	-5
1.40600	-8
1.40967	-6
1.41333	2
1.41700	12
1.42067	19
1.42433	23
1.42800	25
1.43167	29
1.43533	41
1.43900	66
1.44267	133
1.44633	446
1.45000	1316
1.45367	2737
1.45733	4364
1.46100	5855
1.46467	7023
1.46833	7767
1.47200	7991
1.47567	7639
1.47933	6774
1.48300	5597
1.48667	4353
1.49033	3234
1.49400	2325
1.49767	1640
1.50133	1145
1.50500	798
1.50867	559
1.51233	396
1.51600	287
1.51967	217
1.52333	172
1.52700	144
1.53067	130
1.53433	147
1.53800	247
1.54167	490
1.54533	872
1.54900	1314
1.55267	1726
1.55633	2048
1.56000	2254
1.56367	2313
1.56733	2200
1.57100	1928
1.57467	1559
1.57833	1175
1.58200	842
1.58567	585
1.58933	402
1.59300	276
1.59667	190
1.60033	134
1.60400	96
1.60767	68
1.61133	49
1.61500	35
1.61867	27
1.62233	21
1.62600	14
1.62967	8
1.63333	4
1.63700	4
1.64067	6
1.64433	7
1.64800	7
1.65167	6
1.65533	3
1.65900	-1
1.66267	-3
1.66633	-2
1.67000	-0
1.67367	2
1.67733	-0
1.68100	-2
1.68467	-2
1.68833	-0
1.69200	1
1.69567	-1
1.69933	-4
1.70300	-7
1.70667	-9
1.71033	-7
1.71400	-5
1.71767	-0
1.72133	7
1.72500	13
1.72867	17
1.73233	19
1.73600	18
1.73967	16
1.74333	19
1.74700	19
1.75067	17
1.75433	15
1.75800	15
1.76167	14
1.76533	11
1.76900	8
1.77267	3
1.77633	-1
1.78000	-2
1.78367	0
1.78733	3
1.79100	6
1.79467	8
1.79833	9
1.80200	9
1.80567	9
1.80933	11
1.81300	13
1.81667	12
1.82033	8
1.82400	3
1.82767	-2
1.83133	-5
1.83500	-5
1.83867	-5
1.84233	-4
1.84600	-5
1.84967	-6
1.85333	-5
1.85700	-7
1.86067	-9
1.86433	-8
1.86800	-5
1.87167	1
1.87533	6
1.87900	11
1.88267	16
1.88633	17
1.89000	14
1.89367	11
1.89733	12
1.90100	15
1.90467	18
1.90833	18
1.91200	19
1.91567	19
1.91933	19
1.92300	18
1.92667	19
1.93033	20
1.93400	21
1.93767	21
1.94133	22
1.94500	29
1.94867	75
1.95233	349
1.95600	1699
1.95967	6755
1.96333	21053
1.96700	52314
1.97067	106094
1.97433	180184
1.97800	263750
1.98167	342437
1.98533	403129
1.98900	436263
1.99267	437071
1.99633	406809
2.00000	353089
2.00367	287581
2.00733	221850
2.01100	163944
2.01467	117449
2.01833	82509
2.02200	57444
2.02567	40022
2.02933	28149
2.03300	20142
2.03667	14760
2.04033	11127
2.04400	8649
2.04767	6933
2.05133	5720
2.05500	4842
2.05867	4191
2.06233	3692
2.06600	3301
2.06967	2991
2.07333	2740
2.07700	2530
2.08067	2350
2.08433	2191
2.08800	2052
2.09167	1930
2.09533	1822
2.09900	1726
2.10267	1638
2.10633	1558
2.11000	1485
2.11367	1416
2.11733	1353
2.12100	1295
2.12467	1243
2.12833	1199
2.13200	1162
2.13567	1126
2.13933	1090
2.14300	1054
2.14667	1019
2.15033	986
2.15400	956
2.15767	929
2.16133	904
2.16500	881
2.16867	857
2.17233	836
2.17600	817
2.17967	797
2.18333	774
2.18700	751
2.19067	728
2.19433	706
2.19800	686
2.20167	667
2.20533	650
2.20900	635
2.21267	621
2.21633	608
2.22000	594
2.22367	581
2.22733	571
2.23100	563
2.23467	555
2.23833	546
2.24200	535
2.24567	526
2.24933	518
2.25300	511
2.25667	502
2.26033	492
2.26400	481
2.26767	468
2.27133	455
2.27500	444
2.27867	433
2.28233	421
2.28600	409
2.28967	400
2.29333	392
2.29700	387
2.30067	383
2.30433	381
2.30800	379
2.31167	377
2.31533	375
2.31900	374
2.32267	372
2.32633	370
2.33000	368
2.33367	365
2.33733	360
2.34100	355
2.34467	351
2.34833	346
2.35200	340
2.35567	335
2.35933	327
2.36300	316
2.36667	301
2.37033	289
2.37400	282
2.37767	279
2.38133	280
2.38500	285
2.38867	289
2.39233	291
2.39600	289
2.39967	288
2.40333	287
2.40700	285
2.41067	282
2.41433	283
2.41800	285
2.42167	287
2.42533	286
2.42900	280
2.43267	271
2.43633	261
2.44000	250
2.44367	240
2.44733	233
2.45100	229
2.45467	228
2.45833	227
2.46200	226
2.46567	226
2.46933	227
2.47300	228
2.47667	228
2.48033	223
2.48400	217
2.48767	210
2.49133	204
2.49500	202
2.49867	204
2.50233	208
2.50600	215
2.50967	223
2.51333	231
2.51700	233
2.52067	231
2.52433	228
2.52800	225
2.53167	219
2.53533	215
2.53900	213
2.54267	211
2.54633	208
2.55000	203
2.55367	199
2.55733	195
2.56100	192
2.56467	189
2.56833	184
2.57200	177
2.57567	171
2.57933	166
2.58300	163
2.58667	162
2.59033	160
2.59400	158
2.59767	156
2.60133	154
2.60500	153
2.60867	153
2.61233	157
2.61600	161
2.61967	164
2.62333	162
2.62700	156
2.63067	148
2.63433	142
2.63800	138
2.64167	136
2.64533	136
2.64900	139
2.65267	145
2.65633	150
2.66000	150
2.66367	147
2.66733	142
2.67100	136
2.67467	129
2.67833	123
2.68200	121
2.68567	121
2.68933	123
2.69300	126
2.69667	130
2.70033	132
2.70400	133
2.70767	134
2.71133	134
2.71500	132
2.71867	128
2.72233	124
2.72600	119
2.72967	115
2.73333	113
2.73700	111
2.74067	109
2.74433	108
2.74800	106
2.75167	105
2.75533	107
2.75900	110
2.76267	113
2.76633	118
2.77000	122
2.77367	123
2.77733	124
2.78100	124
2.78467	123
2.78833	120
2.79200	112
2.79567	104
2.79933	99
2.80300	97
2.80667	96
2.81033	94
2.81400	93
2.81767	92
2.82133	91
2.82500	88
2.82867	84
2.83233	81
2.83600	81
2.83967	82
2.84333	83
2.84700	88
2.85067	95
2.85433	101
2.85800	105
2.86167	106
2.86533	104
2.86900	98
2.87267	93
2.87633	92
2.88000	92
2.88367	92
2.88733	90
2.89100	91
2.89467	89
2.89833	84
2.90200	78
2.90567	72
2.90933	69
2.91300	67
2.91667	64
2.92033	62
2.92400	62
2.92767	63
2.93133	64
2.93500	63
2.93867	64
2.94233	67
2.94600	69
2.94967	69
2.95333	66
2.95700	64
2.96067	64
2.96433	65
2.96800	69
2.97167	73
2.97533	76
2.97900	82
2.98267	89
2.98633	93
2.99000	96
2.99367	94
2.99733	90
3.00100	86
3.00467	86
3.00833	87
3.01200	87
3.01567	85
3.01933	81
3.02300	78
3.02667	75
3.03033	72
3.03400	68
3.03767	65
3.04133	61
3.04500	59
3.04867	58
3.05233	59
3.05600	62
3.05967	63
3.06333	60
3.06700	54
3.07067	47
3.07433	42
3.07800	38
3.08167	34
3.08533	31
3.08900	30
3.09267	33
3.09633	35
3.10000	38
3.10367	41
3.10733	41
3.11100	40
3.11467	41
3.11833	44
3.12200	45
3.12567	46
3.12933	48
3.13300	49
3.13667	50
3.14033	48
3.14400	45
3.14767	45
3.15133	45
3.15500	44
3.15867	43
3.16233	43
3.16600	46
3.16967	49
3.17333	48
3.17700	44
3.18067	40
3.18433	36
3.18800	32
3.19167	27
3.19533	21
3.19900	17
3.20267	16
3.20633	18
3.21000	21
3.21367	22
3.21733	22
3.22100	20
3.22467	21
3.22833	24
3.23200	26
3.23567	27
3.23933	24
3.24300	19
3.24667	17
3.25033	18
3.25400	20
3.25767	24
3.26133	28
3.26500	30
3.26867	29
3.27233	27
3.27600	26
3.27967	22
3.28333	19
3.28700	17
3.29067	17
3.29433	15
3.29800	12
3.30167	10
3.30533	8
3.30900	6
3.31267	5
3.31633	6
3.32000	9
3.32367	19
3.32733	31
3.33100	40
3.33467	45
3.33833	44
3.34200	38
3.34567	30
3.34933	24
3.35300	18
3.35667	15
3.36033	16
3.36400	18
3.36767	21
3.37133	26
3.37500	29
3.37867	25
3.38233	21
3.38600	18
3.38967	17
3.39333	20
3.39700	23
3.40067	25
3.40433	24
3.40800	25
3.41167	25
3.41533	23
3.41900	19
3.42267	16
3.42633	16
3.43000	18
3.43367	21
3.43733	22
3.44100	23
3.44467	26
3.44833	32
3.45200	35
3.45567	37
3.45933	37
3.46300	33
3.46667	25
3.47033	13
3.47400	3
3.47767	-3
3.48133	-7
3.48500	-9
3.48867	-8
3.49233	-6
3.49600	-3
3.49967	2
3.50333	9
3.50700	16
3.51067	21
3.51433	22
3.51800	20
3.52167	20
3.52533	21
3.52900	23
3.53267	26
3.53633	27
3.54000	26
3.54367	25
3.54733	23
3.55100	23
3.55467	24
3.55833	24
3.56200	20
3.56567	16
3.56933	13
3.57300	10
3.57667	8
3.58033	10
3.58400	15
3.58767	19
3.59133	22
3.59500	23
3.59867	22
3.60233	21
3.60600	20
3.60967	17
3.61333	10
3.61700	6
3.62067	3
3.62433	5
3.62800	8
3.63167	9
3.63533	7
3.63900	3
3.64267	-3
3.64633	-9
3.65000	-17
3.65367	-25
3.65733	-26
3.66100	-22
3.66467	-12
3.66833	-5
3.67200	1
3.67567	8
3.67933	16
3.68300	20
3.68667	21
3.69033	19
3.69400	18
3.69767	18
3.70133	18
3.70500	16
3.70867	14
3.71233	13
3.71600	10
3.71967	7
3.72333	3
3.72700	1
3.73067	1
3.73433	3
3.73800	4
3.74167	4
3.74533	1
3.74900	-3
3.75267	-3
3.75633	-1
3.76000	-1
3.76367	0
3.76733	1
3.77100	-3
3.77467	-9
3.77833	-12
3.78200	-13
3.78567	-15
3.78933	-19
3.79300	-22
3.79667	-23
3.80033	-23
3.80400	-21
3.80767	-16
3.81133	-11
3.81500	-6
3.81867	-1
3.82233	-1
3.82600	-7
3.82967	-15
3.83333	-23
3.83700	-29
3.84067	-32
3.84433	-34
3.84800	-32
3.85167	-27
3.85533	-22
3.85900	-18
3.86267	-15
3.86633	-13
3.87000	-10
3.87367	-9
3.87733	-8
3.88100	-9
3.88467	-14
3.88833	-22
3.89200	-29
3.89567	-35
3.89933	-40
3.90300	-43
3.90667	-45
3.91033	-44
3.91400	-40
3.91767	-37
3.92133	-34
3.92500	-29
3.92867	-24
3.93233	-22
3.93600	-22
3.93967	-25
3.94333	-27
3.94700	-31
3.95067	-31
3.95433	-28
3.95800	-26
3.96167	-27
3.96533	-28
3.96900	-29
3.97267	-30
3.97633	-33
3.98000	-39
3.98367	-46
3.98733	-51
3.99100	-52
3.99467	-48
3.99833	-43

[Chromatogram (Ch2)]
Interval(msec)	220
# of Points	1091
Start Time(min)	0.002
End Time(min)	3.998
R.Time (min)	Intensity
0.00167	-0
0.00533	-0
0.00900	-0
0.01267	-0
0.01633	-0
0.02000	-1
0.02367	-1
0.02733	-0
0.03100	-0
0.03467	-0
0.03833	-0
0.04200	-0
0.04567	-0
0.04933	-0
0.05300	-0
0.05667	-1
0.06033	-1
0.06400	-1
0.06767	-0
0.07133	-0
0.07500	-0
0.07867	0
0.08233	0
0.08600	0
0.08967	0
0.09333	0
0.09700	0
0.10067	0
0.10433	0
0.10800	1
0.11167	1
0.11533	1
0.11900	1
0.12267	1
0.12633	1
0.13000	1
0.13367	1
0.13733	1
0.14100	1
0.14467	1
0.14833	1
0.15200	1
0.15567	1
0.15933	1
0.16300	1
0.16667	1
0.17033	1
0.17400	1
0.17767	1
0.18133	0
0.18500	0
0.18867	0
0.19233	0
0.19600	-0
0.19967	-0
0.20333	0
0.20700	0
0.21067	1
0.21433	1
0.21800	1
0.22167	1
0.22533	1
0.22900	1
0.23267	1
0.23633	1
0.24000	1
0.24367	1
0.24733	0
0.25100	0
0.25467	0
0.25833	-0
0.26200	-0
0.26567	-1
0.26933	-1
0.27300	-0
0.27667	-0
0.28033	-0
0.28400	-0
0.28767	-0
0.29133	-0
0.29500	0
0.29867	0
0.30233	0
0.30600	0
0.30967	0
0.31333	0
0.31700	0
0.32067	0
0.32433	-0
0.32800	-0
0.33167	-1
0.33533	-1
0.33900	-1
0.34267	-1
0.34633	-1
0.35000	-1
0.35367	-1
0.35733	-1
0.36100	-1
0.36467	-1
0.36833	-1
0.37200	-1
0.37567	-1
0.37933	-1
0.38300	-1
0.38667	-1
0.39033	-1
0.39400	-1
0.39767	-0
0.40133	-0
0.40500	-1
0.40867	-1
0.41233	-1
0.41600	-1
0.41967	-1
0.42333	-1
0.42700	-1
0.43067	-1
0.43433	-1
0.43800	-1
0.44167	-1
0.44533	-1
0.44900	-1
0.45267	-1
0.45633	-1
0.46000	-1
0.46367	-0
0.46733	-0
0.47100	0
0.47467	0
0.47833	-0
0.48200	-0
0.48567	-1
0.48933	-1
0.49300	-1
0.49667	-1
0.50033	-1
0.50400	-1
0.50767	-1
0.51133	-1
0.51500	-1
0.51867	-1
0.52233	-1
0.52600	-1
0.52967	-1
0.53333	-1
0.53700	-1
0.54067	-1
0.54433	-0
0.54800	-0
0.55167	-0
0.55533	-0
0.55900	-0
0.56267	-1
0.56633	-1
0.57000	-1
0.57367	-1
0.57733	-1
0.58100	-1
0.58467	-1
0.58833	-1
0.59200	-1
0.59567	-1
0.59933	-1
0.60300	-1
0.60667	-1
0.61033	-1
0.61400	-1
0.61767	-1
0.62133	-1
0.62500	-1
0.62867	-1
0.63233	-1
0.63600	-1
0.63967	-1
0.64333	-1
0.64700	-1
0.65067	-1
0.65433	-1
0.65800	-1
0.66167	-1
0.66533	-1
0.66900	-1
0.67267	-1
0.67633	-1
0.68000	-1
0.68367	-1
0.68733	-1
0.69100	-1
0.69467	-1
0.69833	-1
0.70200	-1
0.70567	-1
0.70933	-1
0.71300	-1
0.71667	-1
0.72033	-1
0.72400	-1
0.72767	-0
0.73133	-0
0.73500	-1
0.73867	-1
0.74233	-1
0.74600	-1
0.74967	-1
0.75333	-1
0.75700	-1
0.76067	-1
0.76433	-1
0.76800	-1
0.77167	-1
0.77533	-1
0.77900	-1
0.78267	-1
0.78633	-2
0.79000	-2
0.79367	-2
0.79733	-2
0.80100	-2
0.80467	-2
0.80833	-2
0.81200	-2
0.81567	-2
0.81933	-2
0.82300	-2
0.82667	-2
0.83033	-1
0.83400	-1
0.83767	-1
0.84133	-2
0.84500	-2
0.84867	-2
0.85233	-2
0.85600	-2
0.85967	-2
0.86333	-2
0.86700	-2
0.87067	-2
0.87433	-2
0.87800	-2
0.88167	-2
0.88533	-2
0.88900	-2
0.89267	-2
0.89633	-2
0.90000	-2
0.90367	-2
0.90733	-2
0.91100	-2
0.91467	-2
0.91833	-2
0.92200	-2
0.92567	-2
0.92933	-2
0.93300	-2
0.93667	-1
0.94033	-1
0.94400	-1
0.94767	-1
0.95133	-1
0.95500	-1
0.95867	-1
0.96233	-1
0.96600	-1
0.96967	-1
0.97333	-1
0.97700	-1
0.98067	-1
0.98433	-1
0.98800	-1
0.99167	-1
0.99533	-1
0.99900	-1
1.00267	-1
1.00633	-1
1.01000	-1
1.01367	-1
1.01733	-1
1.02100	-1
1.02467	-1
1.02833	-1
1.03200	-1
1.03567	-1
1.03933	-0
1.04300	-0
1.04667	-0
1.05033	0
1.05400	0
1.05767	0
1.06133	-0
1.06500	-0
1.06867	-0
1.07233	-0
1.07600	-0
1.07967	-0
1.08333	-1
1.08700	-1
1.09067	-1
1.09433	-1
1.09800	-1
1.10167	-1
1.10533	-1
1.10900	-0
1.11267	-0
1.11633	-0
1.12000	-1
1.12367	-1
1.12733	-1
1.13100	-1
1.13467	-1
1.13833	-1
1.14200	-1
1.14567	-1
1.14933	-1
1.15300	-1
1.15667	-2
1.16033	-2
1.16400	-2
1.16767	-2
1.17133	-1
1.17500	-1
1.17867	-1
1.18233	-1
1.18600	-1
1.18967	-1
1.19333	-1
1.19700	-1
1.20067	-1
1.20433	-1
1.20800	-1
1.21167	-1
1.21533	-1
1.21900	-1
1.22267	-1
1.22633	-1
1.23000	-1
1.23367	-1
1.23733	-1
1.24100	-1
1.24467	-1
1.24833	-1
1.25200	-1
1.25567	-1
1.25933	-1
1.26300	-1
1.26667	-1
1.27033	-1
1.27400	-1
1.27767	-1
1.28133	-1
1.28500	-1
1.28867	-0
1.29233	-0
1.29600	-0
1.29967	-0
1.30333	-0
1.30700	-1
1.31067	-1
1.31433	-1
1.31800	-1
1.32167	-1
1.32533	-1
1.32900	-1
1.33267	-1
1.33633	-1
1.34000	-2
1.34367	-2
1.34733	-2
1.35100	-2
1.35467	-2
1.35833	-2
1.36200	-2
1.36567	-2
1.36933	-2
1.37300	-2
1.37667	-2
1.38033	-2
1.38400	-2
1.38767	-2
1.39133	-2
1.39500	-2
1.39867	-2
1.40233	-2
1.40600	-2
1.40967	-2
1.41333	-2
1.41700	-2
1.42067	-2
1.42433	-2
1.42800	-2
1.43167	-2
1.43533	-2
1.43900	-2
1.44267	-2
1.44633	-2
1.45000	-2
1.45367	-2
1.45733	-2
1.46100	-2
1.46467	-2
1.46833	-1
1.47200	-1
1.47567	-1
1.47933	-1
1.48300	-1
1.48667	-2
1.49033	-2
1.49400	-2
1.49767	-2
1.50133	-2
1.50500	-2
1.50867	-2
1.51233	-2
1.51600	-2
1.51967	-2
1.52333	-2
1.52700	-2
1.53067	-2
1.53433	-2
1.53800	-2
1.54167	-2
1.54533	-1
1.54900	-1
1.55267	-1
1.55633	-1
1.56000	-1
1.56367	-1
1.56733	-1
1.57100	-2
1.57467	-2
1.57833	-2
1.58200	-2
1.58567	-3
1.58933	-3
1.59300	-3
1.59667	-4
1.60033	-5
1.60400	-6
1.60767	-7
1.61133	-8
1.61500	-10
1.61867	-12
1.62233	-14
1.62600	-17
1.62967	-20
1.63333	-23
1.63700	-26
1.64067	-29
1.64433	-32
1.64800	-35
1.65167	-39
1.65533	-42
1.65900	-45
1.66267	-49
1.66633	-53
1.67000	-57
1.67367	-61
1.67733	-66
1.68100	-70
1.68467	-74
1.68833	-78
1.69200	-81
1.69567	-84
1.69933	-87
1.70300	-88
1.70667	-89
1.71033	-90
1.71400	-91
1.71767	-92
1.72133	-92
1.72500	-93
1.72867	-94
1.73233	-94
1.73600	-95
1.73967	-96
1.74333	-96
1.74700	-97
1.75067	-97
1.75433	-98
1.75800	-98
1.76167	-98
1.76533	-98
1.76900	-99
1.77267	-99
1.77633	-99
1.78000	-99
1.78367	-99
1.78733	-99
1.79100	-99
1.79467	-99
1.79833	-98
1.80200	-98
1.80567	-98
1.80933	-98
1.81300	-99
1.81667	-99
1.82033	-99
1.82400	-99
1.82767	-99
1.83133	-99
1.83500	-99
1.83867	-99
1.84233	-99
1.84600	-99
1.84967	-99
1.85333	-98
1.85700	-98
1.86067	-98
1.86433	-99
1.86800	-99
1.87167	-99
1.87533	-99
1.87900	-99
1.88267	-99
1.88633	-98
1.89000	-98
1.89367	-98
1.89733	-98
1.90100	-98
1.90467	-98
1.90833	-98
1.91200	-97
1.91567	-97
1.91933	-96
1.92300	-95
1.92667	-95
1.93033	-95
1.93400	-95
1.93767	-95
1.94133	-95
1.94500	-95
1.94867	-95
1.95233	-94
1.95600	-94
1.95967	-93
1.96333	-92
1.96700	-92
1.97067	-91
1.97433	-91
1.97800	-90
1.98167	-90
1.98533	-89
1.98900	-89
1.99267	-89
1.99633	-89
2.00000	-89
2.00367	-90
2.00733	-90
2.01100	-90
2.01467	-90
2.01833	-90
2.02200	-90
2.02567	-90
2.02933	-89
2.03300	-89
2.03667	-89
2.04033	-89
2.04400	-89
2.04767	-89
2.05133	-89
2.05500	-88
2.05867	-88
2.06233	-87
2.06600	-86
2.06967	-85
2.07333	-85
2.07700	-85
2.08067	-85
2.08433	-85
2.08800	-85
2.09167	-85
2.09533	-85
2.09900	-85
2.10267	-85
2.10633	-85
2.11000	-85
2.11367	-85
2.11733	-85
2.12100	-84
2.12467	-83
2.12833	-83
2.13200	-82
2.13567	-82
2.13933	-82
2.14300	-82
2.14667	-82
2.15033	-82
2.15400	-82
2.15767	-82
2.16133	-81
2.16500	-81
2.16867	-80
2.17233	-79
2.17600	-78
2.17967	-78
2.18333	-78
2.18700	-77
2.19067	-77
2.19433	-77
2.19800	-77
2.20167	-76
2.20533	-76
2.20900	-76
2.21267	-75
2.21633	-75
2.22000	-74
2.22367	-74
2.22733	-74
2.23100	-73
2.23467	-73
2.23833	-73
2.24200	-73
2.24567	-73
2.24933	-73
2.25300	-73
2.25667	-73
2.26033	-72
2.26400	-72
2.26767	-71
2.27133	-71
2.27500	-70
2.27867	-70
2.28233	-71
2.28600	-71
2.28967	-71
2.29333	-71
2.29700	-71
2.30067	-71
2.30433	-70
2.30800	-70
2.31167	-69
2.31533	-68
2.31900	-67
2.32267	-67
2.32633	-66
2.33000	-66
2.33367	-67
2.33733	-68
2.34100	-68
2.34467	-68
2.34833	-68
2.35200	-67
2.35567	-66
2.35933	-64
2.36300	-62
2.36667	-60
2.37033	-57
2.37400	-54
2.37767	-50
2.38133	-46
2.38500	-42
2.38867	-38
2.39233	-33
2.39600	-29
2.39967	-26
2.40333	-22
2.40700	-19
2.41067	-15
2.41433	-12
2.41800	-9
2.42167	-6
2.42533	-3
2.42900	-1
2.43267	1
2.43633	3
2.44000	4
2.44367	5
2.44733	6
2.45100	8
2.45467	9
2.45833	10
2.46200	11
2.46567	12
2.46933	12
2.47300	13
2.47667	13
2.48033	14
2.48400	15
2.48767	15
2.49133	16
2.49500	16
2.49867	17
2.50233	17
2.50600	16
2.50967	16
2.51333	16
2.51700	16
2.52067	16
2.52433	16
2.52800	17
2.53167	17
2.53533	17
2.53900	17
2.54267	17
2.54633	16
2.55000	16
2.55367	15
2.55733	15
2.56100	14
2.56467	14
2.56833	13
2.57200	12
2.57567	12
2.57933	11
2.58300	11
2.58667	12
2.59033	12
2.59400	13
2.59767	14
2.60133	14
2.60500	15
2.60867	16
2.61233	16
2.61600	16
2.61967	17
2.62333	17
2.62700	17
2.63067	17
2.63433	17
2.63800	17
2.64167	17
2.64533	18
2.64900	18
2.65267	19
2.65633	19
2.66000	20
2.66367	20
2.66733	21
2.67100	21
2.67467	22
2.67833	22
2.68200	22
2.68567	23
2.68933	23
2.69300	24
2.69667	24
2.70033	24
2.70400	25
2.70767	25
2.71133	25
2.71500	26
2.71867	26
2.72233	26
2.72600	26
2.72967	26
2.73333	27
2.73700	27
2.74067	27
2.74433	28
2.74800	28
2.75167	29
2.75533	29
2.75900	29
2.76267	30
2.76633	30
2.77000	30
2.77367	30
2.77733	30
2.78100	30
2.78467	29
2.78833	29
2.79200	28
2.79567	28
2.79933	28
2.80300	27
2.80667	27
2.81033	27
2.81400	27
2.81767	27
2.82133	27
2.82500	27
2.82867	27
2.83233	28
2.83600	28
2.83967	28
2.84333	28
2.84700	28
2.85067	29
2.85433	28
2.85800	27
2.86167	25
2.86533	21
2.86900	14
2.87267	4
2.87633	-11
2.88000	-30
2.88367	-55
2.88733	-84
2.89100	-120
2.89467	-160
2.89833	-206
2.90200	-256
2.90567	-310
2.90933	-368
2.91300	-429
2.91667	-492
2.92033	-557
2.92400	-622
2.92767	-686
2.93133	-750
2.93500	-811
2.93867	-868
2.94233	-923
2.94600	-978
2.94967	-1033
2.95333	-1083
2.95700	-1116
2.96067	-1127
2.96433	-1113
2.96800	-1075
2.97167	-1018
2.97533	-948
2.97900	-869
2.98267	-787
2.98633	-705
2.99000	-626
2.99367	-551
2.99733	-482
3.00100	-419
3.00467	-362
3.00833	-312
3.01200	-268
3.01567	-229
3.01933	-194
3.02300	-165
3.02667	-139
3.03033	-117
3.03400	-97
3.03767	-81
3.04133	-67
3.04500	-55
3.04867	-45
3.05233	-36
3.05600	-28
3.05967	-22
3.06333	-16
3.06700	-11
3.07067	-7
3.07433	-3
3.07800	0
3.08167	3
3.08533	5
3.08900	6
3.09267	8
3.09633	9
3.10000	11
3.10367	12
3.10733	13
3.11100	14
3.11467	15
3.11833	16
3.12200	16
3.12567	17
3.12933	17
3.13300	18
3.13667	18
3.14033	18
3.14400	19
3.14767	19
3.15133	19
3.15500	20
3.15867	20
3.16233	20
3.16600	21
3.16967	21
3.17333	21
3.17700	22
3.18067	22
3.18433	22
3.18800	22
3.19167	22
3.19533	22
3.19900	23
3.20267	23
3.20633	23
3.21000	24
3.21367	24
3.21733	24
3.22100	24
3.22467	24
3.22833	24
3.23200	24
3.23567	24
3.23933	24
3.24300	24
3.24667	24
3.25033	25
3.25400	25
3.25767	26
3.26133	26
3.26500	26
3.26867	26
3.27233	27
3.27600	27
3.27967	27
3.28333	27
3.28700	27
3.29067	27
3.29433	28
3.29800	28
3.30167	28
3.30533	28
3.30900	29
3.31267	29
3.31633	29
3.32000	29
3.32367	30
3.32733	30
3.33100	30
3.33467	30
3.33833	31
3.34200	31
3.34567	31
3.34933	31
3.35300	31
3.35667	31
3.36033	31
3.36400	31
3.36767	30
3.37133	30
3.37500	30
3.37867	30
3.38233	30
3.38600	30
3.38967	30
3.39333	30
3.39700	31
3.40067	31
3.40433	31
3.40800	31
3.41167	32
3.41533	32
3.41900	32
3.42267	31
3.42633	31
3.43000	31
3.43367	31
3.43733	31
3.44100	31
3.44467	31
3.44833	31
3.45200	31
3.45567	31
3.45933	31
3.46300	31
3.46667	31
3.47033	31
3.47400	31
3.47767	31
3.48133	31
3.48500	31
3.48867	31
3.49233	31
3.49600	31
3.49967	31
3.50333	31
3.50700	32
3.51067	32
3.51433	31
3.51800	31
3.52167	31
3.52533	31
3.52900	31
3.53267	31
3.53633	31
3.54000	31
3.54367	30
3.54733	30
3.55100	30
3.55467	30
3.55833	30
3.56200	30
3.56567	30
3.56933	30
3.57300	30
3.57667	30
3.58033	30
3.58400	30
3.58767	30
3.59133	30
3.59500	30
3.59867	30
3.60233	30
3.60600	30
3.60967	30
3.61333	30
3.61700	30
3.62067	30
3.62433	30
3.62800	30
3.63167	30
3.63533	30
3.63900	30
3.64267	30
3.64633	29
3.65000	29
3.65367	29
3.65733	29
3.66100	29
3.66467	29
3.66833	30
3.67200	30
3.67567	30
3.67933	30
3.68300	30
3.68667	30
3.69033	30
3.69400	30
3.69767	30
3.70133	30
3.70500	30
3.70867	30
3.71233	30
3.71600	30
3.71967	30
3.72333	30
3.72700	30
3.73067	30
3.73433	30
3.73800	30
3.74167	30
3.74533	30
3.74900	30
3.75267	30
3.75633	30
3.76000	30
3.76367	30
3.76733	30
3.77100	30
3.77467	30
3.77833	30
3.78200	30
3.78567	30
3.78933	29
3.79300	29
3.79667	29
3.80033	29
3.80400	29
3.80767	29
3.81133	29
3.81500	29
3.81867	29
3.82233	29
3.82600	29
3.82967	29
3.83333	29
3.83700	29
3.84067	29
3.84433	29
3.84800	29
3.85167	29
3.85533	29
3.85900	29
3.86267	30
3.86633	30
3.87000	30
3.87367	30
3.87733	30
3.88100	30
3.88467	30
3.88833	30
3.89200	29
3.89567	29
3.89933	29
3.90300	29
3.90667	29
3.91033	29
3.91400	29
3.91767	29
3.92133	29
3.92500	29
3.92867	29
3.93233	29
3.93600	29
3.93967	29
3.94333	29
3.94700	29
3.95067	29
3.95433	29
3.95800	29
3.96167	30
3.96533	30
3.96900	30
3.97267	30
3.97633	30
3.98000	30
3.98367	30
3.98733	30
3.99100	30
3.99467	30
3.99833	30

[Chromatogram (Ch3)]
Interval(msec)	220
# of Points	1091
Start Time(min)	0.002
End Time(min)	3.998
R.Time (min)	Intensity
0.00167	0
0.00533	3
0.00900	6
0.01267	4
0.01633	2
0.02000	-0
0.02367	0
0.02733	1
0.03100	5
0.03467	9
0.03833	8
0.04200	7
0.04567	6
0.04933	5
0.05300	5
0.05667	4
0.06033	5
0.06400	6
0.06767	6
0.07133	4
0.07500	4
0.07867	6
0.08233	6
0.08600	6
0.08967	6
0.09333	6
0.09700	8
0.10067	9
0.10433	9
0.10800	8
0.11167	6
0.11533	5
0.11900	4
0.12267	6
0.12633	8
0.13000	9
0.13367	9
0.13733	6
0.14100	4
0.14467	3
0.14833	3
0.15200	5
0.15567	6
0.15933	8
0.16300	9
0.16667	9
0.17033	9
0.17400	7
0.17767	6
0.18133	9
0.18500	11
0.18867	10
0.19233	8
0.19600	7
0.19967	8
0.20333	10
0.20700	10
0.21067	9
0.21433	8
0.21800	6
0.22167	5
0.22533	8
0.22900	9
0.23267	8
0.23633	8
0.24000	8
0.24367	8
0.24733	6
0.25100	6
0.25467	7
0.25833	6
0.26200	5
0.26567	5
0.26933	6
0.27300	6
0.27667	7
0.28033	8
0.28400	9
0.28767	12
0.29133	12
0.29500	8
0.29867	4
0.30233	2
0.30600	1
0.30967	1
0.31333	4
0.31700	6
0.32067	5
0.32433	5
0.32800	6
0.33167	7
0.33533	7
0.33900	6
0.34267	6
0.34633	7
0.35000	9
0.35367	11
0.35733	13
0.36100	13
0.36467	10
0.36833	8
0.37200	8
0.37567	8
0.37933	12
0.38300	13
0.38667	13
0.39033	10
0.39400	11
0.39767	12
0.40133	13
0.40500	12
0.40867	11
0.41233	14
0.41600	16
0.41967	15
0.42333	13
0.42700	15
0.43067	15
0.43433	13
0.43800	10
0.44167	7
0.44533	7
0.44900	7
0.45267	5
0.45633	3
0.46000	2
0.46367	2
0.46733	5
0.47100	8
0.47467	8
0.47833	8
0.48200	8
0.48567	9
0.48933	10
0.49300	10
0.49667	8
0.50033	10
0.50400	11
0.50767	13
0.51133	13
0.51500	10
0.51867	8
0.52233	6
0.52600	2
0.52967	1
0.53333	-2
0.53700	-1
0.54067	2
0.54433	2
0.54800	2
0.55167	6
0.55533	7
0.55900	5
0.56267	2
0.56633	2
0.57000	4
0.57367	4
0.57733	3
0.58100	5
0.58467	8
0.58833	12
0.59200	13
0.59567	12
0.59933	13
0.60300	14
0.60667	15
0.61033	14
0.61400	13
0.61767	11
0.62133	11
0.62500	13
0.62867	15
0.63233	14
0.63600	12
0.63967	12
0.64333	12
0.64700	13
0.65067	12
0.65433	11
0.65800	12
0.66167	12
0.66533	14
0.66900	16
0.67267	16
0.67633	13
0.68000	12
0.68367	11
0.68733	10
0.69100	13
0.69467	16
0.69833	16
0.70200	12
0.70567	8
0.70933	9
0.71300	9
0.71667	10
0.72033	12
0.72400	14
0.72767	16
0.73133	16
0.73500	15
0.73867	14
0.74233	11
0.74600	9
0.74967	7
0.75333	6
0.75700	8
0.76067	11
0.76433	10
0.76800	10
0.77167	12
0.77533	12
0.77900	14
0.78267	14
0.78633	12
0.79000	10
0.79367	8
0.79733	8
0.80100	12
0.80467	14
0.80833	14
0.81200	13
0.81567	11
0.81933	11
0.82300	14
0.82667	15
0.83033	12
0.83400	11
0.83767	11
0.84133	8
0.84500	7
0.84867	8
0.85233	9
0.85600	10
0.85967	8
0.86333	9
0.86700	11
0.87067	13
0.87433	14
0.87800	14
0.88167	12
0.88533	13
0.88900	15
0.89267	14
0.89633	12
0.90000	14
0.90367	18
0.90733	21
0.91100	19
0.91467	18
0.91833	18
0.92200	17
0.92567	16
0.92933	16
0.93300	16
0.93667	17
0.94033	19
0.94400	19
0.94767	17
0.95133	14
0.95500	11
0.95867	11
0.96233	11
0.96600	12
0.96967	11
0.97333	11
0.97700	10
0.98067	9
0.98433	13
0.98800	15
0.99167	16
0.99533	16
0.99900	18
1.00267	18
1.00633	16
1.01000	14
1.01367	14
1.01733	14
1.02100	17
1.02467	19
1.02833	18
1.03200	16
1.03567	14
1.03933	12
1.04300	13
1.04667	15
1.05033	14
1.05400	14
1.05767	15
1.06133	14
1.06500	12
1.06867	12
1.07233	15
1.07600	17
1.07967	14
1.08333	13
1.08700	14
1.09067	17
1.09433	19
1.09800	21
1.10167	23
1.10533	24
1.10900	21
1.11267	18
1.11633	18
1.12000	17
1.12367	15
1.12733	13
1.13100	12
1.13467	13
1.13833	16
1.14200	19
1.14567	18
1.14933	15
1.15300	18
1.15667	22
1.16033	24
1.16400	22
1.16767	19
1.17133	19
1.17500	18
1.17867	15
1.18233	13
1.18600	12
1.18967	13
1.19333	18
1.19700	18
1.20067	15
1.20433	14
1.20800	14
1.21167	12
1.21533	11
1.21900	11
1.22267	12
1.22633	14
1.23000	15
1.23367	15
1.23733	14
1.24100	12
1.24467	9
1.24833	6
1.25200	6
1.25567	8
1.25933	11
1.26300	14
1.26667	15
1.27033	18
1.27400	19
1.27767	21
1.28133	21
1.28500	19
1.28867	16
1.29233	16
1.29600	17
1.29967	17
1.30333	19
1.30700	21
1.31067	22
1.31433	22
1.31800	20
1.32167	20
1.32533	18
1.32900	14
1.33267	13
1.33633	14
1.34000	13
1.34367	11
1.34733	8
1.35100	7
1.35467	7
1.35833	9
1.36200	9
1.36567	10
1.36933	11
1.37300	10
1.37667	10
1.38033	9
1.38400	10
1.38767	12
1.39133	14
1.39500	13
1.39867	12
1.40233	13
1.40600	15
1.40967	19
1.41333	20
1.41700	19
1.42067	15
1.42433	13
1.42800	14
1.43167	15
1.43533	18
1.43900	20
1.44267	20
1.44633	22
1.45000	22
1.45367	21
1.45733	20
1.46100	20
1.46467	17
1.46833	13
1.47200	11
1.47567	12
1.47933	13
1.48300	15
1.48667	15
1.49033	12
1.49400	12
1.49767	14
1.50133	17
1.50500	16
1.50867	13
1.51233	14
1.51600	16
1.51967	17
1.52333	19
1.52700	18
1.53067	17
1.53433	16
1.53800	18
1.54167	20
1.54533	22
1.54900	23
1.55267	23
1.55633	22
1.56000	21
1.56367	19
1.56733	17
1.57100	17
1.57467	16
1.57833	16
1.58200	16
1.58567	16
1.58933	14
1.59300	14
1.59667	17
1.60033	17
1.60400	16
1.60767	15
1.61133	15
1.61500	15
1.61867	15
1.62233	16
1.62600	17
1.62967	19
1.63333	22
1.63700	22
1.64067	20
1.64433	20
1.64800	21
1.65167	20
1.65533	18
1.65900	18
1.66267	17
1.66633	16
1.67000	19
1.67367	22
1.67733	24
1.68100	20
1.68467	18
1.68833	17
1.69200	17
1.69567	17
1.69933	18
1.70300	19
1.70667	19
1.71033	17
1.71400	15
1.71767	15
1.72133	18
1.72500	19
1.72867	20
1.73233	20
1.73600	22
1.73967	22
1.74333	23
1.74700	24
1.75067	25
1.75433	27
1.75800	28
1.76167	27
1.76533	24
1.76900	21
1.77267	20
1.77633	21
1.78000	22
1.78367	22
1.78733	21
1.79100	21
1.79467	24
1.79833	24
1.80200	22
1.80567	20
1.80933	19
1.81300	20
1.81667	20
1.82033	20
1.82400	22
1.82767	22
1.83133	21
1.83500	18
1.83867	15
1.84233	16
1.84600	17
1.84967	19
1.85333	21
1.85700	23
1.86067	25
1.86433	23
1.86800	21
1.87167	21
1.87533	24
1.87900	27
1.88267	29
1.88633	31
1.89000	32
1.89367	30
1.89733	29
1.90100	30
1.90467	32
1.90833	35
1.91200	34
1.91567	34
1.91933	34
1.92300	34
1.92667	33
1.93033	34
1.93400	36
1.93767	36
1.94133	38
1.94500	39
1.94867	39
1.95233	39
1.95600	40
1.95967	39
1.96333	37
1.96700	37
1.97067	33
1.97433	31
1.97800	29
1.98167	31
1.98533	33
1.98900	35
1.99267	37
1.99633	37
2.00000	37
2.00367	41
2.00733	42
2.01100	43
2.01467	45
2.01833	46
2.02200	46
2.02567	43
2.02933	39
2.03300	36
2.03667	36
2.04033	35
2.04400	34
2.04767	37
2.05133	41
2.05500	41
2.05867	43
2.06233	45
2.06600	44
2.06967	45
2.07333	46
2.07700	46
2.08067	50
2.08433	55
2.08800	58
2.09167	57
2.09533	53
2.09900	52
2.10267	53
2.10633	51
2.11000	48
2.11367	49
2.11733	53
2.12100	57
2.12467	56
2.12833	55
2.13200	55
2.13567	54
2.13933	54
2.14300	56
2.14667	57
2.15033	57
2.15400	59
2.15767	64
2.16133	68
2.16500	69
2.16867	69
2.17233	68
2.17600	65
2.17967	66
2.18333	70
2.18700	69
2.19067	68
2.19433	68
2.19800	69
2.20167	70
2.20533	70
2.20900	71
2.21267	73
2.21633	74
2.22000	75
2.22367	75
2.22733	74
2.23100	74
2.23467	77
2.23833	78
2.24200	76
2.24567	78
2.24933	81
2.25300	82
2.25667	83
2.26033	82
2.26400	84
2.26767	87
2.27133	87
2.27500	84
2.27867	84
2.28233	84
2.28600	86
2.28967	86
2.29333	86
2.29700	85
2.30067	86
2.30433	86
2.30800	86
2.31167	86
2.31533	87
2.31900	90
2.32267	90
2.32633	92
2.33000	93
2.33367	92
2.33733	93
2.34100	96
2.34467	97
2.34833	97
2.35200	96
2.35567	95
2.35933	97
2.36300	99
2.36667	99
2.37033	98
2.37400	96
2.37767	95
2.38133	96
2.38500	97
2.38867	94
2.39233	96
2.39600	102
2.39967	106
2.40333	110
2.40700	114
2.41067	117
2.41433	118
2.41800	119
2.42167	121
2.42533	123
2.42900	126
2.43267	126
2.43633	124
2.44000	125
2.44367	158
2.44733	219
2.45100	279
2.45467	324
2.45833	346
2.46200	348
2.46567	346
2.46933	346
2.47300	339
2.47667	324
2.48033	305
2.48400	283
2.48767	263
2.49133	248
2.49500	239
2.49867	237
2.50233	241
2.50600	247
2.50967	253
2.51333	257
2.51700	257
2.52067	250
2.52433	240
2.52800	226
2.53167	212
2.53533	199
2.53900	191
2.54267	185
2.54633	181
2.55000	178
2.55367	172
2.55733	168
2.56100	164
2.56467	162
2.56833	163
2.57200	167
2.57567	170
2.57933	173
2.58300	178
2.58667	184
2.59033	192
2.59400	201
2.59767	209
2.60133	214
2.60500	214
2.60867	210
2.61233	205
2.61600	201
2.61967	198
2.62333	191
2.62700	186
2.63067	180
2.63433	173
2.63800	166
2.64167	158
2.64533	147
2.64900	140
2.65267	132
2.65633	127
2.66000	126
2.66367	125
2.66733	121
2.67100	119
2.67467	119
2.67833	117
2.68200	116
2.68567	115
2.68933	118
2.69300	122
2.69667	124
2.70033	122
2.70400	119
2.70767	118
2.71133	119
2.71500	123
2.71867	124
2.72233	123
2.72600	121
2.72967	124
2.73333	130
2.73700	135
2.74067	138
2.74433	139
2.74800	140
2.75167	141
2.75533	142
2.75900	146
2.76267	152
2.76633	154
2.77000	156
2.77367	158
2.77733	161
2.78100	165
2.78467	169
2.78833	175
2.79200	175
2.79567	173
2.79933	171
2.80300	170
2.80667	173
2.81033	174
2.81400	172
2.81767	170
2.82133	171
2.82500	174
2.82867	176
2.83233	175
2.83600	179
2.83967	191
2.84333	219
2.84700	281
2.85067	392
2.85433	565
2.85800	817
2.86167	1151
2.86533	1554
2.86900	2004
2.87267	2468
2.87633	2906
2.88000	3279
2.88367	3562
2.88733	3736
2.89100	3798
2.89467	3756
2.89833	3632
2.90200	3440
2.90567	3204
2.90933	2946
2.91300	2675
2.91667	2404
2.92033	2144
2.92400	1904
2.92767	1686
2.93133	1492
2.93500	1320
2.93867	1166
2.94233	1033
2.94600	915
2.94967	812
2.95333	720
2.95700	638
2.96067	569
2.96433	510
2.96800	459
2.97167	415
2.97533	376
2.97900	342
2.98267	316
2.98633	293
2.99000	274
2.99367	256
2.99733	241
3.00100	230
3.00467	223
3.00833	217
3.01200	211
3.01567	202
3.01933	196
3.02300	190
3.02667	184
3.03033	180
3.03400	175
3.03767	172
3.04133	171
3.04500	170
3.04867	167
3.05233	159
3.05600	139
3.05967	128
3.06333	146
3.06700	197
3.07067	271
3.07433	359
3.07800	451
3.08167	541
3.08533	622
3.08900	691
3.09267	752
3.09633	805
3.10000	850
3.10367	886
3.10733	918
3.11100	943
3.11467	963
3.11833	975
3.12200	983
3.12567	992
3.12933	996
3.13300	995
3.13667	994
3.14033	994
3.14400	993
3.14767	992
3.15133	992
3.15500	992
3.15867	991
3.16233	987
3.16600	981
3.16967	977
3.17333	974
3.17700	971
3.18067	967
3.18433	965
3.18800	962
3.19167	958
3.19533	952
3.19900	948
3.20267	945
3.20633	941
3.21000	938
3.21367	934
3.21733	926
3.22100	917
3.22467	908
3.22833	902
3.23200	900
3.23567	894
3.23933	887
3.24300	880
3.24667	872
3.25033	866
3.25400	862
3.25767	860
3.26133	857
3.26500	850
3.26867	844
3.27233	839
3.27600	831
3.27967	825
3.28333	823
3.28700	821
3.29067	815
3.29433	810
3.29800	806
3.30167	805
3.30533	802
3.30900	798
3.31267	793
3.31633	788
3.32000	785
3.32367	783
3.32733	779
3.33100	773
3.33467	768
3.33833	766
3.34200	765
3.34567	761
3.34933	758
3.35300	753
3.35667	750
3.36033	750
3.36400	750
3.36767	749
3.37133	745
3.37500	743
3.37867	740
3.38233	737
3.38600	733
3.38967	730
3.39333	732
3.39700	733
3.40067	732
3.40433	731
3.40800	730
3.41167	729
3.41533	726
3.41900	723
3.42267	722
3.42633	718
3.43000	713
3.43367	709
3.43733	704
3.44100	698
3.44467	695
3.44833	693
3.45200	693
3.45567	690
3.45933	682
3.46300	677
3.46667	671
3.47033	665
3.47400	658
3.47767	654
3.48133	652
3.48500	648
3.48867	647
3.49233	643
3.49600	638
3.49967	636
3.50333	630
3.50700	623
3.51067	617
3.51433	615
3.51800	614
3.52167	619
3.52533	625
3.52900	624
3.53267	620
3.53633	617
3.54000	616
3.54367	613
3.54733	609
3.55100	608
3.55467	607
3.55833	605
3.56200	604
3.56567	603
3.56933	601
3.57300	601
3.57667	602
3.58033	603
3.58400	601
3.58767	599
3.59133	595
3.59500	593
3.59867	594
3.60233	594
3.60600	590
3.60967	585
3.61333	584
3.61700	582
3.62067	581
3.62433	578
3.62800	575
3.63167	574
3.63533	573
3.63900	572
3.64267	571
3.64633	571
3.65000	571
3.65367	568
3.65733	566
3.66100	565
3.66467	563
3.66833	562
3.67200	563
3.67567	565
3.67933	565
3.68300	565
3.68667	567
3.69033	565
3.69400	565
3.69767	566
3.70133	564
3.70500	564
3.70867	562
3.71233	561
3.71600	561
3.71967	560
3.72333	557
3.72700	556
3.73067	554
3.73433	553
3.73800	553
3.74167	555
3.74533	558
3.74900	557
3.75267	555
3.75633	551
3.76000	549
3.76367	550
3.76733	551
3.77100	551
3.77467	554
3.77833	555
3.78200	551
3.78567	546
3.78933	543
3.79300	542
3.79667	541
3.80033	540
3.80400	540
3.80767	543
3.81133	545
3.81500	547
3.81867	547
3.82233	548
3.82600	546
3.82967	544
3.83333	542
3.83700	540
3.84067	538
3.84433	534
3.84800	531
3.85167	532
3.85533	530
3.85900	529
3.86267	530
3.86633	533
3.87000	535
3.87367	535
3.87733	533
3.88100	532
3.88467	531
3.88833	529
3.89200	526
3.89567	525
3.89933	527
3.90300	528
3.90667	527
3.91033	524
3.91400	521
3.91767	520
3.92133	518
3.92500	514
3.92867	510
3.93233	512
3.93600	514
3.93967	516
3.94333	514
3.94700	513
3.95067	512
3.95433	512
3.95800	511
3.96167	509
3.96533	507
3.96900	507
3.97267	506
3.97633	506
3.98000	507
3.98367	505
3.98733	503
3.99100	499
3.99467	495
3.99833	490

[Status Trace (Column Oven Temperature)]
Interval(msec)	1000
# of Points	240
Start Time(min)	0.008
End Time(min)	3.992
Intensity Units	
Intensity Multiplier	1
R.Time (min)	Intensity
0.00835	35.03
0.02502	35.04
0.04168	35.04
0.05835	35.04
0.07502	35.04
0.09168	35.03
0.10835	35.04
0.12502	35.04
0.14168	35.03
0.15835	35.02
0.17502	35.03
0.19168	35.04
0.20835	35.02
0.22502	35.03
0.24168	35.03
0.25835	35.02
0.27502	35.02
0.29168	35.01
0.30835	35.01
0.32502	35.01
0.34168	35.01
0.35835	35.01
0.37502	35.01
0.39168	35.01
0.40835	35.00
0.42502	35.01
0.44168	35.01
0.45835	35.01
0.47502	35.00
0.49168	35.01
0.50835	35.01
0.52502	35.01
0.54168	35.01
0.55835	35.01
0.57502	35.02
0.59168	35.01
0.60835	35.02
0.62502	35.02
0.64168	35.01
0.65835	35.01
0.67502	35.00
0.69168	35.00
0.70835	35.00
0.72502	35.00
0.74168	34.99
0.75835	34.98
0.77502	34.99
0.79168	34.99
0.80835	35.00
0.82502	35.00
0.84168	35.00
0.85835	35.00
0.87502	35.00
0.89168	35.00
0.90835	35.00
0.92502	35.00
0.94168	35.00
0.95835	35.00
0.97502	34.99
0.99168	34.99
1.00835	34.98
1.02502	34.98
1.04168	34.99
1.05835	34.99
1.07502	35.00
1.09168	35.00
1.10835	35.00
1.12502	35.01
1.14168	35.00
1.15835	34.99
1.17502	34.99
1.19168	34.99
1.20835	35.00
1.22502	34.99
1.24168	35.00
1.25835	35.00
1.27502	35.00
1.29168	35.00
1.30835	35.00
1.32502	34.99
1.34168	34.99
1.35835	34.98
1.37502	34.98
1.39168	34.99
1.40835	35.00
1.42502	35.00
1.44168	35.00
1.45835	35.00
1.47502	35.00
1.49168	35.00
1.50835	34.99
1.52502	34.99
1.54168	35.00
1.55835	34.99
1.57502	34.99
1.59168	35.00
1.60835	35.05
1.62502	35.17
1.64168	35.36
1.65835	35.60
1.67502	35.94
1.69168	36.30
1.70835	36.64
1.72502	36.99
1.74168	37.33
1.75835	37.67
1.77502	38.00
1.79168	38.33
1.80835	38.67
1.82502	39.00
1.84168	39.33
1.85835	39.66
1.87502	39.98
1.89168	40.32
1.90835	40.64
1.92502	40.97
1.94168	41.31
1.95835	41.62
1.97502	41.94
1.99168	42.25
2.00835	42.57
2.02502	42.89
2.04168	43.22
2.05835	43.55
2.07502	43.87
2.09168	44.20
2.10835	44.54
2.12502	44.86
2.14168	45.20
2.15835	45.52
2.17502	45.83
2.19168	46.18
2.20835	46.50
2.22502	46.83
2.24168	47.15
2.25835	47.48
2.27502	47.81
2.29168	48.16
2.30835	48.48
2.32502	48.81
2.34168	49.18
2.35835	49.45
2.37502	49.62
2.39168	49.66
2.40835	49.66
2.42502	49.65
2.44168	49.67
2.45835	49.66
2.47502	49.68
2.49168	49.67
2.50835	49.71
2.52502	49.72
2.54168	49.74
2.55835	49.75
2.57502	49.77
2.59168	49.79
2.60835	49.80
2.62502	49.82
2.64168	49.83
2.65835	49.83
2.67502	49.84
2.69168	49.85
2.70835	49.85
2.72502	49.87
2.74168	49.86
2.75835	49.85
2.77502	49.85
2.79168	49.86
2.80835	49.88
2.82502	49.88
2.84168	49.89
2.85835	49.90
2.87502	49.91
2.89168	49.91
2.90835	49.92
2.92502	49.94
2.94168	49.95
2.95835	49.96
2.97502	49.96
2.99168	49.97
3.00835	49.99
3.02502	50.00
3.04168	50.01
3.05835	50.02
3.07502	50.03
3.09168	50.03
3.10835	50.03
3.12502	50.04
3.14168	50.04
3.15835	50.05
3.17502	50.06
3.19168	50.07
3.20835	50.08
3.22502	50.08
3.24168	50.10
3.25835	50.10
3.27502	50.10
3.29168	50.10
3.30835	50.10
3.32502	50.09
3.34168	50.08
3.35835	50.07
3.37502	50.07
3.39168	50.07
3.40835	50.07
3.42502	50.06
3.44168	50.06
3.45835	50.06
3.47502	50.05
3.49168	50.05
3.50835	50.05
3.52502	50.04
3.54168	50.05
3.55835	50.06
3.57502	50.05
3.59168	50.06
3.60835	50.06
3.62502	50.06
3.64168	50.06
3.65835	50.06
3.67502	50.06
3.69168	50.06
3.70835	50.06
3.72502	50.06
3.74168	50.07
3.75835	50.07
3.77502	50.07
3.79168	50.07
3.80835	50.07
3.82502	50.07
3.84168	50.07
3.85835	50.07
3.87502	50.07
3.89168	50.08
3.90835	50.08
3.92502	50.08
3.94168	50.08
3.95835	50.08
3.97502	50.08
3.99168	50.07

[Status Trace (Injection Unit Temperature)]
Interval(msec)	1000
# of Points	240
Start Time(min)	0.008
End Time(min)	3.992
Intensity Units	
Intensity Multiplier	1
R.Time (min)	Intensity
0.00835	99.97
0.02502	99.97
0.04168	99.97
0.05835	99.97
0.07502	99.97
0.09168	99.97
0.10835	99.97
0.12502	99.97
0.14168	99.97
0.15835	99.97
0.17502	99.97
0.19168	99.98
0.20835	99.98
0.22502	99.98
0.24168	99.98
0.25835	99.98
0.27502	99.98
0.29168	99.97
0.30835	99.98
0.32502	99.98
0.34168	99.98
0.35835	99.98
0.37502	99.98
0.39168	99.97
0.40835	99.98
0.42502	99.98
0.44168	99.98
0.45835	99.98
0.47502	99.98
0.49168	99.98
0.50835	99.98
0.52502	99.98
0.54168	99.98
0.55835	99.98
0.57502	99.98
0.59168	99.98
0.60835	99.98
0.62502	99.98
0.64168	99.98
0.65835	99.98
0.67502	99.98
0.69168	99.98
0.70835	99.98
0.72502	99.98
0.74168	99.98
0.75835	99.98
0.77502	99.98
0.79168	99.98
0.80835	99.98
0.82502	99.98
0.84168	99.98
0.85835	99.98
0.87502	99.98
0.89168	99.98
0.90835	99.98
0.92502	99.98
0.94168	99.98
0.95835	99.98
0.97502	99.98
0.99168	99.98
1.00835	99.98
1.02502	99.98
1.04168	99.98
1.05835	99.98
1.07502	99.98
1.09168	99.99
1.10835	99.98
1.12502	99.99
1.14168	99.98
1.15835	99.99
1.17502	99.99
1.19168	99.99
1.20835	99.98
1.22502	99.99
1.24168	99.99
1.25835	99.99
1.27502	99.99
1.29168	99.99
1.30835	99.99
1.32502	99.99
1.34168	99.99
1.35835	99.99
1.37502	99.99
1.39168	99.99
1.40835	99.99
1.42502	99.99
1.44168	99.99
1.45835	99.99
1.47502	99.99
1.49168	99.99
1.50835	99.99
1.52502	99.99
1.54168	99.99
1.55835	99.98
1.57502	99.98
1.59168	99.98
1.60835	99.99
1.62502	99.98
1.64168	99.98
1.65835	99.98
1.67502	99.98
1.69168	99.98
1.70835	99.98
1.72502	99.98
1.74168	99.98
1.75835	99.98
1.77502	99.98
1.79168	99.98
1.80835	99.98
1.82502	99.98
1.84168	99.98
1.85835	99.98
1.87502	99.98
1.89168	99.97
1.90835	99.97
1.92502	99.97
1.94168	99.97
1.95835	99.97
1.97502	99.97
1.99168	99.97
2.00835	99.97
2.02502	99.97
2.04168	99.96
2.05835	99.97
2.07502	99.96
2.09168	99.96
2.10835	99.96
2.12502	99.96
2.14168	99.96
2.15835	99.96
2.17502	99.96
2.19168	99.96
2.20835	99.96
2.22502	99.96
2.24168	99.96
2.25835	99.96
2.27502	99.96
2.29168	99.96
2.30835	99.96
2.32502	99.96
2.34168	99.96
2.35835	99.96
2.37502	99.96
2.39168	99.96
2.40835	99.96
2.42502	99.96
2.44168	99.96
2.45835	99.96
2.47502	99.97
2.49168	99.96
2.50835	99.96
2.52502	99.97
2.54168	99.97
2.55835	99.97
2.57502	99.97
2.59168	99.97
2.60835	99.97
2.62502	99.97
2.64168	99.98
2.65835	99.98
2.67502	99.98
2.69168	99.98
2.70835	99.98
2.72502	99.98
2.74168	99.99
2.75835	99.99
2.77502	99.99
2.79168	99.99
2.80835	99.99
2.82502	99.99
2.84168	100.00
2.85835	99.99
2.87502	100.00
2.89168	100.00
2.90835	100.00
2.92502	100.01
2.94168	100.00
2.95835	100.00
2.97502	100.01
2.99168	100.01
3.00835	100.01
3.02502	100.01
3.04168	100.01
3.05835	100.02
3.07502	100.01
3.09168	100.01
3.10835	100.01
3.12502	100.02
3.14168	100.02
3.15835	100.02
3.17502	100.02
3.19168	100.02
3.20835	100.02
3.22502	100.02
3.24168	100.02
3.25835	100.02
3.27502	100.02
3.29168	100.02
3.30835	100.02
3.32502	100.02
3.34168	100.02
3.35835	100.02
3.37502	100.03
3.39168	100.03
3.40835	100.03
3.42502	100.03
3.44168	100.03
3.45835	100.03
3.47502	100.03
3.49168	100.04
3.50835	100.04
3.52502	100.03
3.54168	100.04
3.55835	100.04
3.57502	100.03
3.59168	100.04
3.60835	100.04
3.62502	100.04
3.64168	100.04
3.65835	100.04
3.67502	100.04
3.69168	100.04
3.70835	100.04
3.72502	100.04
3.74168	100.04
3.75835	100.04
3.77502	100.04
3.79168	100.04
3.80835	100.04
3.82502	100.05
3.84168	100.05
3.85835	100.04
3.87502	100.04
3.89168	100.04
3.90835	100.05
3.92502	100.05
3.94168	100.04
3.95835	100.05
3.97502	100.04
3.99168	100.05

[Status Trace (Carrier Gas Pressure)]
Interval(msec)	1000
# of Points	240
Start Time(min)	0.008
End Time(min)	3.992
Intensity Units	
Intensity Multiplier	1
R.Time (min)	Intensity
0.00835	58.00
0.02502	55.38
0.04168	57.11
0.05835	59.28
0.07502	59.52
0.09168	58.08
0.10835	57.98
0.12502	58.01
0.14168	58.01
0.15835	58.01
0.17502	58.00
0.19168	58.00
0.20835	58.00
0.22502	58.00
0.24168	58.00
0.25835	58.00
0.27502	58.00
0.29168	58.00
0.30835	58.00
0.32502	58.00
0.34168	58.00
0.35835	58.00
0.37502	58.00
0.39168	58.00
0.40835	58.00
0.42502	58.00
0.44168	58.00
0.45835	58.00
0.47502	58.00
0.49168	58.00
0.50835	58.00
0.52502	58.00
0.54168	58.00
0.55835	58.00
0.57502	58.00
0.59168	58.00
0.60835	58.00
0.62502	58.00
0.64168	58.00
0.65835	58.00
0.67502	58.00
0.69168	58.00
0.70835	58.00
0.72502	58.00
0.74168	58.00
0.75835	58.00
0.77502	58.00
0.79168	58.00
0.80835	58.00
0.82502	58.00
0.84168	58.00
0.85835	58.00
0.87502	58.00
0.89168	58.00
0.90835	58.00
0.92502	58.00
0.94168	58.00
0.95835	58.00
0.97502	58.00
0.99168	58.00
1.00835	58.00
1.02502	58.00
1.04168	58.00
1.05835	58.00
1.07502	58.00
1.09168	58.00
1.10835	58.00
1.12502	58.00
1.14168	58.00
1.15835	58.00
1.17502	58.00
1.19168	58.00
1.20835	58.00
1.22502	58.00
1.24168	58.00
1.25835	58.00
1.27502	58.00
1.29168	58.00
1.30835	58.00
1.32502	58.00
1.34168	58.00
1.35835	58.00
1.37502	58.00
1.39168	58.00
1.40835	58.00
1.42502	58.00
1.44168	58.00
1.45835	58.00
1.47502	58.00
1.49168	58.00
1.50835	58.00
1.52502	58.00
1.54168	58.00
1.55835	58.00
1.57502	58.00
1.59168	58.00
1.60835	58.00
1.62502	58.00
1.64168	58.01
1.65835	58.00
1.67502	58.01
1.69168	58.00
1.70835	58.00
1.72502	58.00
1.74168	58.00
1.75835	58.00
1.77502	58.00
1.79168	58.00
1.80835	58.00
1.82502	58.00
1.84168	58.00
1.85835	58.00
1.87502	58.00
1.89168	58.00
1.90835	58.00
1.92502	58.00
1.94168	58.00
1.95835	58.00
1.97502	58.00
1.99168	58.00
2.00835	58.00
2.02502	58.00
2.04168	58.00
2.05835	58.00
2.07502	58.00
2.09168	58.00
2.10835	58.00
2.12502	58.00
2.14168	58.00
2.15835	58.00
2.17502	58.00
2.19168	58.00
2.20835	58.00
2.22502	58.00
2.24168	58.00
2.25835	58.00
2.27502	58.00
2.29168	58.00
2.30835	58.00
2.32502	58.00
2.34168	58.00
2.35835	58.00
2.37502	57.99
2.39168	57.99
2.40835	58.00
2.42502	58.00
2.44168	58.00
2.45835	58.00
2.47502	58.00
2.49168	58.00
2.50835	58.00
2.52502	57.98
2.54168	58.00
2.55835	58.00
2.57502	58.00
2.59168	58.00
2.60835	58.00
2.62502	58.00
2.64168	58.00
2.65835	58.00
2.67502	58.00
2.69168	58.00
2.70835	58.00
2.72502	58.00
2.74168	58.00
2.75835	58.00
2.77502	58.00
2.79168	58.00
2.80835	58.00
2.82502	58.00
2.84168	58.00
2.85835	58.00
2.87502	58.00
2.89168	58.00
2.90835	58.00
2.92502	58.00
2.94168	58.00
2.95835	58.00
2.97502	58.00
2.99168	58.00
3.00835	58.00
3.02502	58.00
3.04168	58.00
3.05835	58.00
3.07502	58.00
3.09168	58.00
3.10835	58.00
3.12502	58.00
3.14168	58.00
3.15835	58.00
3.17502	58.00
3.19168	58.00
3.20835	58.00
3.22502	58.00
3.24168	58.00
3.25835	58.00
3.27502	58.00
3.29168	58.00
3.30835	58.00
3.32502	58.00
3.34168	58.00
3.35835	58.00
3.37502	58.00
3.39168	58.00
3.40835	58.00
3.42502	58.00
3.44168	58.00
3.45835	58.00
3.47502	58.00
3.49168	58.00
3.50835	58.00
3.52502	58.00
3.54168	58.00
3.55835	58.00
3.57502	58.00
3.59168	58.00
3.60835	58.00
3.62502	58.00
3.64168	58.00
3.65835	58.00
3.67502	58.00
3.69168	58.00
3.70835	58.00
3.72502	58.00
3.74168	58.00
3.75835	58.00
3.77502	58.00
3.79168	58.00
3.80835	58.00
3.82502	58.00
3.84168	58.00
3.85835	58.00
3.87502	58.00
3.89168	58.00
3.90835	58.00
3.92502	58.00
3.94168	58.00
3.95835	58.00
3.97502	58.00
3.99168	58.00

[Status Trace (Carrier Gas Flow)]
Interval(msec)	1000
# of Points	240
Start Time(min)	0.008
End Time(min)	3.992
Intensity Units	
Intensity Multiplier	1
R.Time (min)	Intensity
0.00835	34.51
0.02502	34.53
0.04168	34.54
0.05835	34.55
0.07502	34.50
0.09168	34.51
0.10835	34.52
0.12502	34.52
0.14168	34.51
0.15835	34.52
0.17502	34.52
0.19168	34.52
0.20835	34.52
0.22502	34.52
0.24168	34.51
0.25835	34.51
0.27502	34.52
0.29168	34.52
0.30835	34.52
0.32502	34.52
0.34168	34.52
0.35835	34.52
0.37502	34.52
0.39168	34.52
0.40835	34.52
0.42502	34.52
0.44168	34.51
0.45835	34.52
0.47502	34.52
0.49168	34.51
0.50835	34.52
0.52502	34.52
0.54168	34.52
0.55835	34.52
0.57502	34.52
0.59168	34.52
0.60835	34.51
0.62502	34.52
0.64168	34.52
0.65835	34.52
0.67502	34.52
0.69168	34.52
0.70835	34.52
0.72502	34.51
0.74168	34.51
0.75835	34.52
0.77502	34.51
0.79168	34.52
0.80835	34.52
0.82502	34.52
0.84168	34.51
0.85835	34.52
0.87502	34.52
0.89168	34.51
0.90835	34.52
0.92502	34.52
0.94168	34.52
0.95835	34.52
0.97502	34.52
0.99168	34.52
1.00835	34.52
1.02502	34.52
1.04168	34.52
1.05835	34.52
1.07502	34.52
1.09168	34.52
1.10835	34.52
1.12502	34.51
1.14168	34.52
1.15835	34.52
1.17502	34.52
1.19168	34.52
1.20835	34.52
1.22502	34.51
1.24168	34.52
1.25835	34.52
1.27502	34.53
1.29168	34.52
1.30835	34.51
1.32502	34.52
1.34168	34.53
1.35835	34.51
1.37502	34.52
1.39168	34.52
1.40835	34.51
1.42502	34.52
1.44168	34.52
1.45835	34.52
1.47502	34.52
1.49168	34.52
1.50835	34.52
1.52502	34.51
1.54168	34.52
1.55835	34.51
1.57502	34.53
1.59168	34.52
1.60835	34.51
1.62502	34.51
1.64168	34.53
1.65835	34.52
1.67502	34.52
1.69168	34.53
1.70835	34.51
1.72502	34.51
1.74168	34.52
1.75835	34.52
1.77502	34.52
1.79168	34.51
1.80835	34.53
1.82502	34.52
1.84168	34.52
1.85835	34.53
1.87502	34.53
1.89168	34.52
1.90835	34.51
1.92502	34.52
1.94168	34.52
1.95835	34.51
1.97502	34.52
1.99168	34.52
2.00835	34.52
2.02502	34.52
2.04168	34.52
2.05835	34.52
2.07502	34.52
2.09168	34.52
2.10835	34.52
2.12502	34.52
2.14168	34.52
2.15835	34.52
2.17502	34.52
2.19168	34.52
2.20835	34.52
2.22502	34.52
2.24168	34.52
2.25835	34.51
2.27502	34.52
2.29168	34.52
2.30835	34.52
2.32502	34.52
2.34168	34.52
2.35835	34.53
2.37502	34.52
2.39168	34.52
2.40835	34.52
2.42502	34.52
2.44168	34.52
2.45835	34.52
2.47502	34.51
2.49168	34.52
2.50835	34.43
2.52502	34.52
2.54168	34.52
2.55835	34.52
2.57502	34.52
2.59168	34.52
2.60835	34.52
2.62502	34.52
2.64168	34.53
2.65835	34.51
2.67502	34.52
2.69168	34.52
2.70835	34.51
2.72502	34.52
2.74168	34.52
2.75835	34.52
2.77502	34.52
2.79168	34.52
2.80835	34.52
2.82502	34.52
2.84168	34.51
2.85835	34.52
2.87502	34.52
2.89168	34.52
2.90835	34.52
2.92502	34.52
2.94168	34.52
2.95835	34.52
2.97502	34.52
2.99168	34.52
3.00835	34.52
3.02502	34.51
3.04168	34.51
3.05835	34.52
3.07502	34.53
3.09168	34.52
3.10835	34.52
3.12502	34.52
3.14168	34.52
3.15835	34.51
3.17502	34.52
3.19168	34.52
3.20835	34.52
3.22502	34.52
3.24168	34.52
3.25835	34.51
3.27502	34.52
3.29168	34.52
3.30835	34.52
3.32502	34.51
3.34168	34.51
3.35835	34.52
3.37502	34.51
3.39168	34.51
3.40835	34.52
3.42502	34.52
3.44168	34.52
3.45835	34.51
3.47502	34.52
3.49168	34.53
3.50835	34.52
3.52502	34.52
3.54168	34.52
3.55835	34.52
3.57502	34.52
3.59168	34.52
3.60835	34.51
3.62502	34.52
3.64168	34.52
3.65835	34.52
3.67502	34.52
3.69168	34.52
3.70835	34.52
3.72502	34.52
3.74168	34.51
3.75835	34.52
3.77502	34.52
3.79168	34.52
3.80835	34.52
3.82502	34.53
3.84168	34.52
3.85835	34.52
3.87502	34.52
3.89168	34.52
3.90835	34.52
3.92502	34.51
3.94168	34.53
3.95835	34.52
3.97502	34.52
3.99168	34.52

[Status Trace (Column Flow)]
Interval(msec)	1000
# of Points	240
Start Time(min)	0.008
End Time(min)	3.992
Intensity Units	
Intensity Multiplier	1
R.Time (min)	Intensity
0.00835	5.51
0.02502	5.20
0.04168	5.40
0.05835	5.65
0.07502	5.68
0.09168	5.52
0.10835	5.50
0.12502	5.51
0.14168	5.51
0.15835	5.51
0.17502	5.51
0.19168	5.51
0.20835	5.51
0.22502	5.51
0.24168	5.51
0.25835	5.51
0.27502	5.51
0.29168	5.51
0.30835	5.51
0.32502	5.51
0.34168	5.51
0.35835	5.51
0.37502	5.51
0.39168	5.51
0.40835	5.51
0.42502	5.51
0.44168	5.51
0.45835	5.51
0.47502	5.51
0.49168	5.51
0.50835	5.51
0.52502	5.51
0.54168	5.51
0.55835	5.51
0.57502	5.51
0.59168	5.51
0.60835	5.51
0.62502	5.51
0.64168	5.51
0.65835	5.51
0.67502	5.51
0.69168	5.51
0.70835	5.51
0.72502	5.51
0.74168	5.51
0.75835	5.51
0.77502	5.51
0.79168	5.51
0.80835	5.51
0.82502	5.51
0.84168	5.51
0.85835	5.51
0.87502	5.51
0.89168	5.51
0.90835	5.51
0.92502	5.51
0.94168	5.51
0.95835	5.51
0.97502	5.51
0.99168	5.51
1.00835	5.51
1.02502	5.51
1.04168	5.51
1.05835	5.51
1.07502	5.51
1.09168	5.51
1.10835	5.51
1.12502	5.51
1.14168	5.51
1.15835	5.51
1.17502	5.51
1.19168	5.51
1.20835	5.51
1.22502	5.51
1.24168	5.51
1.25835	5.51
1.27502	5.51
1.29168	5.51
1.30835	5.51
1.32502	5.51
1.34168	5.51
1.35835	5.51
1.37502	5.51
1.39168	5.51
1.40835	5.51
1.42502	5.51
1.44168	5.51
1.45835	5.51
1.47502	5.51
1.49168	5.51
1.50835	5.51
1.52502	5.51
1.54168	5.51
1.55835	5.51
1.57502	5.51
1.59168	5.51
1.60835	5.51
1.62502	5.50
1.64168	5.50
1.65835	5.49
1.67502	5.48
1.69168	5.47
1.70835	5.46
1.72502	5.45
1.74168	5.43
1.75835	5.42
1.77502	5.41
1.79168	5.40
1.80835	5.39
1.82502	5.38
1.84168	5.37
1.85835	5.36
1.87502	5.35
1.89168	5.34
1.90835	5.33
1.92502	5.32
1.94168	5.31
1.95835	5.30
1.97502	5.30
1.99168	5.29
2.00835	5.28
2.02502	5.27
2.04168	5.26
2.05835	5.25
2.07502	5.24
2.09168	5.23
2.10835	5.22
2.12502	5.21
2.14168	5.20
2.15835	5.19
2.17502	5.18
2.19168	5.17
2.20835	5.16
2.22502	5.15
2.24168	5.14
2.25835	5.14
2.27502	5.13
2.29168	5.12
2.30835	5.11
2.32502	5.10
2.34168	5.09
2.35835	5.08
2.37502	5.08
2.39168	5.07
2.40835	5.07
2.42502	5.07
2.44168	5.07
2.45835	5.07
2.47502	5.07
2.49168	5.07
2.50835	5.07
2.52502	5.07
2.54168	5.07
2.55835	5.07
2.57502	5.07
2.59168	5.07
2.60835	5.07
2.62502	5.07
2.64168	5.07
2.65835	5.07
2.67502	5.07
2.69168	5.07
2.70835	5.07
2.72502	5.07
2.74168	5.07
2.75835	5.07
2.77502	5.07
2.79168	5.07
2.80835	5.07
2.82502	5.07
2.84168	5.07
2.85835	5.07
2.87502	5.07
2.89168	5.07
2.90835	5.07
2.92502	5.07
2.94168	5.07
2.95835	5.07
2.97502	5.07
2.99168	5.07
3.00835	5.07
3.02502	5.07
3.04168	5.06
3.05835	5.06
3.07502	5.06
3.09168	5.06
3.10835	5.06
3.12502	5.06
3.14168	5.06
3.15835	5.06
3.17502	5.06
3.19168	5.06
3.20835	5.06
3.22502	5.06
3.24168	5.06
3.25835	5.06
3.27502	5.06
3.29168	5.06
3.30835	5.06
3.32502	5.06
3.34168	5.06
3.35835	5.06
3.37502	5.06
3.39168	5.06
3.40835	5.06
3.42502	5.06
3.44168	5.06
3.45835	5.06
3.47502	5.06
3.49168	5.06
3.50835	5.06
3.52502	5.06
3.54168	5.06
3.55835	5.06
3.57502	5.06
3.59168	5.06
3.60835	5.06
3.62502	5.06
3.64168	5.06
3.65835	5.06
3.67502	5.06
3.69168	5.06
3.70835	5.06
3.72502	5.06
3.74168	5.06
3.75835	5.06
3.77502	5.06
3.79168	5.06
3.80835	5.06
3.82502	5.06
3.84168	5.06
3.85835	5.06
3.87502	5.06
3.89168	5.06
3.90835	5.06
3.92502	5.06
3.94168	5.06
3.95835	5.06
3.97502	5.06
3.99168	5.06

[Status Trace (Linear Velocity)]
Interval(msec)	1000
# of Points	240
Start Time(min)	0.008
End Time(min)	3.992
Intensity Units	
Intensity Multiplier	1
R.Time (min)	Intensity
0.00835	39.01
0.02502	37.29
0.04168	38.42
0.05835	39.84
0.07502	40.00
0.09168	39.06
0.10835	39.00
0.12502	39.02
0.14168	39.02
0.15835	39.01
0.17502	39.01
0.19168	39.01
0.20835	39.01
0.22502	39.01
0.24168	39.01
0.25835	39.01
0.27502	39.01
0.29168	39.01
0.30835	39.01
0.32502	39.01
0.34168	39.01
0.35835	39.01
0.37502	39.01
0.39168	39.01
0.40835	39.01
0.42502	39.01
0.44168	39.01
0.45835	39.01
0.47502	39.01
0.49168	39.01
0.50835	39.01
0.52502	39.01
0.54168	39.01
0.55835	39.01
0.57502	39.01
0.59168	39.01
0.60835	39.01
0.62502	39.01
0.64168	39.01
0.65835	39.01
0.67502	39.01
0.69168	39.01
0.70835	39.01
0.72502	39.01
0.74168	39.01
0.75835	39.01
0.77502	39.01
0.79168	39.01
0.80835	39.01
0.82502	39.01
0.84168	39.01
0.85835	39.01
0.87502	39.01
0.89168	39.01
0.90835	39.01
0.92502	39.01
0.94168	39.01
0.95835	39.01
0.97502	39.01
0.99168	39.01
1.00835	39.01
1.02502	39.02
1.04168	39.01
1.05835	39.01
1.07502	39.01
1.09168	39.01
1.10835	39.01
1.12502	39.01
1.14168	39.01
1.15835	39.01
1.17502	39.01
1.19168	39.01
1.20835	39.01
1.22502	39.01
1.24168	39.01
1.25835	39.01
1.27502	39.01
1.29168	39.01
1.30835	39.01
1.32502	39.01
1.34168	39.01
1.35835	39.01
1.37502	39.02
1.39168	39.01
1.40835	39.01
1.42502	39.01
1.44168	39.01
1.45835	39.01
1.47502	39.01
1.49168	39.01
1.50835	39.01
1.52502	39.01
1.54168	39.01
1.55835	39.01
1.57502	39.01
1.59168	39.01
1.60835	39.01
1.62502	39.00
1.64168	38.98
1.65835	38.96
1.67502	38.93
1.69168	38.89
1.70835	38.86
1.72502	38.82
1.74168	38.79
1.75835	38.76
1.77502	38.73
1.79168	38.70
1.80835	38.66
1.82502	38.63
1.84168	38.60
1.85835	38.57
1.87502	38.54
1.89168	38.51
1.90835	38.48
1.92502	38.45
1.94168	38.42
1.95835	38.39
1.97502	38.36
1.99168	38.33
2.00835	38.30
2.02502	38.27
2.04168	38.24
2.05835	38.21
2.07502	38.18
2.09168	38.15
2.10835	38.12
2.12502	38.09
2.14168	38.06
2.15835	38.03
2.17502	38.00
2.19168	37.97
2.20835	37.94
2.22502	37.91
2.24168	37.88
2.25835	37.85
2.27502	37.82
2.29168	37.79
2.30835	37.76
2.32502	37.74
2.34168	37.70
2.35835	37.68
2.37502	37.66
2.39168	37.65
2.40835	37.66
2.42502	37.66
2.44168	37.66
2.45835	37.66
2.47502	37.66
2.49168	37.66
2.50835	37.65
2.52502	37.64
2.54168	37.65
2.55835	37.65
2.57502	37.65
2.59168	37.65
2.60835	37.65
2.62502	37.65
2.64168	37.64
2.65835	37.64
2.67502	37.64
2.69168	37.64
2.70835	37.64
2.72502	37.64
2.74168	37.64
2.75835	37.64
2.77502	37.64
2.79168	37.64
2.80835	37.64
2.82502	37.64
2.84168	37.64
2.85835	37.64
2.87502	37.64
2.89168	37.64
2.90835	37.64
2.92502	37.63
2.94168	37.63
2.95835	37.63
2.97502	37.63
2.99168	37.63
3.00835	37.63
3.02502	37.63
3.04168	37.63
3.05835	37.63
3.07502	37.63
3.09168	37.63
3.10835	37.63
3.12502	37.63
3.14168	37.63
3.15835	37.62
3.17502	37.62
3.19168	37.62
3.20835	37.62
3.22502	37.62
3.24168	37.62
3.25835	37.62
3.27502	37.62
3.29168	37.62
3.30835	37.62
3.32502	37.62
3.34168	37.62
3.35835	37.62
3.37502	37.62
3.39168	37.62
3.40835	37.62
3.42502	37.62
3.44168	37.62
3.45835	37.62
3.47502	37.62
3.49168	37.62
3.50835	37.63
3.52502	37.63
3.54168	37.63
3.55835	37.62
3.57502	37.62
3.59168	37.62
3.60835	37.62
3.62502	37.62
3.64168	37.62
3.65835	37.62
3.67502	37.62
3.69168	37.62
3.70835	37.62
3.72502	37.62
3.74168	37.62
3.75835	37.62
3.77502	37.62
3.79168	37.62
3.80835	37.62
3.82502	37.62
3.84168	37.62
3.85835	37.62
3.87502	37.62
3.89168	37.62
3.90835	37.62
3.92502	37.62
3.94168	37.62
3.95835	37.62
3.97502	37.62
3.99168	37.62

